 Incident particle is a Tau with M = 1776.82000 MeV
 Index = 0: Acetylene
      Absorber with <Z/A> = 0.53763
 Sternheimer coef:  a     k=m_s   x_0    x_1    I[eV]   Cbar  delta0
                 0.1217  3.4277  1.6017  4.0074   58.2  9.8419 0.00

 *** Table generated with PUMAS v1.00 ***

      T         p     Ionization  brems     pair     photonuc  Radloss    dE/dx   CSDA Range  delta   beta
    [MeV]    [MeV/c]  -----------------------[MeV cm^2/g]------------------------  [g/cm^2]
  1.000E+05 1.018E+05 2.779E+00 1.146E-04 1.779E-03 8.425E-03 1.032E-02 2.790E+00 1.792E+04  0.2130 0.99985
  1.122E+05 1.140E+05 2.810E+00 1.324E-04 2.152E-03 9.521E-03 1.180E-02 2.822E+00 2.227E+04  0.2966 0.99988
  1.259E+05 1.277E+05 2.841E+00 1.528E-04 2.592E-03 1.070E-02 1.345E-02 2.854E+00 2.710E+04  0.3878 0.99990
  1.413E+05 1.430E+05 2.871E+00 1.763E-04 3.112E-03 1.203E-02 1.532E-02 2.886E+00 3.245E+04  0.4865 0.99992
  1.585E+05 1.603E+05 2.900E+00 2.033E-04 3.724E-03 1.352E-02 1.745E-02 2.918E+00 3.839E+04  0.5926 0.99994
  1.778E+05 1.796E+05 2.929E+00 2.344E-04 4.442E-03 1.519E-02 1.986E-02 2.949E+00 4.498E+04  0.7056 0.99995
  1.995E+05 2.013E+05 2.958E+00 2.700E-04 5.284E-03 1.709E-02 2.264E-02 2.980E+00 5.230E+04  0.8255 0.99996
  2.239E+05 2.256E+05 2.985E+00 3.110E-04 6.269E-03 1.917E-02 2.575E-02 3.011E+00 6.043E+04  0.9520 0.99997
  2.512E+05 2.530E+05 3.013E+00 3.581E-04 7.419E-03 2.150E-02 2.928E-02 3.042E+00 6.945E+04  1.0848 0.99998
  2.818E+05 2.836E+05 3.040E+00 4.121E-04 8.759E-03 2.413E-02 3.330E-02 3.073E+00 7.948E+04  1.2238 0.99998
  3.162E+05 3.180E+05 3.066E+00 4.741E-04 1.032E-02 2.710E-02 3.789E-02 3.104E+00 9.061E+04  1.3687 0.99998
  3.548E+05 3.566E+05 3.092E+00 5.451E-04 1.213E-02 3.044E-02 4.311E-02 3.135E+00 1.030E+05  1.5192 0.99999
  3.981E+05 3.999E+05 3.118E+00 6.266E-04 1.423E-02 3.417E-02 4.902E-02 3.167E+00 1.167E+05  1.6753 0.99999
  4.467E+05 4.485E+05 3.143E+00 7.200E-04 1.666E-02 3.835E-02 5.573E-02 3.199E+00 1.320E+05  1.8365 0.99999
  5.012E+05 5.030E+05 3.168E+00 8.271E-04 1.947E-02 4.306E-02 6.336E-02 3.231E+00 1.489E+05  2.0028 0.99999
  5.623E+05 5.641E+05 3.192E+00 9.498E-04 2.271E-02 4.817E-02 7.184E-02 3.264E+00 1.678E+05  2.1738 1.00000
  6.310E+05 6.327E+05 3.216E+00 1.090E-03 2.646E-02 5.393E-02 8.148E-02 3.297E+00 1.887E+05  2.3495 1.00000
  7.079E+05 7.097E+05 3.239E+00 1.251E-03 3.077E-02 6.044E-02 9.246E-02 3.332E+00 2.119E+05  2.5295 1.00000
  7.943E+05 7.961E+05 3.262E+00 1.435E-03 3.573E-02 6.779E-02 1.050E-01 3.367E+00 2.377E+05  2.7136 1.00000
  8.913E+05 8.930E+05 3.285E+00 1.646E-03 4.143E-02 7.609E-02 1.192E-01 3.404E+00 2.663E+05  2.9017 1.00000
  1.000E+06 1.002E+06 3.307E+00 1.887E-03 4.798E-02 8.549E-02 1.354E-01 3.442E+00 2.981E+05  3.0935 1.00000
  1.122E+06 1.124E+06 3.329E+00 2.163E-03 5.548E-02 9.614E-02 1.538E-01 3.483E+00 3.333E+05  3.2889 1.00000
  1.259E+06 1.261E+06 3.350E+00 2.479E-03 6.408E-02 1.082E-01 1.748E-01 3.525E+00 3.724E+05  3.4876 1.00000
  1.413E+06 1.414E+06 3.371E+00 2.840E-03 7.391E-02 1.219E-01 1.986E-01 3.570E+00 4.157E+05  3.6894 1.00000
  1.585E+06 1.587E+06 3.392E+00 3.253E-03 8.515E-02 1.374E-01 2.258E-01 3.618E+00 4.637E+05  3.8942 1.00000
  1.778E+06 1.780E+06 3.412E+00 3.725E-03 9.798E-02 1.550E-01 2.567E-01 3.669E+00 5.168E+05  4.1017 1.00000
  1.995E+06 1.997E+06 3.432E+00 4.264E-03 1.126E-01 1.749E-01 2.918E-01 3.724E+00 5.755E+05  4.3118 1.00000
  2.239E+06 2.240E+06 3.452E+00 4.881E-03 1.293E-01 1.976E-01 3.318E-01 3.784E+00 6.403E+05  4.5243 1.00000
  2.512E+06 2.514E+06 3.472E+00 5.585E-03 1.483E-01 2.234E-01 3.773E-01 3.849E+00 7.119E+05  4.7391 1.00000
  2.818E+06 2.820E+06 3.491E+00 6.389E-03 1.699E-01 2.527E-01 4.290E-01 3.920E+00 7.908E+05  4.9558 1.00000
  3.162E+06 3.164E+06 3.509E+00 7.307E-03 1.945E-01 2.860E-01 4.878E-01 3.997E+00 8.777E+05  5.1745 1.00000
  3.548E+06 3.550E+06 3.528E+00 8.355E-03 2.224E-01 3.239E-01 5.547E-01 4.082E+00 9.732E+05  5.3949 1.00000
  3.981E+06 3.983E+06 3.546E+00 9.552E-03 2.541E-01 3.671E-01 6.307E-01 4.176E+00 1.078E+06  5.6168 1.00000
  4.467E+06 4.469E+06 3.564E+00 1.092E-02 2.900E-01 4.162E-01 7.171E-01 4.281E+00 1.193E+06  5.8401 1.00000
  5.012E+06 5.014E+06 3.581E+00 1.247E-02 3.307E-01 4.720E-01 8.152E-01 4.396E+00 1.319E+06  6.0647 1.00000
  5.623E+06 5.625E+06 3.598E+00 1.425E-02 3.768E-01 5.357E-01 9.268E-01 4.525E+00 1.456E+06  6.2903 1.00000
  6.310E+06 6.311E+06 3.615E+00 1.627E-02 4.290E-01 6.082E-01 1.053E+00 4.669E+00 1.605E+06  6.5170 1.00000
  7.079E+06 7.081E+06 3.632E+00 1.858E-02 4.880E-01 6.908E-01 1.197E+00 4.830E+00 1.767E+06  6.7444 1.00000
  7.943E+06 7.945E+06 3.649E+00 2.121E-02 5.548E-01 7.849E-01 1.361E+00 5.010E+00 1.943E+06  6.9726 1.00000
  8.913E+06 8.914E+06 3.665E+00 2.421E-02 6.302E-01 8.921E-01 1.547E+00 5.212E+00 2.133E+06  7.2014 1.00000
  1.000E+07 1.000E+07 3.681E+00 2.762E-02 7.154E-01 1.014E+00 1.757E+00 5.439E+00 2.337E+06  7.4306 1.00000
  1.122E+07 1.122E+07 3.697E+00 3.151E-02 8.116E-01 1.154E+00 1.997E+00 5.694E+00 2.556E+06  7.6603 1.00000
  1.259E+07 1.259E+07 3.713E+00 3.593E-02 9.201E-01 1.313E+00 2.269E+00 5.982E+00 2.791E+06  7.8901 1.00000
  1.413E+07 1.413E+07 3.729E+00 4.096E-02 1.042E+00 1.494E+00 2.577E+00 6.306E+00 3.041E+06  8.1202 1.00000
  1.585E+07 1.585E+07 3.744E+00 4.669E-02 1.180E+00 1.701E+00 2.928E+00 6.672E+00 3.307E+06  8.3504 1.00000
  1.778E+07 1.778E+07 3.760E+00 5.319E-02 1.336E+00 1.936E+00 3.325E+00 7.085E+00 3.588E+06  8.5806 1.00000
  1.995E+07 1.995E+07 3.775E+00 6.059E-02 1.511E+00 2.205E+00 3.777E+00 7.552E+00 3.885E+06  8.8109 1.00000
  2.239E+07 2.239E+07 3.790E+00 6.901E-02 1.708E+00 2.512E+00 4.289E+00 8.080E+00 4.197E+06  9.0411 1.00000
  2.512E+07 2.512E+07 3.806E+00 7.856E-02 1.931E+00 2.862E+00 4.871E+00 8.677E+00 4.523E+06  9.2713 1.00000
  2.818E+07 2.819E+07 3.821E+00 8.942E-02 2.181E+00 3.261E+00 5.531E+00 9.352E+00 4.864E+06  9.5016 1.00000
  3.162E+07 3.162E+07 3.836E+00 1.017E-01 2.462E+00 3.717E+00 6.281E+00 1.012E+01 5.218E+06  9.7318 1.00000
  3.548E+07 3.548E+07 3.851E+00 1.157E-01 2.778E+00 4.237E+00 7.131E+00 1.098E+01 5.584E+06  9.9621 1.00000
  3.981E+07 3.981E+07 3.866E+00 1.316E-01 3.134E+00 4.831E+00 8.097E+00 1.196E+01 5.962E+06 10.1923 1.00000
  4.467E+07 4.467E+07 3.881E+00 1.496E-01 3.534E+00 5.508E+00 9.193E+00 1.307E+01 6.351E+06 10.4226 1.00000
  5.012E+07 5.012E+07 3.896E+00 1.701E-01 3.984E+00 6.282E+00 1.044E+01 1.433E+01 6.750E+06 10.6528 1.00000
  5.623E+07 5.624E+07 3.910E+00 1.932E-01 4.490E+00 7.165E+00 1.185E+01 1.576E+01 7.157E+06 10.8831 1.00000
  6.310E+07 6.310E+07 3.925E+00 2.195E-01 5.058E+00 8.173E+00 1.345E+01 1.738E+01 7.572E+06 11.1133 1.00000
  7.079E+07 7.080E+07 3.940E+00 2.492E-01 5.697E+00 9.324E+00 1.527E+01 1.921E+01 7.994E+06 11.3436 1.00000
  7.943E+07 7.943E+07 3.955E+00 2.829E-01 6.415E+00 1.064E+01 1.734E+01 2.129E+01 8.422E+06 11.5738 1.00000
  8.913E+07 8.913E+07 3.970E+00 3.211E-01 7.221E+00 1.214E+01 1.968E+01 2.365E+01 8.854E+06 11.8041 1.00000
  1.000E+08 1.000E+08 3.985E+00 3.643E-01 8.126E+00 1.385E+01 2.234E+01 2.633E+01 9.291E+06 12.0343 1.00000
  1.122E+08 1.122E+08 4.000E+00 4.131E-01 9.143E+00 1.581E+01 2.537E+01 2.937E+01 9.730E+06 12.2646 1.00000
  1.259E+08 1.259E+08 4.015E+00 4.684E-01 1.028E+01 1.805E+01 2.880E+01 3.281E+01 1.017E+07 12.4948 1.00000
  1.413E+08 1.413E+08 4.031E+00 5.310E-01 1.157E+01 2.060E+01 3.270E+01 3.673E+01 1.062E+07 12.7251 1.00000
  1.585E+08 1.585E+08 4.046E+00 6.018E-01 1.301E+01 2.352E+01 3.712E+01 4.117E+01 1.106E+07 12.9554 1.00000
  1.778E+08 1.778E+08 4.061E+00 6.817E-01 1.462E+01 2.685E+01 4.215E+01 4.621E+01 1.150E+07 13.1856 1.00000
  1.995E+08 1.995E+08 4.076E+00 7.721E-01 1.644E+01 3.065E+01 4.786E+01 5.194E+01 1.195E+07 13.4159 1.00000
  2.239E+08 2.239E+08 4.091E+00 8.743E-01 1.847E+01 3.500E+01 5.435E+01 5.844E+01 1.239E+07 13.6461 1.00000
  2.512E+08 2.512E+08 4.107E+00 9.896E-01 2.076E+01 3.997E+01 6.172E+01 6.583E+01 1.283E+07 13.8764 1.00000
  2.818E+08 2.818E+08 4.122E+00 1.120E+00 2.333E+01 4.564E+01 7.009E+01 7.421E+01 1.327E+07 14.1066 1.00000
  3.162E+08 3.162E+08 4.138E+00 1.267E+00 2.621E+01 5.213E+01 7.960E+01 8.374E+01 1.371E+07 14.3369 1.00000
  3.548E+08 3.548E+08 4.153E+00 1.433E+00 2.944E+01 5.954E+01 9.041E+01 9.457E+01 1.414E+07 14.5672 1.00000
  3.981E+08 3.981E+08 4.169E+00 1.620E+00 3.307E+01 6.801E+01 1.027E+02 1.069E+02 1.457E+07 14.7974 1.00000
  4.467E+08 4.467E+08 4.185E+00 1.831E+00 3.714E+01 7.768E+01 1.167E+02 1.208E+02 1.500E+07 15.0277 1.00000
  5.012E+08 5.012E+08 4.201E+00 2.069E+00 4.172E+01 8.874E+01 1.325E+02 1.367E+02 1.543E+07 15.2579 1.00000
  5.623E+08 5.623E+08 4.217E+00 2.338E+00 4.685E+01 1.014E+02 1.506E+02 1.548E+02 1.585E+07 15.4882 1.00000
  6.310E+08 6.310E+08 4.233E+00 2.640E+00 5.260E+01 1.158E+02 1.711E+02 1.753E+02 1.626E+07 15.7184 1.00000
  7.079E+08 7.079E+08 4.249E+00 2.981E+00 5.906E+01 1.323E+02 1.944E+02 1.986E+02 1.668E+07 15.9487 1.00000
  7.943E+08 7.943E+08 4.265E+00 3.366E+00 6.631E+01 1.512E+02 2.209E+02 2.252E+02 1.709E+07 16.1790 1.00000
  8.913E+08 8.913E+08 4.281E+00 3.799E+00 7.445E+01 1.728E+02 2.510E+02 2.553E+02 1.749E+07 16.4092 1.00000
  1.000E+09 1.000E+09 4.297E+00 4.286E+00 8.358E+01 1.975E+02 2.853E+02 2.896E+02 1.789E+07 16.6395 1.00000
  1.122E+09 1.122E+09 4.314E+00 4.835E+00 9.382E+01 2.257E+02 3.243E+02 3.286E+02 1.829E+07 16.8697 1.00000
  1.259E+09 1.259E+09 4.330E+00 5.453E+00 1.053E+02 2.579E+02 3.687E+02 3.730E+02 1.868E+07 17.1000 1.00000
  1.413E+09 1.413E+09 4.347E+00 6.149E+00 1.182E+02 2.948E+02 4.191E+02 4.235E+02 1.907E+07 17.3302 1.00000
  1.585E+09 1.585E+09 4.363E+00 6.932E+00 1.327E+02 3.369E+02 4.766E+02 4.809E+02 1.945E+07 17.5605 1.00000
  1.778E+09 1.778E+09 4.380E+00 7.813E+00 1.489E+02 3.851E+02 5.419E+02 5.463E+02 1.983E+07 17.7908 1.00000
  1.995E+09 1.995E+09 4.397E+00 8.804E+00 1.672E+02 4.403E+02 6.162E+02 6.206E+02 2.020E+07 18.0210 1.00000
  2.239E+09 2.239E+09 4.414E+00 9.919E+00 1.876E+02 5.033E+02 7.009E+02 7.053E+02 2.057E+07 18.2513 1.00000
  2.512E+09 2.512E+09 4.431E+00 1.117E+01 2.106E+02 5.754E+02 7.972E+02 8.016E+02 2.094E+07 18.4815 1.00000
  2.818E+09 2.818E+09 4.448E+00 1.258E+01 2.363E+02 6.579E+02 9.068E+02 9.112E+02 2.129E+07 18.7118 1.00000
  3.162E+09 3.162E+09 4.465E+00 1.417E+01 2.652E+02 7.522E+02 1.032E+03 1.036E+03 2.165E+07 18.9421 1.00000
  3.548E+09 3.548E+09 4.482E+00 1.595E+01 2.976E+02 8.602E+02 1.174E+03 1.178E+03 2.200E+07 19.1723 1.00000
  3.981E+09 3.981E+09 4.500E+00 1.795E+01 3.340E+02 9.836E+02 1.336E+03 1.340E+03 2.234E+07 19.4026 1.00000
  4.467E+09 4.467E+09 4.517E+00 2.020E+01 3.748E+02 1.125E+03 1.520E+03 1.524E+03 2.269E+07 19.6328 1.00000
  5.012E+09 5.012E+09 4.535E+00 2.273E+01 4.206E+02 1.286E+03 1.730E+03 1.734E+03 2.302E+07 19.8631 1.00000
  5.623E+09 5.623E+09 4.553E+00 2.557E+01 4.719E+02 1.471E+03 1.969E+03 1.973E+03 2.335E+07 20.0933 1.00000
  6.310E+09 6.310E+09 4.570E+00 2.877E+01 5.296E+02 1.683E+03 2.241E+03 2.246E+03 2.368E+07 20.3236 1.00000
  7.079E+09 7.079E+09 4.588E+00 3.235E+01 5.943E+02 1.925E+03 2.551E+03 2.556E+03 2.400E+07 20.5539 1.00000
  7.943E+09 7.943E+09 4.606E+00 3.638E+01 6.668E+02 2.202E+03 2.905E+03 2.909E+03 2.432E+07 20.7841 1.00000
  8.913E+09 8.913E+09 4.624E+00 4.091E+01 7.482E+02 2.518E+03 3.308E+03 3.312E+03 2.463E+07 21.0144 1.00000
  1.000E+10 1.000E+10 4.643E+00 4.599E+01 8.396E+02 2.881E+03 3.767E+03 3.771E+03 2.494E+07 21.2446 1.00000
  1.122E+10 1.122E+10 4.661E+00 5.170E+01 9.421E+02 3.296E+03 4.290E+03 4.295E+03 2.524E+07 21.4749 1.00000
  1.259E+10 1.259E+10 4.679E+00 5.811E+01 1.057E+03 3.771E+03 4.886E+03 4.891E+03 2.554E+07 21.7052 1.00000
  1.413E+10 1.413E+10 4.698E+00 6.530E+01 1.186E+03 4.315E+03 5.566E+03 5.571E+03 2.584E+07 21.9354 1.00000
  1.585E+10 1.585E+10 4.716E+00 7.339E+01 1.331E+03 4.937E+03 6.341E+03 6.346E+03 2.613E+07 22.1657 1.00000
  1.778E+10 1.778E+10 4.735E+00 8.246E+01 1.493E+03 5.649E+03 7.225E+03 7.230E+03 2.641E+07 22.3959 1.00000
  1.995E+10 1.995E+10 4.754E+00 9.264E+01 1.676E+03 6.465E+03 8.233E+03 8.238E+03 2.670E+07 22.6262 1.00000
  2.239E+10 2.239E+10 4.773E+00 1.041E+02 1.880E+03 7.398E+03 9.383E+03 9.387E+03 2.697E+07 22.8565 1.00000
  2.512E+10 2.512E+10 4.792E+00 1.169E+02 2.110E+03 8.467E+03 1.069E+04 1.070E+04 2.725E+07 23.0867 1.00000
  2.818E+10 2.818E+10 4.811E+00 1.313E+02 2.367E+03 9.691E+03 1.219E+04 1.219E+04 2.752E+07 23.3170 1.00000
  3.162E+10 3.162E+10 4.830E+00 1.475E+02 2.656E+03 1.109E+04 1.390E+04 1.390E+04 2.778E+07 23.5472 1.00000
  3.548E+10 3.548E+10 4.850E+00 1.657E+02 2.980E+03 1.270E+04 1.584E+04 1.585E+04 2.804E+07 23.7775 1.00000
  3.981E+10 3.981E+10 4.869E+00 1.860E+02 3.344E+03 1.453E+04 1.806E+04 1.807E+04 2.830E+07 24.0077 1.00000
  4.467E+10 4.467E+10 4.889E+00 2.089E+02 3.752E+03 1.664E+04 2.060E+04 2.060E+04 2.855E+07 24.2380 1.00000
  5.012E+10 5.012E+10 4.908E+00 2.346E+02 4.209E+03 1.905E+04 2.349E+04 2.350E+04 2.880E+07 24.4683 1.00000
  5.623E+10 5.623E+10 4.928E+00 2.634E+02 4.723E+03 2.181E+04 2.679E+04 2.680E+04 2.904E+07 24.6985 1.00000
  6.310E+10 6.310E+10 4.948E+00 2.957E+02 5.299E+03 2.497E+04 3.056E+04 3.057E+04 2.928E+07 24.9288 1.00000
  7.079E+10 7.079E+10 4.968E+00 3.320E+02 5.946E+03 2.859E+04 3.487E+04 3.487E+04 2.952E+07 25.1590 1.00000
  7.943E+10 7.943E+10 4.988E+00 3.727E+02 6.671E+03 3.274E+04 3.978E+04 3.978E+04 2.975E+07 25.3893 1.00000
  8.913E+10 8.913E+10 5.009E+00 4.184E+02 7.485E+03 3.749E+04 4.539E+04 4.539E+04 2.998E+07 25.6196 1.00000
  1.000E+11 1.000E+11 5.029E+00 4.697E+02 8.398E+03 4.293E+04 5.180E+04 5.180E+04 3.020E+07 25.8498 1.00000
  1.122E+11 1.122E+11 5.049E+00 5.272E+02 9.423E+03 4.916E+04 5.911E+04 5.912E+04 3.043E+07 26.0801 1.00000
  1.259E+11 1.259E+11 5.070E+00 5.918E+02 1.057E+04 5.631E+04 6.747E+04 6.748E+04 3.064E+07 26.3103 1.00000
  1.413E+11 1.413E+11 5.091E+00 6.643E+02 1.186E+04 6.449E+04 7.702E+04 7.702E+04 3.086E+07 26.5406 1.00000
  1.585E+11 1.585E+11 5.112E+00 7.456E+02 1.331E+04 7.387E+04 8.793E+04 8.793E+04 3.107E+07 26.7708 1.00000
  1.778E+11 1.778E+11 5.133E+00 8.368E+02 1.493E+04 8.462E+04 1.004E+05 1.004E+05 3.127E+07 27.0011 1.00000
  1.995E+11 1.995E+11 5.154E+00 9.392E+02 1.675E+04 9.693E+04 1.146E+05 1.146E+05 3.147E+07 27.2314 1.00000
  2.239E+11 2.239E+11 5.175E+00 1.054E+03 1.880E+04 1.110E+05 1.309E+05 1.309E+05 3.167E+07 27.4616 1.00000
  2.512E+11 2.512E+11 5.196E+00 1.183E+03 2.109E+04 1.272E+05 1.495E+05 1.495E+05 3.187E+07 27.6919 1.00000
  2.818E+11 2.818E+11 5.218E+00 1.328E+03 2.366E+04 1.458E+05 1.708E+05 1.708E+05 3.206E+07 27.9221 1.00000
  3.162E+11 3.162E+11 5.239E+00 1.490E+03 2.655E+04 1.670E+05 1.951E+05 1.951E+05 3.225E+07 28.1524 1.00000
  3.548E+11 3.548E+11 5.261E+00 1.672E+03 2.979E+04 1.914E+05 2.228E+05 2.228E+05 3.244E+07 28.3827 1.00000
  3.981E+11 3.981E+11 5.283E+00 1.876E+03 3.342E+04 2.193E+05 2.546E+05 2.546E+05 3.262E+07 28.6129 1.00000
  4.467E+11 4.467E+11 5.304E+00 2.106E+03 3.750E+04 2.513E+05 2.909E+05 2.909E+05 3.280E+07 28.8432 1.00000
  5.012E+11 5.012E+11 5.327E+00 2.363E+03 4.208E+04 2.880E+05 3.324E+05 3.324E+05 3.297E+07 29.0734 1.00000
  5.623E+11 5.623E+11 5.349E+00 2.652E+03 4.721E+04 3.301E+05 3.799E+05 3.799E+05 3.315E+07 29.3037 1.00000
  6.310E+11 6.310E+11 5.371E+00 2.976E+03 5.297E+04 3.783E+05 4.342E+05 4.342E+05 3.331E+07 29.5339 1.00000
  7.079E+11 7.079E+11 5.393E+00 3.339E+03 5.943E+04 4.336E+05 4.964E+05 4.964E+05 3.348E+07 29.7642 1.00000
  7.943E+11 7.943E+11 5.416E+00 3.747E+03 6.668E+04 4.970E+05 5.674E+05 5.674E+05 3.364E+07 29.9945 1.00000
  8.913E+11 8.913E+11 5.439E+00 4.204E+03 7.481E+04 5.697E+05 6.487E+05 6.487E+05 3.380E+07 30.2247 1.00000
  1.000E+12 1.000E+12 5.461E+00 4.718E+03 8.393E+04 6.531E+05 7.418E+05 7.418E+05 3.396E+07 30.4550 1.00000
  1.122E+12 1.122E+12 5.484E+00 5.294E+03 9.417E+04 7.488E+05 8.482E+05 8.482E+05 3.412E+07 30.6852 1.00000
  1.259E+12 1.259E+12 5.507E+00 5.940E+03 1.057E+05 8.584E+05 9.700E+05 9.700E+05 3.427E+07 30.9155 1.00000
  1.413E+12 1.413E+12 5.530E+00 6.665E+03 1.185E+05 9.842E+05 1.109E+06 1.109E+06 3.442E+07 31.1458 1.00000
  1.585E+12 1.585E+12 5.554E+00 7.479E+03 1.330E+05 1.129E+06 1.269E+06 1.269E+06 3.456E+07 31.3760 1.00000
  1.778E+12 1.778E+12 5.577E+00 8.392E+03 1.492E+05 1.294E+06 1.452E+06 1.452E+06 3.470E+07 31.6063 1.00000
  1.995E+12 1.995E+12 5.601E+00 9.417E+03 1.674E+05 1.484E+06 1.661E+06 1.661E+06 3.484E+07 31.8365 1.00000
  2.239E+12 2.239E+12 5.624E+00 1.057E+04 1.879E+05 1.702E+06 1.900E+06 1.900E+06 3.498E+07 32.0668 1.00000
  2.512E+12 2.512E+12 5.648E+00 1.186E+04 2.108E+05 1.952E+06 2.174E+06 2.174E+06 3.512E+07 32.2970 1.00000
  2.818E+12 2.818E+12 5.672E+00 1.330E+04 2.365E+05 2.238E+06 2.488E+06 2.488E+06 3.525E+07 32.5273 1.00000
  3.162E+12 3.162E+12 5.696E+00 1.493E+04 2.653E+05 2.567E+06 2.847E+06 2.847E+06 3.538E+07 32.7576 1.00000
  3.548E+12 3.548E+12 5.720E+00 1.675E+04 2.977E+05 2.945E+06 3.259E+06 3.259E+06 3.550E+07 32.9878 1.00000
  3.981E+12 3.981E+12 5.745E+00 1.879E+04 3.340E+05 3.378E+06 3.730E+06 3.730E+06 3.563E+07 33.2181 1.00000
  4.467E+12 4.467E+12 5.769E+00 2.109E+04 3.747E+05 3.874E+06 4.270E+06 4.270E+06 3.575E+07 33.4483 1.00000
  5.012E+12 5.012E+12 5.794E+00 2.366E+04 4.204E+05 4.445E+06 4.889E+06 4.889E+06 3.587E+07 33.6786 1.00000
  5.623E+12 5.623E+12 5.819E+00 2.655E+04 4.717E+05 5.099E+06 5.597E+06 5.597E+06 3.599E+07 33.9089 1.00000
  6.310E+12 6.310E+12 5.843E+00 2.979E+04 5.292E+05 5.850E+06 6.409E+06 6.409E+06 3.610E+07 34.1391 1.00000
  7.079E+12 7.079E+12 5.868E+00 3.342E+04 5.938E+05 6.712E+06 7.339E+06 7.339E+06 3.621E+07 34.3694 1.00000
  7.943E+12 7.943E+12 5.894E+00 3.750E+04 6.662E+05 7.702E+06 8.405E+06 8.405E+06 3.633E+07 34.5996 1.00000
  8.913E+12 8.913E+12 5.919E+00 4.208E+04 7.475E+05 8.837E+06 9.627E+06 9.627E+06 3.643E+07 34.8299 1.00000
  1.000E+13 1.000E+13 5.944E+00 4.721E+04 8.386E+05 1.014E+07 1.103E+07 1.103E+07 3.654E+07 35.0602 1.00000
  1.122E+13 1.122E+13 5.970E+00 5.297E+04 9.409E+05 1.164E+07 1.263E+07 1.263E+07 3.664E+07 35.2904 1.00000
  1.259E+13 1.259E+13 5.996E+00 5.943E+04 1.056E+06 1.336E+07 1.447E+07 1.447E+07 3.674E+07 35.5207 1.00000
  1.413E+13 1.413E+13 6.021E+00 6.669E+04 1.184E+06 1.533E+07 1.658E+07 1.658E+07 3.684E+07 35.7509 1.00000
  1.585E+13 1.585E+13 6.047E+00 7.482E+04 1.329E+06 1.759E+07 1.900E+07 1.900E+07 3.694E+07 35.9812 1.00000
  1.778E+13 1.778E+13 6.074E+00 8.396E+04 1.491E+06 2.019E+07 2.177E+07 2.177E+07 3.704E+07 36.2114 1.00000
  1.995E+13 1.995E+13 6.100E+00 9.420E+04 1.673E+06 2.318E+07 2.495E+07 2.495E+07 3.713E+07 36.4417 1.00000
  2.239E+13 2.239E+13 6.126E+00 1.057E+05 1.877E+06 2.661E+07 2.859E+07 2.859E+07 3.722E+07 36.6720 1.00000
  2.512E+13 2.512E+13 6.153E+00 1.186E+05 2.106E+06 3.054E+07 3.277E+07 3.277E+07 3.731E+07 36.9022 1.00000
  2.818E+13 2.818E+13 6.179E+00 1.331E+05 2.362E+06 3.506E+07 3.756E+07 3.756E+07 3.740E+07 37.1325 1.00000
  3.162E+13 3.162E+13 6.206E+00 1.493E+05 2.651E+06 4.026E+07 4.306E+07 4.306E+07 3.748E+07 37.3627 1.00000
  3.548E+13 3.548E+13 6.233E+00 1.675E+05 2.974E+06 4.622E+07 4.936E+07 4.936E+07 3.757E+07 37.5930 1.00000
  3.981E+13 3.981E+13 6.260E+00 1.880E+05 3.336E+06 5.307E+07 5.659E+07 5.659E+07 3.765E+07 37.8233 1.00000
  4.467E+13 4.467E+13 6.288E+00 2.109E+05 3.743E+06 6.094E+07 6.489E+07 6.489E+07 3.773E+07 38.0535 1.00000
  5.012E+13 5.012E+13 6.315E+00 2.366E+05 4.200E+06 6.997E+07 7.441E+07 7.441E+07 3.781E+07 38.2838 1.00000
  5.623E+13 5.623E+13 6.343E+00 2.655E+05 4.712E+06 8.035E+07 8.533E+07 8.533E+07 3.789E+07 38.5140 1.00000
  6.310E+13 6.310E+13 6.370E+00 2.979E+05 5.287E+06 9.227E+07 9.786E+07 9.786E+07 3.796E+07 38.7443 1.00000
  7.079E+13 7.079E+13 6.398E+00 3.342E+05 5.932E+06 1.060E+08 1.122E+08 1.122E+08 3.803E+07 38.9745 1.00000
  7.943E+13 7.943E+13 6.426E+00 3.750E+05 6.655E+06 1.217E+08 1.287E+08 1.287E+08 3.811E+07 39.2048 1.00000
  8.913E+13 8.913E+13 6.454E+00 4.208E+05 7.466E+06 1.398E+08 1.477E+08 1.477E+08 3.818E+07 39.4351 1.00000
