 Incident particle is a Tau with M = 1776.82000 MeV
 Index = 0: Acrylic
      Absorber with <Z/A> = 0.53931
 Sternheimer coef:  a     k=m_s   x_0    x_1    I[eV]   Cbar  delta0
                 0.1143  3.3836  0.1824  2.6681   74.0  3.3297 0.00

 *** Table generated with PUMAS v1.00 ***

      T         p     Ionization  brems     pair     photonuc  Radloss    dE/dx   CSDA Range  delta   beta
    [MeV]    [MeV/c]  -----------------------[MeV cm^2/g]------------------------  [g/cm^2]
  1.000E+05 1.018E+05 2.364E+00 1.262E-04 1.961E-03 8.399E-03 1.049E-02 2.375E+00 2.106E+04  4.8490 0.99985
  1.122E+05 1.140E+05 2.385E+00 1.457E-04 2.370E-03 9.490E-03 1.201E-02 2.397E+00 2.617E+04  5.0613 0.99988
  1.259E+05 1.277E+05 2.405E+00 1.682E-04 2.854E-03 1.066E-02 1.369E-02 2.419E+00 3.186E+04  5.2758 0.99990
  1.413E+05 1.430E+05 2.425E+00 1.941E-04 3.423E-03 1.199E-02 1.561E-02 2.441E+00 3.818E+04  5.4922 0.99992
  1.585E+05 1.603E+05 2.446E+00 2.239E-04 4.093E-03 1.347E-02 1.779E-02 2.463E+00 4.521E+04  5.7106 0.99994
  1.778E+05 1.796E+05 2.466E+00 2.581E-04 4.880E-03 1.513E-02 2.027E-02 2.486E+00 5.302E+04  5.9306 0.99995
  1.995E+05 2.013E+05 2.486E+00 2.975E-04 5.802E-03 1.702E-02 2.312E-02 2.509E+00 6.171E+04  6.1521 0.99996
  2.239E+05 2.256E+05 2.506E+00 3.426E-04 6.880E-03 1.908E-02 2.631E-02 2.532E+00 7.137E+04  6.3750 0.99997
  2.512E+05 2.530E+05 2.526E+00 3.945E-04 8.138E-03 2.140E-02 2.993E-02 2.556E+00 8.211E+04  6.5992 0.99998
  2.818E+05 2.836E+05 2.546E+00 4.540E-04 9.604E-03 2.401E-02 3.407E-02 2.580E+00 9.404E+04  6.8244 0.99998
  3.162E+05 3.180E+05 2.566E+00 5.223E-04 1.131E-02 2.697E-02 3.880E-02 2.604E+00 1.073E+05  7.0506 0.99998
  3.548E+05 3.566E+05 2.585E+00 6.007E-04 1.329E-02 3.029E-02 4.417E-02 2.630E+00 1.221E+05  7.2776 0.99999
  3.981E+05 3.999E+05 2.605E+00 6.905E-04 1.558E-02 3.399E-02 5.026E-02 2.655E+00 1.384E+05  7.5053 0.99999
  4.467E+05 4.485E+05 2.625E+00 7.935E-04 1.824E-02 3.815E-02 5.718E-02 2.682E+00 1.566E+05  7.7336 0.99999
  5.012E+05 5.030E+05 2.644E+00 9.115E-04 2.131E-02 4.283E-02 6.505E-02 2.709E+00 1.769E+05  7.9623 0.99999
  5.623E+05 5.641E+05 2.664E+00 1.047E-03 2.486E-02 4.790E-02 7.380E-02 2.738E+00 1.993E+05  8.1914 1.00000
  6.310E+05 6.327E+05 2.683E+00 1.201E-03 2.894E-02 5.362E-02 8.377E-02 2.767E+00 2.242E+05  8.4208 1.00000
  7.079E+05 7.097E+05 2.703E+00 1.379E-03 3.365E-02 6.008E-02 9.511E-02 2.798E+00 2.519E+05  8.6504 1.00000
  7.943E+05 7.961E+05 2.722E+00 1.582E-03 3.907E-02 6.737E-02 1.080E-01 2.830E+00 2.826E+05  8.8801 1.00000
  8.913E+05 8.930E+05 2.741E+00 1.814E-03 4.529E-02 7.562E-02 1.227E-01 2.864E+00 3.167E+05  9.1099 1.00000
  1.000E+06 1.002E+06 2.760E+00 2.080E-03 5.243E-02 8.495E-02 1.395E-01 2.900E+00 3.544E+05  9.3397 1.00000
  1.122E+06 1.124E+06 2.779E+00 2.383E-03 6.061E-02 9.552E-02 1.585E-01 2.938E+00 3.962E+05  9.5696 1.00000
  1.259E+06 1.261E+06 2.798E+00 2.731E-03 6.998E-02 1.075E-01 1.802E-01 2.979E+00 4.425E+05  9.7995 1.00000
  1.413E+06 1.414E+06 2.817E+00 3.129E-03 8.070E-02 1.210E-01 2.049E-01 3.022E+00 4.937E+05 10.0294 1.00000
  1.585E+06 1.587E+06 2.836E+00 3.583E-03 9.294E-02 1.364E-01 2.330E-01 3.069E+00 5.503E+05 10.2594 1.00000
  1.778E+06 1.780E+06 2.854E+00 4.102E-03 1.069E-01 1.539E-01 2.649E-01 3.119E+00 6.128E+05 10.4894 1.00000
  1.995E+06 1.997E+06 2.873E+00 4.696E-03 1.229E-01 1.737E-01 3.013E-01 3.174E+00 6.817E+05 10.7195 1.00000
  2.239E+06 2.240E+06 2.891E+00 5.374E-03 1.410E-01 1.962E-01 3.426E-01 3.234E+00 7.577E+05 10.9496 1.00000
  2.512E+06 2.514E+06 2.909E+00 6.148E-03 1.617E-01 2.218E-01 3.897E-01 3.299E+00 8.414E+05 11.1796 1.00000
  2.818E+06 2.820E+06 2.927E+00 7.032E-03 1.852E-01 2.509E-01 4.431E-01 3.370E+00 9.333E+05 11.4097 1.00000
  3.162E+06 3.164E+06 2.945E+00 8.041E-03 2.120E-01 2.839E-01 5.039E-01 3.449E+00 1.034E+06 11.6399 1.00000
  3.548E+06 3.550E+06 2.963E+00 9.193E-03 2.423E-01 3.216E-01 5.731E-01 3.536E+00 1.145E+06 11.8700 1.00000
  3.981E+06 3.983E+06 2.980E+00 1.051E-02 2.768E-01 3.643E-01 6.516E-01 3.632E+00 1.265E+06 12.1002 1.00000
  4.467E+06 4.469E+06 2.998E+00 1.201E-02 3.158E-01 4.131E-01 7.409E-01 3.738E+00 1.397E+06 12.3303 1.00000
  5.012E+06 5.014E+06 3.015E+00 1.372E-02 3.601E-01 4.685E-01 8.423E-01 3.857E+00 1.541E+06 12.5605 1.00000
  5.623E+06 5.625E+06 3.032E+00 1.567E-02 4.102E-01 5.317E-01 9.575E-01 3.989E+00 1.697E+06 12.7907 1.00000
  6.310E+06 6.311E+06 3.048E+00 1.789E-02 4.669E-01 6.036E-01 1.088E+00 4.137E+00 1.866E+06 13.0209 1.00000
  7.079E+06 7.081E+06 3.065E+00 2.042E-02 5.310E-01 6.855E-01 1.237E+00 4.302E+00 2.048E+06 13.2511 1.00000
  7.943E+06 7.945E+06 3.081E+00 2.331E-02 6.035E-01 7.789E-01 1.406E+00 4.487E+00 2.245E+06 13.4813 1.00000
  8.913E+06 8.914E+06 3.098E+00 2.659E-02 6.854E-01 8.853E-01 1.597E+00 4.695E+00 2.456E+06 13.7115 1.00000
  1.000E+07 1.000E+07 3.114E+00 3.034E-02 7.779E-01 1.007E+00 1.815E+00 4.929E+00 2.682E+06 13.9417 1.00000
  1.122E+07 1.122E+07 3.130E+00 3.459E-02 8.823E-01 1.145E+00 2.062E+00 5.192E+00 2.924E+06 14.1719 1.00000
  1.259E+07 1.259E+07 3.146E+00 3.944E-02 1.000E+00 1.302E+00 2.342E+00 5.488E+00 3.180E+06 14.4021 1.00000
  1.413E+07 1.413E+07 3.161E+00 4.495E-02 1.133E+00 1.482E+00 2.660E+00 5.821E+00 3.452E+06 14.6324 1.00000
  1.585E+07 1.585E+07 3.177E+00 5.122E-02 1.282E+00 1.687E+00 3.021E+00 6.198E+00 3.739E+06 14.8626 1.00000
  1.778E+07 1.778E+07 3.193E+00 5.835E-02 1.451E+00 1.921E+00 3.431E+00 6.623E+00 4.041E+06 15.0928 1.00000
  1.995E+07 1.995E+07 3.208E+00 6.645E-02 1.641E+00 2.188E+00 3.895E+00 7.103E+00 4.358E+06 15.3231 1.00000
  2.239E+07 2.239E+07 3.223E+00 7.566E-02 1.855E+00 2.492E+00 4.423E+00 7.646E+00 4.688E+06 15.5533 1.00000
  2.512E+07 2.512E+07 3.238E+00 8.612E-02 2.096E+00 2.839E+00 5.021E+00 8.260E+00 5.032E+06 15.7835 1.00000
  2.818E+07 2.819E+07 3.254E+00 9.799E-02 2.367E+00 3.236E+00 5.701E+00 8.954E+00 5.389E+06 16.0138 1.00000
  3.162E+07 3.162E+07 3.269E+00 1.115E-01 2.672E+00 3.688E+00 6.471E+00 9.740E+00 5.758E+06 16.2440 1.00000
  3.548E+07 3.548E+07 3.284E+00 1.268E-01 3.015E+00 4.204E+00 7.345E+00 1.063E+01 6.137E+06 16.4743 1.00000
  3.981E+07 3.981E+07 3.299E+00 1.441E-01 3.401E+00 4.793E+00 8.337E+00 1.164E+01 6.527E+06 16.7045 1.00000
  4.467E+07 4.467E+07 3.314E+00 1.638E-01 3.834E+00 5.465E+00 9.463E+00 1.278E+01 6.926E+06 16.9348 1.00000
  5.012E+07 5.012E+07 3.329E+00 1.861E-01 4.322E+00 6.232E+00 1.074E+01 1.407E+01 7.333E+06 17.1650 1.00000
  5.623E+07 5.624E+07 3.344E+00 2.114E-01 4.870E+00 7.108E+00 1.219E+01 1.553E+01 7.747E+06 17.3953 1.00000
  6.310E+07 6.310E+07 3.359E+00 2.401E-01 5.486E+00 8.108E+00 1.383E+01 1.719E+01 8.167E+06 17.6255 1.00000
  7.079E+07 7.080E+07 3.374E+00 2.726E-01 6.178E+00 9.250E+00 1.570E+01 1.907E+01 8.593E+06 17.8558 1.00000
  7.943E+07 7.943E+07 3.389E+00 3.094E-01 6.955E+00 1.055E+01 1.782E+01 2.121E+01 9.023E+06 18.0860 1.00000
  8.913E+07 8.913E+07 3.404E+00 3.510E-01 7.828E+00 1.204E+01 2.022E+01 2.363E+01 9.457E+06 18.3163 1.00000
  1.000E+08 1.000E+08 3.419E+00 3.982E-01 8.809E+00 1.374E+01 2.295E+01 2.637E+01 9.893E+06 18.5465 1.00000
  1.122E+08 1.122E+08 3.434E+00 4.515E-01 9.911E+00 1.568E+01 2.605E+01 2.948E+01 1.033E+07 18.7768 1.00000
  1.259E+08 1.259E+08 3.449E+00 5.118E-01 1.115E+01 1.790E+01 2.956E+01 3.301E+01 1.077E+07 19.0070 1.00000
  1.413E+08 1.413E+08 3.464E+00 5.800E-01 1.254E+01 2.044E+01 3.355E+01 3.702E+01 1.121E+07 19.2373 1.00000
  1.585E+08 1.585E+08 3.479E+00 6.572E-01 1.410E+01 2.333E+01 3.808E+01 4.156E+01 1.165E+07 19.4676 1.00000
  1.778E+08 1.778E+08 3.495E+00 7.444E-01 1.585E+01 2.663E+01 4.322E+01 4.672E+01 1.209E+07 19.6978 1.00000
  1.995E+08 1.995E+08 3.510E+00 8.429E-01 1.781E+01 3.041E+01 4.906E+01 5.257E+01 1.253E+07 19.9281 1.00000
  2.239E+08 2.239E+08 3.525E+00 9.541E-01 2.002E+01 3.472E+01 5.569E+01 5.922E+01 1.297E+07 20.1583 1.00000
  2.512E+08 2.512E+08 3.541E+00 1.080E+00 2.250E+01 3.965E+01 6.322E+01 6.676E+01 1.340E+07 20.3886 1.00000
  2.818E+08 2.818E+08 3.556E+00 1.222E+00 2.528E+01 4.528E+01 7.178E+01 7.533E+01 1.383E+07 20.6188 1.00000
  3.162E+08 3.162E+08 3.572E+00 1.382E+00 2.840E+01 5.171E+01 8.149E+01 8.506E+01 1.427E+07 20.8491 1.00000
  3.548E+08 3.548E+08 3.587E+00 1.562E+00 3.190E+01 5.906E+01 9.252E+01 9.611E+01 1.469E+07 21.0794 1.00000
  3.981E+08 3.981E+08 3.603E+00 1.766E+00 3.583E+01 6.746E+01 1.051E+02 1.087E+02 1.512E+07 21.3096 1.00000
  4.467E+08 4.467E+08 3.619E+00 1.996E+00 4.024E+01 7.706E+01 1.193E+02 1.229E+02 1.554E+07 21.5399 1.00000
  5.012E+08 5.012E+08 3.635E+00 2.255E+00 4.519E+01 8.803E+01 1.355E+02 1.391E+02 1.596E+07 21.7701 1.00000
  5.623E+08 5.623E+08 3.651E+00 2.547E+00 5.075E+01 1.006E+02 1.539E+02 1.575E+02 1.637E+07 22.0004 1.00000
  6.310E+08 6.310E+08 3.667E+00 2.876E+00 5.698E+01 1.149E+02 1.748E+02 1.784E+02 1.678E+07 22.2306 1.00000
  7.079E+08 7.079E+08 3.683E+00 3.247E+00 6.398E+01 1.313E+02 1.985E+02 2.022E+02 1.719E+07 22.4609 1.00000
  7.943E+08 7.943E+08 3.699E+00 3.665E+00 7.183E+01 1.500E+02 2.255E+02 2.292E+02 1.759E+07 22.6912 1.00000
  8.913E+08 8.913E+08 3.715E+00 4.136E+00 8.064E+01 1.714E+02 2.562E+02 2.599E+02 1.799E+07 22.9214 1.00000
  1.000E+09 1.000E+09 3.732E+00 4.666E+00 9.053E+01 1.959E+02 2.911E+02 2.948E+02 1.838E+07 23.1517 1.00000
  1.122E+09 1.122E+09 3.748E+00 5.263E+00 1.016E+02 2.239E+02 3.308E+02 3.345E+02 1.877E+07 23.3819 1.00000
  1.259E+09 1.259E+09 3.765E+00 5.934E+00 1.141E+02 2.559E+02 3.759E+02 3.796E+02 1.915E+07 23.6122 1.00000
  1.413E+09 1.413E+09 3.781E+00 6.690E+00 1.280E+02 2.924E+02 4.272E+02 4.309E+02 1.953E+07 23.8424 1.00000
  1.585E+09 1.585E+09 3.798E+00 7.541E+00 1.437E+02 3.343E+02 4.855E+02 4.893E+02 1.991E+07 24.0727 1.00000
  1.778E+09 1.778E+09 3.815E+00 8.498E+00 1.613E+02 3.821E+02 5.519E+02 5.557E+02 2.028E+07 24.3030 1.00000
  1.995E+09 1.995E+09 3.832E+00 9.574E+00 1.810E+02 4.368E+02 6.274E+02 6.312E+02 2.065E+07 24.5332 1.00000
  2.239E+09 2.239E+09 3.849E+00 1.078E+01 2.032E+02 4.993E+02 7.133E+02 7.171E+02 2.101E+07 24.7635 1.00000
  2.512E+09 2.512E+09 3.866E+00 1.215E+01 2.280E+02 5.708E+02 8.110E+02 8.149E+02 2.137E+07 24.9937 1.00000
  2.818E+09 2.818E+09 3.883E+00 1.368E+01 2.559E+02 6.527E+02 9.223E+02 9.261E+02 2.172E+07 25.2240 1.00000
  3.162E+09 3.162E+09 3.900E+00 1.540E+01 2.872E+02 7.462E+02 1.049E+03 1.053E+03 2.207E+07 25.4543 1.00000
  3.548E+09 3.548E+09 3.917E+00 1.733E+01 3.223E+02 8.533E+02 1.193E+03 1.197E+03 2.242E+07 25.6845 1.00000
  3.981E+09 3.981E+09 3.935E+00 1.950E+01 3.617E+02 9.757E+02 1.357E+03 1.361E+03 2.276E+07 25.9148 1.00000
  4.467E+09 4.467E+09 3.952E+00 2.195E+01 4.059E+02 1.116E+03 1.544E+03 1.548E+03 2.309E+07 26.1450 1.00000
  5.012E+09 5.012E+09 3.970E+00 2.469E+01 4.555E+02 1.276E+03 1.756E+03 1.760E+03 2.342E+07 26.3753 1.00000
  5.623E+09 5.623E+09 3.988E+00 2.778E+01 5.111E+02 1.459E+03 1.998E+03 2.002E+03 2.375E+07 26.6055 1.00000
  6.310E+09 6.310E+09 4.006E+00 3.124E+01 5.735E+02 1.669E+03 2.274E+03 2.278E+03 2.407E+07 26.8358 1.00000
  7.079E+09 7.079E+09 4.024E+00 3.513E+01 6.436E+02 1.909E+03 2.588E+03 2.592E+03 2.439E+07 27.0661 1.00000
  7.943E+09 7.943E+09 4.042E+00 3.950E+01 7.222E+02 2.184E+03 2.946E+03 2.950E+03 2.470E+07 27.2963 1.00000
  8.913E+09 8.913E+09 4.060E+00 4.441E+01 8.104E+02 2.498E+03 3.353E+03 3.357E+03 2.501E+07 27.5266 1.00000
  1.000E+10 1.000E+10 4.078E+00 4.993E+01 9.093E+02 2.858E+03 3.817E+03 3.821E+03 2.531E+07 27.7568 1.00000
  1.122E+10 1.122E+10 4.097E+00 5.612E+01 1.020E+03 3.270E+03 4.346E+03 4.350E+03 2.561E+07 27.9871 1.00000
  1.259E+10 1.259E+10 4.115E+00 6.307E+01 1.145E+03 3.741E+03 4.949E+03 4.953E+03 2.591E+07 28.2174 1.00000
  1.413E+10 1.413E+10 4.134E+00 7.088E+01 1.285E+03 4.280E+03 5.636E+03 5.640E+03 2.620E+07 28.4476 1.00000
  1.585E+10 1.585E+10 4.152E+00 7.964E+01 1.441E+03 4.898E+03 6.419E+03 6.423E+03 2.649E+07 28.6779 1.00000
  1.778E+10 1.778E+10 4.171E+00 8.948E+01 1.617E+03 5.604E+03 7.311E+03 7.315E+03 2.677E+07 28.9081 1.00000
  1.995E+10 1.995E+10 4.190E+00 1.005E+02 1.815E+03 6.413E+03 8.328E+03 8.333E+03 2.705E+07 29.1384 1.00000
  2.239E+10 2.239E+10 4.209E+00 1.129E+02 2.036E+03 7.339E+03 9.488E+03 9.493E+03 2.732E+07 29.3687 1.00000
  2.512E+10 2.512E+10 4.228E+00 1.269E+02 2.285E+03 8.400E+03 1.081E+04 1.082E+04 2.759E+07 29.5989 1.00000
  2.818E+10 2.818E+10 4.247E+00 1.425E+02 2.563E+03 9.614E+03 1.232E+04 1.232E+04 2.786E+07 29.8292 1.00000
  3.162E+10 3.162E+10 4.266E+00 1.600E+02 2.876E+03 1.100E+04 1.404E+04 1.404E+04 2.812E+07 30.0594 1.00000
  3.548E+10 3.548E+10 4.286E+00 1.797E+02 3.227E+03 1.260E+04 1.600E+04 1.601E+04 2.838E+07 30.2897 1.00000
  3.981E+10 3.981E+10 4.305E+00 2.018E+02 3.621E+03 1.442E+04 1.824E+04 1.825E+04 2.863E+07 30.5199 1.00000
  4.467E+10 4.467E+10 4.325E+00 2.266E+02 4.063E+03 1.651E+04 2.079E+04 2.080E+04 2.888E+07 30.7502 1.00000
  5.012E+10 5.012E+10 4.345E+00 2.544E+02 4.559E+03 1.890E+04 2.371E+04 2.371E+04 2.913E+07 30.9805 1.00000
  5.623E+10 5.623E+10 4.365E+00 2.857E+02 5.115E+03 2.163E+04 2.703E+04 2.704E+04 2.937E+07 31.2107 1.00000
  6.310E+10 6.310E+10 4.385E+00 3.207E+02 5.739E+03 2.477E+04 3.083E+04 3.083E+04 2.961E+07 31.4410 1.00000
  7.079E+10 7.079E+10 4.405E+00 3.601E+02 6.439E+03 2.836E+04 3.516E+04 3.516E+04 2.984E+07 31.6712 1.00000
  7.943E+10 7.943E+10 4.425E+00 4.042E+02 7.225E+03 3.247E+04 4.010E+04 4.011E+04 3.007E+07 31.9015 1.00000
  8.913E+10 8.913E+10 4.445E+00 4.538E+02 8.106E+03 3.719E+04 4.575E+04 4.575E+04 3.030E+07 32.1318 1.00000
  1.000E+11 1.000E+11 4.466E+00 5.094E+02 9.095E+03 4.259E+04 5.219E+04 5.220E+04 3.052E+07 32.3620 1.00000
  1.122E+11 1.122E+11 4.486E+00 5.718E+02 1.020E+04 4.877E+04 5.955E+04 5.955E+04 3.074E+07 32.5923 1.00000
  1.259E+11 1.259E+11 4.507E+00 6.418E+02 1.145E+04 5.586E+04 6.795E+04 6.795E+04 3.096E+07 32.8225 1.00000
  1.413E+11 1.413E+11 4.528E+00 7.204E+02 1.285E+04 6.398E+04 7.755E+04 7.755E+04 3.117E+07 33.0528 1.00000
  1.585E+11 1.585E+11 4.549E+00 8.085E+02 1.441E+04 7.328E+04 8.850E+04 8.851E+04 3.138E+07 33.2830 1.00000
  1.778E+11 1.778E+11 4.570E+00 9.074E+02 1.617E+04 8.394E+04 1.010E+05 1.010E+05 3.159E+07 33.5133 1.00000
  1.995E+11 1.995E+11 4.591E+00 1.018E+03 1.814E+04 9.616E+04 1.153E+05 1.153E+05 3.179E+07 33.7436 1.00000
  2.239E+11 2.239E+11 4.612E+00 1.143E+03 2.036E+04 1.102E+05 1.317E+05 1.317E+05 3.198E+07 33.9738 1.00000
  2.512E+11 2.512E+11 4.633E+00 1.283E+03 2.284E+04 1.262E+05 1.503E+05 1.503E+05 3.218E+07 34.2041 1.00000
  2.818E+11 2.818E+11 4.655E+00 1.440E+03 2.563E+04 1.446E+05 1.717E+05 1.717E+05 3.237E+07 34.4343 1.00000
  3.162E+11 3.162E+11 4.677E+00 1.616E+03 2.875E+04 1.657E+05 1.960E+05 1.961E+05 3.256E+07 34.6646 1.00000
  3.548E+11 3.548E+11 4.698E+00 1.813E+03 3.226E+04 1.898E+05 2.239E+05 2.239E+05 3.274E+07 34.8949 1.00000
  3.981E+11 3.981E+11 4.720E+00 2.035E+03 3.620E+04 2.175E+05 2.558E+05 2.558E+05 3.292E+07 35.1251 1.00000
  4.467E+11 4.467E+11 4.742E+00 2.283E+03 4.061E+04 2.493E+05 2.922E+05 2.922E+05 3.310E+07 35.3554 1.00000
  5.012E+11 5.012E+11 4.764E+00 2.562E+03 4.557E+04 2.857E+05 3.338E+05 3.338E+05 3.328E+07 35.5856 1.00000
  5.623E+11 5.623E+11 4.786E+00 2.875E+03 5.113E+04 3.274E+05 3.814E+05 3.814E+05 3.345E+07 35.8159 1.00000
  6.310E+11 6.310E+11 4.809E+00 3.226E+03 5.736E+04 3.753E+05 4.359E+05 4.359E+05 3.362E+07 36.0461 1.00000
  7.079E+11 7.079E+11 4.831E+00 3.620E+03 6.436E+04 4.301E+05 4.981E+05 4.981E+05 3.378E+07 36.2764 1.00000
  7.943E+11 7.943E+11 4.854E+00 4.062E+03 7.221E+04 4.930E+05 5.693E+05 5.693E+05 3.395E+07 36.5067 1.00000
  8.913E+11 8.913E+11 4.877E+00 4.558E+03 8.102E+04 5.652E+05 6.508E+05 6.508E+05 3.411E+07 36.7369 1.00000
  1.000E+12 1.000E+12 4.899E+00 5.115E+03 9.090E+04 6.479E+05 7.439E+05 7.439E+05 3.426E+07 36.9672 1.00000
  1.122E+12 1.122E+12 4.922E+00 5.740E+03 1.020E+05 7.428E+05 8.505E+05 8.505E+05 3.442E+07 37.1974 1.00000
  1.259E+12 1.259E+12 4.946E+00 6.440E+03 1.144E+05 8.516E+05 9.725E+05 9.725E+05 3.457E+07 37.4277 1.00000
  1.413E+12 1.413E+12 4.969E+00 7.227E+03 1.284E+05 9.764E+05 1.112E+06 1.112E+06 3.471E+07 37.6580 1.00000
  1.585E+12 1.585E+12 4.992E+00 8.109E+03 1.440E+05 1.120E+06 1.272E+06 1.272E+06 3.486E+07 37.8882 1.00000
  1.778E+12 1.778E+12 5.016E+00 9.099E+03 1.616E+05 1.284E+06 1.454E+06 1.454E+06 3.500E+07 38.1185 1.00000
  1.995E+12 1.995E+12 5.039E+00 1.021E+04 1.813E+05 1.472E+06 1.664E+06 1.664E+06 3.514E+07 38.3487 1.00000
  2.239E+12 2.239E+12 5.063E+00 1.146E+04 2.034E+05 1.688E+06 1.903E+06 1.903E+06 3.528E+07 38.5790 1.00000
  2.512E+12 2.512E+12 5.087E+00 1.285E+04 2.283E+05 1.936E+06 2.177E+06 2.177E+06 3.541E+07 38.8092 1.00000
  2.818E+12 2.818E+12 5.111E+00 1.442E+04 2.561E+05 2.220E+06 2.491E+06 2.491E+06 3.555E+07 39.0395 1.00000
  3.162E+12 3.162E+12 5.135E+00 1.618E+04 2.873E+05 2.547E+06 2.850E+06 2.850E+06 3.568E+07 39.2698 1.00000
  3.548E+12 3.548E+12 5.159E+00 1.816E+04 3.224E+05 2.921E+06 3.262E+06 3.262E+06 3.580E+07 39.5000 1.00000
  3.981E+12 3.981E+12 5.184E+00 2.037E+04 3.617E+05 3.351E+06 3.733E+06 3.733E+06 3.593E+07 39.7303 1.00000
  4.467E+12 4.467E+12 5.208E+00 2.286E+04 4.058E+05 3.844E+06 4.272E+06 4.272E+06 3.605E+07 39.9605 1.00000
  5.012E+12 5.012E+12 5.233E+00 2.565E+04 4.553E+05 4.409E+06 4.890E+06 4.890E+06 3.617E+07 40.1908 1.00000
  5.623E+12 5.623E+12 5.258E+00 2.878E+04 5.108E+05 5.058E+06 5.598E+06 5.598E+06 3.629E+07 40.4211 1.00000
  6.310E+12 6.310E+12 5.283E+00 3.229E+04 5.732E+05 5.804E+06 6.409E+06 6.409E+06 3.640E+07 40.6513 1.00000
  7.079E+12 7.079E+12 5.308E+00 3.623E+04 6.431E+05 6.659E+06 7.338E+06 7.338E+06 3.651E+07 40.8816 1.00000
  7.943E+12 7.943E+12 5.333E+00 4.065E+04 7.215E+05 7.640E+06 8.402E+06 8.402E+06 3.662E+07 41.1118 1.00000
  8.913E+12 8.913E+12 5.358E+00 4.562E+04 8.095E+05 8.767E+06 9.622E+06 9.622E+06 3.673E+07 41.3421 1.00000
  1.000E+13 1.000E+13 5.384E+00 5.118E+04 9.082E+05 1.006E+07 1.102E+07 1.102E+07 3.684E+07 41.5724 1.00000
  1.122E+13 1.122E+13 5.410E+00 5.743E+04 1.019E+06 1.154E+07 1.262E+07 1.262E+07 3.694E+07 41.8026 1.00000
  1.259E+13 1.259E+13 5.435E+00 6.444E+04 1.143E+06 1.325E+07 1.446E+07 1.446E+07 3.704E+07 42.0329 1.00000
  1.413E+13 1.413E+13 5.461E+00 7.230E+04 1.283E+06 1.521E+07 1.656E+07 1.656E+07 3.714E+07 42.2631 1.00000
  1.585E+13 1.585E+13 5.487E+00 8.112E+04 1.439E+06 1.745E+07 1.897E+07 1.897E+07 3.724E+07 42.4934 1.00000
  1.778E+13 1.778E+13 5.514E+00 9.102E+04 1.615E+06 2.003E+07 2.174E+07 2.174E+07 3.733E+07 42.7236 1.00000
  1.995E+13 1.995E+13 5.540E+00 1.021E+05 1.812E+06 2.299E+07 2.491E+07 2.491E+07 3.743E+07 42.9539 1.00000
  2.239E+13 2.239E+13 5.566E+00 1.146E+05 2.033E+06 2.639E+07 2.854E+07 2.854E+07 3.752E+07 43.1842 1.00000
  2.512E+13 2.512E+13 5.593E+00 1.286E+05 2.280E+06 3.030E+07 3.271E+07 3.271E+07 3.761E+07 43.4144 1.00000
  2.818E+13 2.818E+13 5.620E+00 1.443E+05 2.558E+06 3.478E+07 3.749E+07 3.749E+07 3.770E+07 43.6447 1.00000
  3.162E+13 3.162E+13 5.647E+00 1.619E+05 2.871E+06 3.994E+07 4.297E+07 4.297E+07 3.778E+07 43.8749 1.00000
  3.548E+13 3.548E+13 5.674E+00 1.816E+05 3.221E+06 4.585E+07 4.925E+07 4.925E+07 3.787E+07 44.1052 1.00000
  3.981E+13 3.981E+13 5.701E+00 2.038E+05 3.613E+06 5.264E+07 5.646E+07 5.646E+07 3.795E+07 44.3355 1.00000
  4.467E+13 4.467E+13 5.728E+00 2.286E+05 4.054E+06 6.045E+07 6.473E+07 6.473E+07 3.803E+07 44.5657 1.00000
  5.012E+13 5.012E+13 5.756E+00 2.565E+05 4.548E+06 6.941E+07 7.422E+07 7.422E+07 3.811E+07 44.7960 1.00000
  5.623E+13 5.623E+13 5.783E+00 2.878E+05 5.103E+06 7.971E+07 8.510E+07 8.510E+07 3.819E+07 45.0262 1.00000
  6.310E+13 6.310E+13 5.811E+00 3.230E+05 5.726E+06 9.154E+07 9.759E+07 9.759E+07 3.826E+07 45.2565 1.00000
  7.079E+13 7.079E+13 5.839E+00 3.624E+05 6.424E+06 1.051E+08 1.119E+08 1.119E+08 3.833E+07 45.4867 1.00000
  7.943E+13 7.943E+13 5.867E+00 4.066E+05 7.207E+06 1.207E+08 1.284E+08 1.284E+08 3.841E+07 45.7170 1.00000
  8.913E+13 8.913E+13 5.896E+00 4.562E+05 8.086E+06 1.387E+08 1.472E+08 1.472E+08 3.848E+07 45.9473 1.00000
