 Incident particle is a Tau with M = 1776.82000 MeV
 Index = 0: Actinium
      Absorber with <Z/A> = 0.39202
 Sternheimer coef:  a     k=m_s   x_0    x_1    I[eV]   Cbar  delta0
                 0.0857  3.2683  0.4559  3.7966  841.0  6.3742 0.14

 *** Table generated with PUMAS v1.00 ***

      T         p     Ionization  brems     pair     photonuc  Radloss    dE/dx   CSDA Range  delta   beta
    [MeV]    [MeV/c]  -----------------------[MeV cm^2/g]------------------------  [g/cm^2]
  1.000E+05 1.018E+05 1.561E+00 1.113E-03 1.996E-02 7.523E-03 2.860E-02 1.590E+00 3.145E+04  2.6005 0.99985
  1.122E+05 1.140E+05 1.579E+00 1.291E-03 2.390E-02 8.441E-03 3.363E-02 1.613E+00 3.907E+04  2.7595 0.99988
  1.259E+05 1.277E+05 1.597E+00 1.497E-03 2.852E-02 9.422E-03 3.944E-02 1.637E+00 4.750E+04  2.9226 0.99990
  1.413E+05 1.430E+05 1.615E+00 1.734E-03 3.394E-02 1.052E-02 4.620E-02 1.661E+00 5.681E+04  3.0895 0.99992
  1.585E+05 1.603E+05 1.633E+00 2.008E-03 4.030E-02 1.174E-02 5.404E-02 1.687E+00 6.711E+04  3.2601 0.99994
  1.778E+05 1.796E+05 1.650E+00 2.324E-03 4.772E-02 1.309E-02 6.314E-02 1.713E+00 7.849E+04  3.4342 0.99995
  1.995E+05 2.013E+05 1.667E+00 2.688E-03 5.638E-02 1.463E-02 7.369E-02 1.741E+00 9.105E+04  3.6119 0.99996
  2.239E+05 2.256E+05 1.684E+00 3.107E-03 6.646E-02 1.629E-02 8.586E-02 1.770E+00 1.049E+05  3.7928 0.99997
  2.512E+05 2.530E+05 1.701E+00 3.589E-03 7.817E-02 1.815E-02 9.990E-02 1.801E+00 1.202E+05  3.9770 0.99998
  2.818E+05 2.836E+05 1.718E+00 4.143E-03 9.174E-02 2.023E-02 1.161E-01 1.834E+00 1.371E+05  4.1643 0.99998
  3.162E+05 3.180E+05 1.735E+00 4.781E-03 1.075E-01 2.256E-02 1.348E-01 1.869E+00 1.557E+05  4.3545 0.99998
  3.548E+05 3.566E+05 1.751E+00 5.513E-03 1.256E-01 2.517E-02 1.563E-01 1.907E+00 1.761E+05  4.5476 0.99999
  3.981E+05 3.999E+05 1.767E+00 6.354E-03 1.466E-01 2.807E-02 1.810E-01 1.948E+00 1.985E+05  4.7435 0.99999
  4.467E+05 4.485E+05 1.783E+00 7.320E-03 1.707E-01 3.131E-02 2.093E-01 1.993E+00 2.232E+05  4.9419 0.99999
  5.012E+05 5.030E+05 1.799E+00 8.427E-03 1.984E-01 3.493E-02 2.418E-01 2.041E+00 2.502E+05  5.1428 0.99999
  5.623E+05 5.641E+05 1.815E+00 9.697E-03 2.303E-01 3.884E-02 2.788E-01 2.094E+00 2.798E+05  5.3461 1.00000
  6.310E+05 6.327E+05 1.831E+00 1.115E-02 2.669E-01 4.322E-02 3.213E-01 2.152E+00 3.121E+05  5.5517 1.00000
  7.079E+05 7.097E+05 1.846E+00 1.282E-02 3.088E-01 4.814E-02 3.697E-01 2.216E+00 3.474E+05  5.7594 1.00000
  7.943E+05 7.961E+05 1.861E+00 1.473E-02 3.567E-01 5.369E-02 4.251E-01 2.286E+00 3.858E+05  5.9691 1.00000
  8.913E+05 8.930E+05 1.876E+00 1.691E-02 4.115E-01 5.994E-02 4.884E-01 2.365E+00 4.275E+05  6.1808 1.00000
  1.000E+06 1.002E+06 1.891E+00 1.941E-02 4.740E-01 6.699E-02 5.605E-01 2.452E+00 4.726E+05  6.3943 1.00000
  1.122E+06 1.124E+06 1.906E+00 2.227E-02 5.454E-01 7.495E-02 6.426E-01 2.549E+00 5.215E+05  6.6095 1.00000
  1.259E+06 1.261E+06 1.920E+00 2.554E-02 6.266E-01 8.394E-02 7.361E-01 2.657E+00 5.741E+05  6.8264 1.00000
  1.413E+06 1.414E+06 1.935E+00 2.928E-02 7.191E-01 9.412E-02 8.425E-01 2.777E+00 6.307E+05  7.0447 1.00000
  1.585E+06 1.587E+06 1.949E+00 3.354E-02 8.242E-01 1.056E-01 9.633E-01 2.912E+00 6.913E+05  7.2645 1.00000
  1.778E+06 1.780E+06 1.963E+00 3.842E-02 9.436E-01 1.187E-01 1.101E+00 3.064E+00 7.560E+05  7.4856 1.00000
  1.995E+06 1.997E+06 1.977E+00 4.398E-02 1.079E+00 1.334E-01 1.256E+00 3.233E+00 8.250E+05  7.7079 1.00000
  2.239E+06 2.240E+06 1.991E+00 5.032E-02 1.233E+00 1.502E-01 1.433E+00 3.424E+00 8.982E+05  7.9313 1.00000
  2.512E+06 2.514E+06 2.004E+00 5.756E-02 1.407E+00 1.692E-01 1.634E+00 3.638E+00 9.756E+05  8.1557 1.00000
  2.818E+06 2.820E+06 2.018E+00 6.581E-02 1.604E+00 1.908E-01 1.861E+00 3.878E+00 1.057E+06  8.3810 1.00000
  3.162E+06 3.164E+06 2.031E+00 7.522E-02 1.827E+00 2.154E-01 2.118E+00 4.148E+00 1.143E+06  8.6072 1.00000
  3.548E+06 3.550E+06 2.044E+00 8.594E-02 2.079E+00 2.432E-01 2.408E+00 4.452E+00 1.233E+06  8.8342 1.00000
  3.981E+06 3.983E+06 2.057E+00 9.814E-02 2.364E+00 2.749E-01 2.737E+00 4.794E+00 1.327E+06  9.0618 1.00000
  4.467E+06 4.469E+06 2.069E+00 1.120E-01 2.686E+00 3.110E-01 3.109E+00 5.178E+00 1.424E+06  9.2900 1.00000
  5.012E+06 5.014E+06 2.082E+00 1.279E-01 3.050E+00 3.520E-01 3.529E+00 5.611E+00 1.525E+06  9.5187 1.00000
  5.623E+06 5.625E+06 2.094E+00 1.459E-01 3.460E+00 3.986E-01 4.004E+00 6.098E+00 1.630E+06  9.7478 1.00000
  6.310E+06 6.311E+06 2.106E+00 1.663E-01 3.922E+00 4.517E-01 4.540E+00 6.647E+00 1.738E+06  9.9772 1.00000
  7.079E+06 7.081E+06 2.119E+00 1.896E-01 4.443E+00 5.122E-01 5.145E+00 7.264E+00 1.849E+06 10.2070 1.00000
  7.943E+06 7.945E+06 2.131E+00 2.160E-01 5.031E+00 5.811E-01 5.828E+00 7.959E+00 1.963E+06 10.4369 1.00000
  8.913E+06 8.914E+06 2.142E+00 2.461E-01 5.693E+00 6.596E-01 6.598E+00 8.741E+00 2.079E+06 10.6670 1.00000
  1.000E+07 1.000E+07 2.154E+00 2.802E-01 6.438E+00 7.490E-01 7.467E+00 9.621E+00 2.198E+06 10.8972 1.00000
  1.122E+07 1.122E+07 2.166E+00 3.190E-01 7.277E+00 8.509E-01 8.447E+00 1.061E+01 2.319E+06 11.1274 1.00000
  1.259E+07 1.259E+07 2.177E+00 3.630E-01 8.221E+00 9.671E-01 9.551E+00 1.173E+01 2.441E+06 11.3576 1.00000
  1.413E+07 1.413E+07 2.189E+00 4.129E-01 9.283E+00 1.100E+00 1.080E+01 1.298E+01 2.566E+06 11.5879 1.00000
  1.585E+07 1.585E+07 2.200E+00 4.696E-01 1.048E+01 1.251E+00 1.220E+01 1.440E+01 2.692E+06 11.8181 1.00000
  1.778E+07 1.778E+07 2.211E+00 5.338E-01 1.182E+01 1.423E+00 1.378E+01 1.599E+01 2.820E+06 12.0483 1.00000
  1.995E+07 1.995E+07 2.222E+00 6.066E-01 1.333E+01 1.619E+00 1.556E+01 1.778E+01 2.949E+06 12.2786 1.00000
  2.239E+07 2.239E+07 2.234E+00 6.891E-01 1.503E+01 1.843E+00 1.756E+01 1.980E+01 3.079E+06 12.5088 1.00000
  2.512E+07 2.512E+07 2.245E+00 7.825E-01 1.694E+01 2.099E+00 1.982E+01 2.207E+01 3.210E+06 12.7390 1.00000
  2.818E+07 2.819E+07 2.256E+00 8.884E-01 1.908E+01 2.390E+00 2.236E+01 2.462E+01 3.341E+06 12.9693 1.00000
  3.162E+07 3.162E+07 2.267E+00 1.008E+00 2.149E+01 2.723E+00 2.523E+01 2.749E+01 3.474E+06 13.1995 1.00000
  3.548E+07 3.548E+07 2.278E+00 1.144E+00 2.420E+01 3.103E+00 2.845E+01 3.073E+01 3.607E+06 13.4298 1.00000
  3.981E+07 3.981E+07 2.289E+00 1.297E+00 2.724E+01 3.536E+00 3.208E+01 3.437E+01 3.740E+06 13.6600 1.00000
  4.467E+07 4.467E+07 2.299E+00 1.471E+00 3.066E+01 4.031E+00 3.616E+01 3.846E+01 3.874E+06 13.8903 1.00000
  5.012E+07 5.012E+07 2.310E+00 1.667E+00 3.450E+01 4.595E+00 4.076E+01 4.307E+01 4.008E+06 14.1205 1.00000
  5.623E+07 5.624E+07 2.321E+00 1.888E+00 3.881E+01 5.239E+00 4.594E+01 4.826E+01 4.142E+06 14.3508 1.00000
  6.310E+07 6.310E+07 2.332E+00 2.139E+00 4.365E+01 5.975E+00 5.176E+01 5.409E+01 4.277E+06 14.5810 1.00000
  7.079E+07 7.080E+07 2.343E+00 2.422E+00 4.908E+01 6.815E+00 5.832E+01 6.066E+01 4.412E+06 14.8113 1.00000
  7.943E+07 7.943E+07 2.354E+00 2.741E+00 5.518E+01 7.774E+00 6.569E+01 6.805E+01 4.546E+06 15.0415 1.00000
  8.913E+07 8.913E+07 2.365E+00 3.102E+00 6.203E+01 8.869E+00 7.400E+01 7.636E+01 4.681E+06 15.2718 1.00000
  1.000E+08 1.000E+08 2.376E+00 3.509E+00 6.971E+01 1.012E+01 8.334E+01 8.572E+01 4.816E+06 15.5020 1.00000
  1.122E+08 1.122E+08 2.387E+00 3.969E+00 7.834E+01 1.155E+01 9.386E+01 9.625E+01 4.950E+06 15.7323 1.00000
  1.259E+08 1.259E+08 2.398E+00 4.487E+00 8.803E+01 1.318E+01 1.057E+02 1.081E+02 5.085E+06 15.9625 1.00000
  1.413E+08 1.413E+08 2.409E+00 5.071E+00 9.890E+01 1.504E+01 1.190E+02 1.214E+02 5.219E+06 16.1928 1.00000
  1.585E+08 1.585E+08 2.420E+00 5.729E+00 1.111E+02 1.717E+01 1.340E+02 1.364E+02 5.353E+06 16.4231 1.00000
  1.778E+08 1.778E+08 2.431E+00 6.472E+00 1.248E+02 1.960E+01 1.509E+02 1.533E+02 5.487E+06 16.6533 1.00000
  1.995E+08 1.995E+08 2.442E+00 7.308E+00 1.402E+02 2.238E+01 1.699E+02 1.723E+02 5.621E+06 16.8836 1.00000
  2.239E+08 2.239E+08 2.453E+00 8.250E+00 1.574E+02 2.555E+01 1.912E+02 1.937E+02 5.754E+06 17.1138 1.00000
  2.512E+08 2.512E+08 2.464E+00 9.311E+00 1.768E+02 2.917E+01 2.153E+02 2.177E+02 5.887E+06 17.3441 1.00000
  2.818E+08 2.818E+08 2.476E+00 1.051E+01 1.985E+02 3.331E+01 2.423E+02 2.448E+02 6.020E+06 17.5743 1.00000
  3.162E+08 3.162E+08 2.487E+00 1.185E+01 2.229E+02 3.804E+01 2.728E+02 2.753E+02 6.153E+06 17.8046 1.00000
  3.548E+08 3.548E+08 2.498E+00 1.336E+01 2.503E+02 4.345E+01 3.071E+02 3.096E+02 6.286E+06 18.0349 1.00000
  3.981E+08 3.981E+08 2.510E+00 1.507E+01 2.810E+02 4.962E+01 3.457E+02 3.482E+02 6.418E+06 18.2651 1.00000
  4.467E+08 4.467E+08 2.521E+00 1.698E+01 3.154E+02 5.668E+01 3.891E+02 3.916E+02 6.549E+06 18.4954 1.00000
  5.012E+08 5.012E+08 2.533E+00 1.914E+01 3.541E+02 6.475E+01 4.380E+02 4.405E+02 6.681E+06 18.7256 1.00000
  5.623E+08 5.623E+08 2.544E+00 2.156E+01 3.975E+02 7.397E+01 4.930E+02 4.956E+02 6.812E+06 18.9559 1.00000
  6.310E+08 6.310E+08 2.556E+00 2.429E+01 4.462E+02 8.451E+01 5.550E+02 5.576E+02 6.943E+06 19.1861 1.00000
  7.079E+08 7.079E+08 2.568E+00 2.736E+01 5.008E+02 9.656E+01 6.247E+02 6.273E+02 7.073E+06 19.4164 1.00000
  7.943E+08 7.943E+08 2.579E+00 3.080E+01 5.621E+02 1.103E+02 7.033E+02 7.058E+02 7.203E+06 19.6467 1.00000
  8.913E+08 8.913E+08 2.591E+00 3.467E+01 6.309E+02 1.261E+02 7.917E+02 7.943E+02 7.333E+06 19.8769 1.00000
  1.000E+09 1.000E+09 2.603E+00 3.903E+01 7.081E+02 1.441E+02 8.912E+02 8.938E+02 7.462E+06 20.1072 1.00000
  1.122E+09 1.122E+09 2.615E+00 4.392E+01 7.947E+02 1.646E+02 1.003E+03 1.006E+03 7.591E+06 20.3374 1.00000
  1.259E+09 1.259E+09 2.627E+00 4.941E+01 8.919E+02 1.882E+02 1.129E+03 1.132E+03 7.720E+06 20.5677 1.00000
  1.413E+09 1.413E+09 2.639E+00 5.559E+01 1.001E+03 2.151E+02 1.272E+03 1.274E+03 7.848E+06 20.7979 1.00000
  1.585E+09 1.585E+09 2.651E+00 6.252E+01 1.123E+03 2.458E+02 1.432E+03 1.434E+03 7.975E+06 21.0282 1.00000
  1.778E+09 1.778E+09 2.664E+00 7.031E+01 1.261E+03 2.810E+02 1.612E+03 1.615E+03 8.103E+06 21.2585 1.00000
  1.995E+09 1.995E+09 2.676E+00 7.906E+01 1.415E+03 3.212E+02 1.815E+03 1.818E+03 8.230E+06 21.4887 1.00000
  2.239E+09 2.239E+09 2.688E+00 8.889E+01 1.587E+03 3.672E+02 2.044E+03 2.046E+03 8.356E+06 21.7190 1.00000
  2.512E+09 2.512E+09 2.701E+00 9.992E+01 1.781E+03 4.198E+02 2.301E+03 2.304E+03 8.482E+06 21.9492 1.00000
  2.818E+09 2.818E+09 2.713E+00 1.123E+02 1.999E+03 4.799E+02 2.591E+03 2.594E+03 8.608E+06 22.1795 1.00000
  3.162E+09 3.162E+09 2.726E+00 1.262E+02 2.243E+03 5.488E+02 2.918E+03 2.921E+03 8.733E+06 22.4098 1.00000
  3.548E+09 3.548E+09 2.738E+00 1.418E+02 2.517E+03 6.275E+02 3.286E+03 3.289E+03 8.858E+06 22.6400 1.00000
  3.981E+09 3.981E+09 2.751E+00 1.594E+02 2.824E+03 7.175E+02 3.701E+03 3.704E+03 8.982E+06 22.8703 1.00000
  4.467E+09 4.467E+09 2.764E+00 1.791E+02 3.169E+03 8.205E+02 4.169E+03 4.172E+03 9.106E+06 23.1005 1.00000
  5.012E+09 5.012E+09 2.777E+00 2.012E+02 3.556E+03 9.384E+02 4.696E+03 4.699E+03 9.229E+06 23.3308 1.00000
  5.623E+09 5.623E+09 2.789E+00 2.260E+02 3.990E+03 1.073E+03 5.290E+03 5.292E+03 9.352E+06 23.5610 1.00000
  6.310E+09 6.310E+09 2.802E+00 2.538E+02 4.478E+03 1.227E+03 5.959E+03 5.962E+03 9.474E+06 23.7913 1.00000
  7.079E+09 7.079E+09 2.815E+00 2.850E+02 5.024E+03 1.404E+03 6.713E+03 6.716E+03 9.596E+06 24.0216 1.00000
  7.943E+09 7.943E+09 2.829E+00 3.201E+02 5.637E+03 1.606E+03 7.563E+03 7.566E+03 9.717E+06 24.2518 1.00000
  8.913E+09 8.913E+09 2.842E+00 3.595E+02 6.325E+03 1.837E+03 8.522E+03 8.525E+03 9.838E+06 24.4821 1.00000
  1.000E+10 1.000E+10 2.855E+00 4.037E+02 7.097E+03 2.102E+03 9.603E+03 9.606E+03 9.959E+06 24.7123 1.00000
  1.122E+10 1.122E+10 2.868E+00 4.532E+02 7.964E+03 2.404E+03 1.082E+04 1.082E+04 1.008E+07 24.9426 1.00000
  1.259E+10 1.259E+10 2.882E+00 5.089E+02 8.936E+03 2.751E+03 1.220E+04 1.220E+04 1.020E+07 25.1729 1.00000
  1.413E+10 1.413E+10 2.895E+00 5.713E+02 1.003E+04 3.147E+03 1.374E+04 1.375E+04 1.032E+07 25.4031 1.00000
  1.585E+10 1.585E+10 2.909E+00 6.414E+02 1.125E+04 3.601E+03 1.549E+04 1.550E+04 1.044E+07 25.6334 1.00000
  1.778E+10 1.778E+10 2.923E+00 7.201E+02 1.262E+04 4.121E+03 1.746E+04 1.747E+04 1.055E+07 25.8636 1.00000
  1.995E+10 1.995E+10 2.936E+00 8.083E+02 1.416E+04 4.716E+03 1.969E+04 1.969E+04 1.067E+07 26.0939 1.00000
  2.239E+10 2.239E+10 2.950E+00 9.073E+02 1.589E+04 5.397E+03 2.219E+04 2.220E+04 1.079E+07 26.3242 1.00000
  2.512E+10 2.512E+10 2.964E+00 1.018E+03 1.783E+04 6.176E+03 2.502E+04 2.503E+04 1.090E+07 26.5544 1.00000
  2.818E+10 2.818E+10 2.978E+00 1.143E+03 2.000E+04 7.069E+03 2.822E+04 2.822E+04 1.102E+07 26.7847 1.00000
  3.162E+10 3.162E+10 2.992E+00 1.283E+03 2.245E+04 8.091E+03 3.182E+04 3.182E+04 1.113E+07 27.0149 1.00000
  3.548E+10 3.548E+10 3.006E+00 1.440E+03 2.518E+04 9.262E+03 3.589E+04 3.589E+04 1.125E+07 27.2452 1.00000
  3.981E+10 3.981E+10 3.020E+00 1.616E+03 2.826E+04 1.060E+04 4.047E+04 4.048E+04 1.136E+07 27.4754 1.00000
  4.467E+10 4.467E+10 3.035E+00 1.814E+03 3.170E+04 1.214E+04 4.565E+04 4.566E+04 1.147E+07 27.7057 1.00000
  5.012E+10 5.012E+10 3.049E+00 2.036E+03 3.557E+04 1.389E+04 5.150E+04 5.151E+04 1.159E+07 27.9360 1.00000
  5.623E+10 5.623E+10 3.063E+00 2.285E+03 3.991E+04 1.591E+04 5.810E+04 5.811E+04 1.170E+07 28.1662 1.00000
  6.310E+10 6.310E+10 3.078E+00 2.564E+03 4.478E+04 1.821E+04 6.556E+04 6.556E+04 1.181E+07 28.3965 1.00000
  7.079E+10 7.079E+10 3.092E+00 2.877E+03 5.024E+04 2.085E+04 7.398E+04 7.398E+04 1.192E+07 28.6267 1.00000
  7.943E+10 7.943E+10 3.107E+00 3.229E+03 5.637E+04 2.388E+04 8.348E+04 8.349E+04 1.203E+07 28.8570 1.00000
  8.913E+10 8.913E+10 3.122E+00 3.624E+03 6.325E+04 2.734E+04 9.422E+04 9.422E+04 1.214E+07 29.0873 1.00000
  1.000E+11 1.000E+11 3.137E+00 4.066E+03 7.097E+04 3.131E+04 1.063E+05 1.064E+05 1.225E+07 29.3175 1.00000
  1.122E+11 1.122E+11 3.152E+00 4.563E+03 7.963E+04 3.586E+04 1.201E+05 1.201E+05 1.236E+07 29.5478 1.00000
  1.259E+11 1.259E+11 3.167E+00 5.121E+03 8.934E+04 4.107E+04 1.355E+05 1.355E+05 1.247E+07 29.7780 1.00000
  1.413E+11 1.413E+11 3.182E+00 5.746E+03 1.002E+05 4.704E+04 1.530E+05 1.530E+05 1.257E+07 30.0083 1.00000
  1.585E+11 1.585E+11 3.197E+00 6.448E+03 1.125E+05 5.389E+04 1.728E+05 1.728E+05 1.268E+07 30.2385 1.00000
  1.778E+11 1.778E+11 3.212E+00 7.235E+03 1.262E+05 6.173E+04 1.951E+05 1.951E+05 1.278E+07 30.4688 1.00000
  1.995E+11 1.995E+11 3.228E+00 8.118E+03 1.416E+05 7.071E+04 2.204E+05 2.204E+05 1.289E+07 30.6991 1.00000
  2.239E+11 2.239E+11 3.243E+00 9.110E+03 1.588E+05 8.101E+04 2.490E+05 2.490E+05 1.299E+07 30.9293 1.00000
  2.512E+11 2.512E+11 3.259E+00 1.022E+04 1.782E+05 9.280E+04 2.813E+05 2.813E+05 1.310E+07 31.1596 1.00000
  2.818E+11 2.818E+11 3.274E+00 1.147E+04 2.000E+05 1.063E+05 3.178E+05 3.178E+05 1.320E+07 31.3898 1.00000
  3.162E+11 3.162E+11 3.290E+00 1.287E+04 2.244E+05 1.218E+05 3.591E+05 3.591E+05 1.330E+07 31.6201 1.00000
  3.548E+11 3.548E+11 3.306E+00 1.444E+04 2.517E+05 1.396E+05 4.058E+05 4.058E+05 1.340E+07 31.8504 1.00000
  3.981E+11 3.981E+11 3.322E+00 1.620E+04 2.824E+05 1.600E+05 4.586E+05 4.586E+05 1.350E+07 32.0806 1.00000
  4.467E+11 4.467E+11 3.338E+00 1.818E+04 3.169E+05 1.833E+05 5.184E+05 5.184E+05 1.360E+07 32.3109 1.00000
  5.012E+11 5.012E+11 3.354E+00 2.040E+04 3.555E+05 2.101E+05 5.860E+05 5.860E+05 1.370E+07 32.5411 1.00000
  5.623E+11 5.623E+11 3.370E+00 2.289E+04 3.989E+05 2.408E+05 6.626E+05 6.626E+05 1.380E+07 32.7714 1.00000
  6.310E+11 6.310E+11 3.386E+00 2.568E+04 4.476E+05 2.759E+05 7.492E+05 7.492E+05 1.390E+07 33.0016 1.00000
  7.079E+11 7.079E+11 3.402E+00 2.882E+04 5.022E+05 3.163E+05 8.473E+05 8.473E+05 1.399E+07 33.2319 1.00000
  7.943E+11 7.943E+11 3.419E+00 3.234E+04 5.634E+05 3.625E+05 9.583E+05 9.583E+05 1.409E+07 33.4622 1.00000
  8.913E+11 8.913E+11 3.435E+00 3.628E+04 6.321E+05 4.156E+05 1.084E+06 1.084E+06 1.419E+07 33.6924 1.00000
  1.000E+12 1.000E+12 3.452E+00 4.071E+04 7.092E+05 4.764E+05 1.226E+06 1.226E+06 1.428E+07 33.9227 1.00000
  1.122E+12 1.122E+12 3.469E+00 4.568E+04 7.958E+05 5.462E+05 1.388E+06 1.388E+06 1.437E+07 34.1529 1.00000
  1.259E+12 1.259E+12 3.486E+00 5.125E+04 8.928E+05 6.262E+05 1.570E+06 1.570E+06 1.447E+07 34.3832 1.00000
  1.413E+12 1.413E+12 3.502E+00 5.751E+04 1.002E+06 7.180E+05 1.777E+06 1.777E+06 1.456E+07 34.6135 1.00000
  1.585E+12 1.585E+12 3.519E+00 6.453E+04 1.124E+06 8.232E+05 2.012E+06 2.012E+06 1.465E+07 34.8437 1.00000
  1.778E+12 1.778E+12 3.536E+00 7.240E+04 1.261E+06 9.439E+05 2.277E+06 2.277E+06 1.474E+07 35.0740 1.00000
  1.995E+12 1.995E+12 3.554E+00 8.123E+04 1.415E+06 1.082E+06 2.578E+06 2.578E+06 1.483E+07 35.3042 1.00000
  2.239E+12 2.239E+12 3.571E+00 9.115E+04 1.587E+06 1.241E+06 2.920E+06 2.920E+06 1.492E+07 35.5345 1.00000
  2.512E+12 2.512E+12 3.588E+00 1.023E+05 1.781E+06 1.424E+06 3.307E+06 3.307E+06 1.501E+07 35.7647 1.00000
  2.818E+12 2.818E+12 3.606E+00 1.147E+05 1.998E+06 1.633E+06 3.746E+06 3.746E+06 1.509E+07 35.9950 1.00000
  3.162E+12 3.162E+12 3.623E+00 1.288E+05 2.242E+06 1.873E+06 4.243E+06 4.243E+06 1.518E+07 36.2253 1.00000
  3.548E+12 3.548E+12 3.641E+00 1.445E+05 2.515E+06 2.148E+06 4.808E+06 4.808E+06 1.527E+07 36.4555 1.00000
  3.981E+12 3.981E+12 3.659E+00 1.621E+05 2.822E+06 2.464E+06 5.448E+06 5.448E+06 1.535E+07 36.6858 1.00000
  4.467E+12 4.467E+12 3.677E+00 1.819E+05 3.166E+06 2.826E+06 6.175E+06 6.175E+06 1.544E+07 36.9160 1.00000
  5.012E+12 5.012E+12 3.694E+00 2.041E+05 3.553E+06 3.242E+06 6.999E+06 6.999E+06 1.552E+07 37.1463 1.00000
  5.623E+12 5.623E+12 3.713E+00 2.290E+05 3.986E+06 3.720E+06 7.934E+06 7.934E+06 1.560E+07 37.3766 1.00000
  6.310E+12 6.310E+12 3.731E+00 2.569E+05 4.472E+06 4.267E+06 8.996E+06 8.996E+06 1.568E+07 37.6068 1.00000
  7.079E+12 7.079E+12 3.749E+00 2.882E+05 5.017E+06 4.896E+06 1.020E+07 1.020E+07 1.576E+07 37.8371 1.00000
  7.943E+12 7.943E+12 3.767E+00 3.234E+05 5.629E+06 5.618E+06 1.157E+07 1.157E+07 1.584E+07 38.0673 1.00000
  8.913E+12 8.913E+12 3.786E+00 3.629E+05 6.316E+06 6.447E+06 1.313E+07 1.313E+07 1.592E+07 38.2976 1.00000
  1.000E+13 1.000E+13 3.804E+00 4.072E+05 7.086E+06 7.397E+06 1.489E+07 1.489E+07 1.600E+07 38.5279 1.00000
  1.122E+13 1.122E+13 3.823E+00 4.568E+05 7.951E+06 8.489E+06 1.690E+07 1.690E+07 1.608E+07 38.7581 1.00000
  1.259E+13 1.259E+13 3.842E+00 5.126E+05 8.920E+06 9.742E+06 1.918E+07 1.918E+07 1.615E+07 38.9884 1.00000
  1.413E+13 1.413E+13 3.860E+00 5.751E+05 1.001E+07 1.118E+07 2.176E+07 2.176E+07 1.623E+07 39.2186 1.00000
  1.585E+13 1.585E+13 3.879E+00 6.453E+05 1.123E+07 1.283E+07 2.471E+07 2.471E+07 1.630E+07 39.4489 1.00000
  1.778E+13 1.778E+13 3.898E+00 7.240E+05 1.260E+07 1.473E+07 2.805E+07 2.805E+07 1.638E+07 39.6791 1.00000
  1.995E+13 1.995E+13 3.918E+00 8.124E+05 1.413E+07 1.691E+07 3.186E+07 3.186E+07 1.645E+07 39.9094 1.00000
  2.239E+13 2.239E+13 3.937E+00 9.115E+05 1.586E+07 1.941E+07 3.618E+07 3.618E+07 1.652E+07 40.1397 1.00000
  2.512E+13 2.512E+13 3.956E+00 1.023E+06 1.779E+07 2.228E+07 4.110E+07 4.110E+07 1.659E+07 40.3699 1.00000
  2.818E+13 2.818E+13 3.976E+00 1.148E+06 1.996E+07 2.558E+07 4.669E+07 4.669E+07 1.666E+07 40.6002 1.00000
  3.162E+13 3.162E+13 3.995E+00 1.288E+06 2.240E+07 2.937E+07 5.305E+07 5.305E+07 1.673E+07 40.8304 1.00000
  3.548E+13 3.548E+13 4.015E+00 1.445E+06 2.513E+07 3.372E+07 6.029E+07 6.029E+07 1.680E+07 41.0607 1.00000
  3.981E+13 3.981E+13 4.035E+00 1.621E+06 2.819E+07 3.871E+07 6.853E+07 6.853E+07 1.687E+07 41.2910 1.00000
  4.467E+13 4.467E+13 4.055E+00 1.819E+06 3.163E+07 4.445E+07 7.790E+07 7.790E+07 1.693E+07 41.5212 1.00000
  5.012E+13 5.012E+13 4.075E+00 2.041E+06 3.549E+07 5.104E+07 8.857E+07 8.857E+07 1.700E+07 41.7515 1.00000
  5.623E+13 5.623E+13 4.095E+00 2.290E+06 3.982E+07 5.861E+07 1.007E+08 1.007E+08 1.706E+07 41.9817 1.00000
  6.310E+13 6.310E+13 4.115E+00 2.569E+06 4.467E+07 6.731E+07 1.146E+08 1.146E+08 1.713E+07 42.2120 1.00000
  7.079E+13 7.079E+13 4.135E+00 2.883E+06 5.012E+07 7.730E+07 1.303E+08 1.303E+08 1.719E+07 42.4422 1.00000
  7.943E+13 7.943E+13 4.156E+00 3.234E+06 5.623E+07 8.878E+07 1.483E+08 1.483E+08 1.725E+07 42.6725 1.00000
  8.913E+13 8.913E+13 4.176E+00 3.629E+06 6.309E+07 1.020E+08 1.687E+08 1.687E+08 1.731E+07 42.9028 1.00000
