 Incident particle is a Tau with M = 1776.82000 MeV
 Index = 0: Adenine
      Absorber with <Z/A> = 0.51799
 Sternheimer coef:  a     k=m_s   x_0    x_1    I[eV]   Cbar  delta0
                 0.2091  3.0271  0.1295  2.4219   71.4  3.1724 0.00

 *** Table generated with PUMAS v1.00 ***

      T         p     Ionization  brems     pair     photonuc  Radloss    dE/dx   CSDA Range  delta   beta
    [MeV]    [MeV/c]  -----------------------[MeV cm^2/g]------------------------  [g/cm^2]
  1.000E+05 1.018E+05 2.266E+00 1.271E-04 1.972E-03 8.366E-03 1.047E-02 2.276E+00 2.197E+04  4.9837 0.99985
  1.122E+05 1.140E+05 2.285E+00 1.468E-04 2.382E-03 9.450E-03 1.198E-02 2.297E+00 2.730E+04  5.1977 0.99988
  1.259E+05 1.277E+05 2.305E+00 1.695E-04 2.867E-03 1.062E-02 1.365E-02 2.318E+00 3.324E+04  5.4139 0.99990
  1.413E+05 1.430E+05 2.324E+00 1.956E-04 3.438E-03 1.193E-02 1.557E-02 2.340E+00 3.983E+04  5.6322 0.99992
  1.585E+05 1.603E+05 2.343E+00 2.256E-04 4.110E-03 1.340E-02 1.774E-02 2.361E+00 4.717E+04  5.8523 0.99994
  1.778E+05 1.796E+05 2.363E+00 2.601E-04 4.898E-03 1.505E-02 2.021E-02 2.383E+00 5.532E+04  6.0742 0.99995
  1.995E+05 2.013E+05 2.382E+00 2.997E-04 5.822E-03 1.693E-02 2.305E-02 2.405E+00 6.438E+04  6.2976 0.99996
  2.239E+05 2.256E+05 2.401E+00 3.452E-04 6.903E-03 1.898E-02 2.622E-02 2.427E+00 7.446E+04  6.5224 0.99997
  2.512E+05 2.530E+05 2.420E+00 3.974E-04 8.164E-03 2.128E-02 2.984E-02 2.450E+00 8.566E+04  6.7483 0.99998
  2.818E+05 2.836E+05 2.439E+00 4.574E-04 9.632E-03 2.387E-02 3.396E-02 2.473E+00 9.812E+04  6.9752 0.99998
  3.162E+05 3.180E+05 2.458E+00 5.262E-04 1.134E-02 2.680E-02 3.866E-02 2.496E+00 1.120E+05  7.2030 0.99998
  3.548E+05 3.566E+05 2.477E+00 6.051E-04 1.332E-02 3.009E-02 4.401E-02 2.521E+00 1.273E+05  7.4314 0.99999
  3.981E+05 3.999E+05 2.496E+00 6.956E-04 1.562E-02 3.376E-02 5.008E-02 2.546E+00 1.444E+05  7.6603 0.99999
  4.467E+05 4.485E+05 2.514E+00 7.993E-04 1.828E-02 3.788E-02 5.696E-02 2.571E+00 1.634E+05  7.8896 0.99999
  5.012E+05 5.030E+05 2.533E+00 9.181E-04 2.136E-02 4.252E-02 6.479E-02 2.598E+00 1.845E+05  8.1190 0.99999
  5.623E+05 5.641E+05 2.552E+00 1.054E-03 2.491E-02 4.754E-02 7.351E-02 2.625E+00 2.079E+05  8.3485 1.00000
  6.310E+05 6.327E+05 2.570E+00 1.210E-03 2.900E-02 5.321E-02 8.342E-02 2.654E+00 2.339E+05  8.5780 1.00000
  7.079E+05 7.097E+05 2.589E+00 1.389E-03 3.372E-02 5.960E-02 9.471E-02 2.684E+00 2.628E+05  8.8077 1.00000
  7.943E+05 7.961E+05 2.608E+00 1.593E-03 3.914E-02 6.683E-02 1.076E-01 2.715E+00 2.948E+05  9.0374 1.00000
  8.913E+05 8.930E+05 2.626E+00 1.827E-03 4.537E-02 7.500E-02 1.222E-01 2.748E+00 3.302E+05  9.2672 1.00000
  1.000E+06 1.002E+06 2.644E+00 2.094E-03 5.252E-02 8.423E-02 1.388E-01 2.783E+00 3.696E+05  9.4970 1.00000
  1.122E+06 1.124E+06 2.663E+00 2.400E-03 6.071E-02 9.469E-02 1.578E-01 2.821E+00 4.131E+05  9.7269 1.00000
  1.259E+06 1.261E+06 2.681E+00 2.750E-03 7.009E-02 1.065E-01 1.794E-01 2.860E+00 4.613E+05  9.9568 1.00000
  1.413E+06 1.414E+06 2.699E+00 3.150E-03 8.082E-02 1.200E-01 2.039E-01 2.903E+00 5.146E+05 10.1867 1.00000
  1.585E+06 1.587E+06 2.717E+00 3.607E-03 9.308E-02 1.352E-01 2.319E-01 2.949E+00 5.735E+05 10.4167 1.00000
  1.778E+06 1.780E+06 2.735E+00 4.129E-03 1.071E-01 1.525E-01 2.637E-01 2.998E+00 6.386E+05 10.6467 1.00000
  1.995E+06 1.997E+06 2.753E+00 4.726E-03 1.230E-01 1.721E-01 2.998E-01 3.052E+00 7.103E+05 10.8768 1.00000
  2.239E+06 2.240E+06 2.770E+00 5.408E-03 1.412E-01 1.944E-01 3.410E-01 3.111E+00 7.893E+05 11.1069 1.00000
  2.512E+06 2.514E+06 2.787E+00 6.186E-03 1.619E-01 2.197E-01 3.878E-01 3.175E+00 8.762E+05 11.3369 1.00000
  2.818E+06 2.820E+06 2.805E+00 7.075E-03 1.854E-01 2.484E-01 4.410E-01 3.246E+00 9.717E+05 11.5670 1.00000
  3.162E+06 3.164E+06 2.822E+00 8.090E-03 2.122E-01 2.812E-01 5.014E-01 3.323E+00 1.076E+06 11.7972 1.00000
  3.548E+06 3.550E+06 2.839E+00 9.248E-03 2.426E-01 3.184E-01 5.702E-01 3.409E+00 1.191E+06 12.0273 1.00000
  3.981E+06 3.983E+06 2.856E+00 1.057E-02 2.770E-01 3.607E-01 6.483E-01 3.504E+00 1.316E+06 12.2575 1.00000
  4.467E+06 4.469E+06 2.872E+00 1.208E-02 3.161E-01 4.089E-01 7.371E-01 3.609E+00 1.453E+06 12.4876 1.00000
  5.012E+06 5.014E+06 2.889E+00 1.379E-02 3.604E-01 4.638E-01 8.379E-01 3.727E+00 1.602E+06 12.7178 1.00000
  5.623E+06 5.625E+06 2.905E+00 1.575E-02 4.105E-01 5.262E-01 9.525E-01 3.857E+00 1.763E+06 12.9480 1.00000
  6.310E+06 6.311E+06 2.921E+00 1.799E-02 4.672E-01 5.974E-01 1.083E+00 4.004E+00 1.938E+06 13.1782 1.00000
  7.079E+06 7.081E+06 2.937E+00 2.053E-02 5.314E-01 6.784E-01 1.230E+00 4.167E+00 2.126E+06 13.4084 1.00000
  7.943E+06 7.945E+06 2.953E+00 2.343E-02 6.039E-01 7.708E-01 1.398E+00 4.351E+00 2.329E+06 13.6386 1.00000
  8.913E+06 8.914E+06 2.968E+00 2.673E-02 6.858E-01 8.761E-01 1.589E+00 4.557E+00 2.547E+06 13.8688 1.00000
  1.000E+07 1.000E+07 2.984E+00 3.049E-02 7.783E-01 9.960E-01 1.805E+00 4.789E+00 2.780E+06 14.0990 1.00000
  1.122E+07 1.122E+07 2.999E+00 3.476E-02 8.827E-01 1.133E+00 2.050E+00 5.050E+00 3.028E+06 14.3292 1.00000
  1.259E+07 1.259E+07 3.015E+00 3.963E-02 1.000E+00 1.289E+00 2.329E+00 5.343E+00 3.291E+06 14.5594 1.00000
  1.413E+07 1.413E+07 3.030E+00 4.516E-02 1.133E+00 1.467E+00 2.645E+00 5.675E+00 3.571E+06 14.7897 1.00000
  1.585E+07 1.585E+07 3.045E+00 5.145E-02 1.283E+00 1.669E+00 3.004E+00 6.048E+00 3.865E+06 15.0199 1.00000
  1.778E+07 1.778E+07 3.059E+00 5.861E-02 1.452E+00 1.901E+00 3.411E+00 6.470E+00 4.174E+06 15.2501 1.00000
  1.995E+07 1.995E+07 3.074E+00 6.674E-02 1.642E+00 2.165E+00 3.873E+00 6.947E+00 4.498E+06 15.4804 1.00000
  2.239E+07 2.239E+07 3.089E+00 7.597E-02 1.855E+00 2.466E+00 4.397E+00 7.486E+00 4.836E+06 15.7106 1.00000
  2.512E+07 2.512E+07 3.104E+00 8.646E-02 2.096E+00 2.809E+00 4.992E+00 8.095E+00 5.187E+06 15.9408 1.00000
  2.818E+07 2.819E+07 3.118E+00 9.838E-02 2.367E+00 3.201E+00 5.667E+00 8.785E+00 5.551E+06 16.1711 1.00000
  3.162E+07 3.162E+07 3.133E+00 1.119E-01 2.672E+00 3.648E+00 6.432E+00 9.565E+00 5.926E+06 16.4013 1.00000
  3.548E+07 3.548E+07 3.147E+00 1.272E-01 3.015E+00 4.159E+00 7.301E+00 1.045E+01 6.313E+06 16.6316 1.00000
  3.981E+07 3.981E+07 3.162E+00 1.447E-01 3.401E+00 4.741E+00 8.286E+00 1.145E+01 6.709E+06 16.8618 1.00000
  4.467E+07 4.467E+07 3.176E+00 1.644E-01 3.834E+00 5.406E+00 9.405E+00 1.258E+01 7.114E+06 17.0921 1.00000
  5.012E+07 5.012E+07 3.190E+00 1.868E-01 4.322E+00 6.165E+00 1.067E+01 1.386E+01 7.527E+06 17.3223 1.00000
  5.623E+07 5.624E+07 3.205E+00 2.121E-01 4.870E+00 7.031E+00 1.211E+01 1.532E+01 7.948E+06 17.5526 1.00000
  6.310E+07 6.310E+07 3.219E+00 2.409E-01 5.485E+00 8.021E+00 1.375E+01 1.697E+01 8.374E+06 17.7828 1.00000
  7.079E+07 7.080E+07 3.234E+00 2.734E-01 6.177E+00 9.150E+00 1.560E+01 1.883E+01 8.805E+06 18.0131 1.00000
  7.943E+07 7.943E+07 3.248E+00 3.103E-01 6.954E+00 1.044E+01 1.770E+01 2.095E+01 9.240E+06 18.2433 1.00000
  8.913E+07 8.913E+07 3.262E+00 3.521E-01 7.827E+00 1.191E+01 2.009E+01 2.335E+01 9.679E+06 18.4736 1.00000
  1.000E+08 1.000E+08 3.277E+00 3.993E-01 8.807E+00 1.359E+01 2.280E+01 2.608E+01 1.012E+07 18.7038 1.00000
  1.122E+08 1.122E+08 3.291E+00 4.527E-01 9.909E+00 1.551E+01 2.588E+01 2.917E+01 1.056E+07 18.9341 1.00000
  1.259E+08 1.259E+08 3.306E+00 5.132E-01 1.114E+01 1.771E+01 2.937E+01 3.267E+01 1.101E+07 19.1643 1.00000
  1.413E+08 1.413E+08 3.320E+00 5.815E-01 1.253E+01 2.021E+01 3.333E+01 3.665E+01 1.145E+07 19.3946 1.00000
  1.585E+08 1.585E+08 3.335E+00 6.588E-01 1.409E+01 2.308E+01 3.783E+01 4.116E+01 1.190E+07 19.6249 1.00000
  1.778E+08 1.778E+08 3.350E+00 7.461E-01 1.584E+01 2.634E+01 4.293E+01 4.628E+01 1.234E+07 19.8551 1.00000
  1.995E+08 1.995E+08 3.364E+00 8.448E-01 1.781E+01 3.008E+01 4.873E+01 5.209E+01 1.278E+07 20.0854 1.00000
  2.239E+08 2.239E+08 3.379E+00 9.563E-01 2.001E+01 3.434E+01 5.531E+01 5.869E+01 1.322E+07 20.3156 1.00000
  2.512E+08 2.512E+08 3.394E+00 1.082E+00 2.249E+01 3.922E+01 6.279E+01 6.618E+01 1.366E+07 20.5459 1.00000
  2.818E+08 2.818E+08 3.409E+00 1.224E+00 2.527E+01 4.479E+01 7.128E+01 7.469E+01 1.410E+07 20.7761 1.00000
  3.162E+08 3.162E+08 3.424E+00 1.384E+00 2.839E+01 5.115E+01 8.092E+01 8.434E+01 1.453E+07 21.0064 1.00000
  3.548E+08 3.548E+08 3.439E+00 1.565E+00 3.189E+01 5.842E+01 9.187E+01 9.531E+01 1.497E+07 21.2367 1.00000
  3.981E+08 3.981E+08 3.454E+00 1.769E+00 3.582E+01 6.673E+01 1.043E+02 1.078E+02 1.539E+07 21.4669 1.00000
  4.467E+08 4.467E+08 3.469E+00 1.999E+00 4.023E+01 7.622E+01 1.184E+02 1.219E+02 1.582E+07 21.6972 1.00000
  5.012E+08 5.012E+08 3.484E+00 2.259E+00 4.517E+01 8.708E+01 1.345E+02 1.380E+02 1.624E+07 21.9274 1.00000
  5.623E+08 5.623E+08 3.500E+00 2.551E+00 5.073E+01 9.948E+01 1.528E+02 1.563E+02 1.666E+07 22.1577 1.00000
  6.310E+08 6.310E+08 3.515E+00 2.881E+00 5.696E+01 1.137E+02 1.735E+02 1.770E+02 1.707E+07 22.3879 1.00000
  7.079E+08 7.079E+08 3.530E+00 3.252E+00 6.395E+01 1.299E+02 1.971E+02 2.006E+02 1.748E+07 22.6182 1.00000
  7.943E+08 7.943E+08 3.546E+00 3.670E+00 7.180E+01 1.484E+02 2.239E+02 2.274E+02 1.788E+07 22.8485 1.00000
  8.913E+08 8.913E+08 3.562E+00 4.141E+00 8.061E+01 1.696E+02 2.543E+02 2.579E+02 1.829E+07 23.0787 1.00000
  1.000E+09 1.000E+09 3.577E+00 4.672E+00 9.049E+01 1.938E+02 2.889E+02 2.925E+02 1.868E+07 23.3090 1.00000
  1.122E+09 1.122E+09 3.593E+00 5.269E+00 1.016E+02 2.214E+02 3.283E+02 3.319E+02 1.907E+07 23.5392 1.00000
  1.259E+09 1.259E+09 3.609E+00 5.941E+00 1.140E+02 2.531E+02 3.730E+02 3.766E+02 1.946E+07 23.7695 1.00000
  1.413E+09 1.413E+09 3.625E+00 6.698E+00 1.280E+02 2.892E+02 4.239E+02 4.276E+02 1.985E+07 23.9997 1.00000
  1.585E+09 1.585E+09 3.641E+00 7.549E+00 1.437E+02 3.306E+02 4.818E+02 4.855E+02 2.023E+07 24.2300 1.00000
  1.778E+09 1.778E+09 3.657E+00 8.506E+00 1.612E+02 3.779E+02 5.477E+02 5.513E+02 2.060E+07 24.4603 1.00000
  1.995E+09 1.995E+09 3.673E+00 9.583E+00 1.810E+02 4.320E+02 6.226E+02 6.262E+02 2.097E+07 24.6905 1.00000
  2.239E+09 2.239E+09 3.690E+00 1.079E+01 2.031E+02 4.939E+02 7.078E+02 7.115E+02 2.134E+07 24.9208 1.00000
  2.512E+09 2.512E+09 3.706E+00 1.216E+01 2.279E+02 5.646E+02 8.047E+02 8.084E+02 2.170E+07 25.1510 1.00000
  2.818E+09 2.818E+09 3.723E+00 1.369E+01 2.558E+02 6.456E+02 9.151E+02 9.188E+02 2.205E+07 25.3813 1.00000
  3.162E+09 3.162E+09 3.739E+00 1.541E+01 2.871E+02 7.381E+02 1.041E+03 1.044E+03 2.240E+07 25.6116 1.00000
  3.548E+09 3.548E+09 3.756E+00 1.734E+01 3.222E+02 8.440E+02 1.184E+03 1.187E+03 2.275E+07 25.8418 1.00000
  3.981E+09 3.981E+09 3.773E+00 1.952E+01 3.615E+02 9.651E+02 1.346E+03 1.350E+03 2.309E+07 26.0721 1.00000
  4.467E+09 4.467E+09 3.789E+00 2.196E+01 4.057E+02 1.104E+03 1.531E+03 1.535E+03 2.343E+07 26.3023 1.00000
  5.012E+09 5.012E+09 3.806E+00 2.471E+01 4.553E+02 1.262E+03 1.742E+03 1.746E+03 2.377E+07 26.5326 1.00000
  5.623E+09 5.623E+09 3.823E+00 2.779E+01 5.109E+02 1.444E+03 1.982E+03 1.986E+03 2.410E+07 26.7628 1.00000
  6.310E+09 6.310E+09 3.841E+00 3.126E+01 5.733E+02 1.651E+03 2.256E+03 2.259E+03 2.442E+07 26.9931 1.00000
  7.079E+09 7.079E+09 3.858E+00 3.515E+01 6.433E+02 1.889E+03 2.567E+03 2.571E+03 2.474E+07 27.2234 1.00000
  7.943E+09 7.943E+09 3.875E+00 3.952E+01 7.219E+02 2.160E+03 2.922E+03 2.925E+03 2.506E+07 27.4536 1.00000
  8.913E+09 8.913E+09 3.893E+00 4.443E+01 8.100E+02 2.471E+03 3.326E+03 3.329E+03 2.537E+07 27.6839 1.00000
  1.000E+10 1.000E+10 3.910E+00 4.995E+01 9.089E+02 2.827E+03 3.786E+03 3.790E+03 2.567E+07 27.9141 1.00000
  1.122E+10 1.122E+10 3.928E+00 5.614E+01 1.020E+03 3.234E+03 4.310E+03 4.314E+03 2.598E+07 28.1444 1.00000
  1.259E+10 1.259E+10 3.945E+00 6.309E+01 1.144E+03 3.700E+03 4.908E+03 4.912E+03 2.627E+07 28.3747 1.00000
  1.413E+10 1.413E+10 3.963E+00 7.090E+01 1.284E+03 4.234E+03 5.589E+03 5.593E+03 2.657E+07 28.6049 1.00000
  1.585E+10 1.585E+10 3.981E+00 7.967E+01 1.441E+03 4.844E+03 6.365E+03 6.369E+03 2.686E+07 28.8352 1.00000
  1.778E+10 1.778E+10 3.999E+00 8.951E+01 1.617E+03 5.543E+03 7.249E+03 7.253E+03 2.714E+07 29.0654 1.00000
  1.995E+10 1.995E+10 4.017E+00 1.006E+02 1.814E+03 6.343E+03 8.258E+03 8.262E+03 2.742E+07 29.2957 1.00000
  2.239E+10 2.239E+10 4.036E+00 1.130E+02 2.035E+03 7.259E+03 9.408E+03 9.412E+03 2.770E+07 29.5260 1.00000
  2.512E+10 2.512E+10 4.054E+00 1.269E+02 2.284E+03 8.308E+03 1.072E+04 1.072E+04 2.797E+07 29.7562 1.00000
  2.818E+10 2.818E+10 4.072E+00 1.425E+02 2.562E+03 9.509E+03 1.221E+04 1.222E+04 2.824E+07 29.9865 1.00000
  3.162E+10 3.162E+10 4.091E+00 1.600E+02 2.875E+03 1.088E+04 1.392E+04 1.392E+04 2.851E+07 30.2167 1.00000
  3.548E+10 3.548E+10 4.110E+00 1.797E+02 3.226E+03 1.246E+04 1.586E+04 1.587E+04 2.877E+07 30.4470 1.00000
  3.981E+10 3.981E+10 4.128E+00 2.018E+02 3.619E+03 1.426E+04 1.808E+04 1.809E+04 2.902E+07 30.6772 1.00000
  4.467E+10 4.467E+10 4.147E+00 2.266E+02 4.061E+03 1.633E+04 2.061E+04 2.062E+04 2.927E+07 30.9075 1.00000
  5.012E+10 5.012E+10 4.166E+00 2.545E+02 4.557E+03 1.869E+04 2.350E+04 2.350E+04 2.952E+07 31.1378 1.00000
  5.623E+10 5.623E+10 4.185E+00 2.857E+02 5.112E+03 2.140E+04 2.680E+04 2.680E+04 2.977E+07 31.3680 1.00000
  6.310E+10 6.310E+10 4.205E+00 3.208E+02 5.736E+03 2.450E+04 3.056E+04 3.056E+04 3.001E+07 31.5983 1.00000
  7.079E+10 7.079E+10 4.224E+00 3.601E+02 6.436E+03 2.805E+04 3.485E+04 3.485E+04 3.024E+07 31.8285 1.00000
  7.943E+10 7.943E+10 4.243E+00 4.042E+02 7.221E+03 3.212E+04 3.975E+04 3.975E+04 3.047E+07 32.0588 1.00000
  8.913E+10 8.913E+10 4.263E+00 4.538E+02 8.102E+03 3.678E+04 4.534E+04 4.534E+04 3.070E+07 32.2891 1.00000
  1.000E+11 1.000E+11 4.282E+00 5.094E+02 9.091E+03 4.212E+04 5.172E+04 5.173E+04 3.093E+07 32.5193 1.00000
  1.122E+11 1.122E+11 4.302E+00 5.718E+02 1.020E+04 4.824E+04 5.901E+04 5.902E+04 3.115E+07 32.7496 1.00000
  1.259E+11 1.259E+11 4.322E+00 6.418E+02 1.144E+04 5.525E+04 6.734E+04 6.734E+04 3.137E+07 32.9798 1.00000
  1.413E+11 1.413E+11 4.342E+00 7.203E+02 1.284E+04 6.328E+04 7.684E+04 7.685E+04 3.158E+07 33.2101 1.00000
  1.585E+11 1.585E+11 4.362E+00 8.085E+02 1.441E+04 7.248E+04 8.770E+04 8.770E+04 3.179E+07 33.4403 1.00000
  1.778E+11 1.778E+11 4.382E+00 9.074E+02 1.616E+04 8.303E+04 1.001E+05 1.001E+05 3.200E+07 33.6706 1.00000
  1.995E+11 1.995E+11 4.402E+00 1.018E+03 1.814E+04 9.511E+04 1.143E+05 1.143E+05 3.220E+07 33.9009 1.00000
  2.239E+11 2.239E+11 4.423E+00 1.143E+03 2.035E+04 1.090E+05 1.305E+05 1.305E+05 3.240E+07 34.1311 1.00000
  2.512E+11 2.512E+11 4.443E+00 1.283E+03 2.283E+04 1.248E+05 1.489E+05 1.490E+05 3.260E+07 34.3614 1.00000
  2.818E+11 2.818E+11 4.464E+00 1.440E+03 2.562E+04 1.430E+05 1.701E+05 1.701E+05 3.279E+07 34.5916 1.00000
  3.162E+11 3.162E+11 4.485E+00 1.615E+03 2.874E+04 1.639E+05 1.942E+05 1.942E+05 3.298E+07 34.8219 1.00000
  3.548E+11 3.548E+11 4.506E+00 1.813E+03 3.225E+04 1.878E+05 2.218E+05 2.218E+05 3.317E+07 35.0522 1.00000
  3.981E+11 3.981E+11 4.527E+00 2.034E+03 3.618E+04 2.152E+05 2.534E+05 2.534E+05 3.335E+07 35.2824 1.00000
  4.467E+11 4.467E+11 4.548E+00 2.283E+03 4.059E+04 2.466E+05 2.895E+05 2.895E+05 3.353E+07 35.5127 1.00000
  5.012E+11 5.012E+11 4.569E+00 2.562E+03 4.555E+04 2.826E+05 3.307E+05 3.307E+05 3.371E+07 35.7429 1.00000
  5.623E+11 5.623E+11 4.590E+00 2.875E+03 5.110E+04 3.239E+05 3.778E+05 3.778E+05 3.388E+07 35.9732 1.00000
  6.310E+11 6.310E+11 4.612E+00 3.226E+03 5.734E+04 3.712E+05 4.317E+05 4.318E+05 3.405E+07 36.2034 1.00000
  7.079E+11 7.079E+11 4.633E+00 3.620E+03 6.433E+04 4.255E+05 4.934E+05 4.934E+05 3.422E+07 36.4337 1.00000
  7.943E+11 7.943E+11 4.655E+00 4.062E+03 7.218E+04 4.877E+05 5.639E+05 5.639E+05 3.438E+07 36.6640 1.00000
  8.913E+11 8.913E+11 4.677E+00 4.558E+03 8.098E+04 5.590E+05 6.446E+05 6.446E+05 3.454E+07 36.8942 1.00000
  1.000E+12 1.000E+12 4.699E+00 5.115E+03 9.086E+04 6.409E+05 7.368E+05 7.368E+05 3.470E+07 37.1245 1.00000
  1.122E+12 1.122E+12 4.721E+00 5.739E+03 1.019E+05 7.347E+05 8.424E+05 8.424E+05 3.486E+07 37.3547 1.00000
  1.259E+12 1.259E+12 4.743E+00 6.440E+03 1.144E+05 8.423E+05 9.631E+05 9.631E+05 3.501E+07 37.5850 1.00000
  1.413E+12 1.413E+12 4.766E+00 7.226E+03 1.283E+05 9.658E+05 1.101E+06 1.101E+06 3.516E+07 37.8153 1.00000
  1.585E+12 1.585E+12 4.788E+00 8.108E+03 1.440E+05 1.107E+06 1.259E+06 1.259E+06 3.530E+07 38.0455 1.00000
  1.778E+12 1.778E+12 4.811E+00 9.098E+03 1.615E+05 1.270E+06 1.440E+06 1.440E+06 3.545E+07 38.2758 1.00000
  1.995E+12 1.995E+12 4.833E+00 1.021E+04 1.812E+05 1.456E+06 1.647E+06 1.647E+06 3.559E+07 38.5060 1.00000
  2.239E+12 2.239E+12 4.856E+00 1.145E+04 2.033E+05 1.670E+06 1.885E+06 1.885E+06 3.573E+07 38.7363 1.00000
  2.512E+12 2.512E+12 4.879E+00 1.285E+04 2.282E+05 1.915E+06 2.156E+06 2.156E+06 3.586E+07 38.9665 1.00000
  2.818E+12 2.818E+12 4.902E+00 1.442E+04 2.560E+05 2.196E+06 2.467E+06 2.467E+06 3.600E+07 39.1968 1.00000
  3.162E+12 3.162E+12 4.925E+00 1.618E+04 2.872E+05 2.519E+06 2.822E+06 2.822E+06 3.613E+07 39.4271 1.00000
  3.548E+12 3.548E+12 4.949E+00 1.816E+04 3.222E+05 2.889E+06 3.230E+06 3.230E+06 3.626E+07 39.6573 1.00000
  3.981E+12 3.981E+12 4.972E+00 2.037E+04 3.615E+05 3.314E+06 3.696E+06 3.696E+06 3.638E+07 39.8876 1.00000
  4.467E+12 4.467E+12 4.996E+00 2.286E+04 4.056E+05 3.802E+06 4.230E+06 4.230E+06 3.650E+07 40.1178 1.00000
  5.012E+12 5.012E+12 5.019E+00 2.565E+04 4.551E+05 4.361E+06 4.842E+06 4.842E+06 3.663E+07 40.3481 1.00000
  5.623E+12 5.623E+12 5.043E+00 2.878E+04 5.106E+05 5.003E+06 5.543E+06 5.543E+06 3.674E+07 40.5784 1.00000
  6.310E+12 6.310E+12 5.067E+00 3.229E+04 5.729E+05 5.740E+06 6.346E+06 6.346E+06 3.686E+07 40.8086 1.00000
  7.079E+12 7.079E+12 5.091E+00 3.623E+04 6.428E+05 6.586E+06 7.265E+06 7.265E+06 3.697E+07 41.0389 1.00000
  7.943E+12 7.943E+12 5.115E+00 4.065E+04 7.212E+05 7.557E+06 8.319E+06 8.319E+06 3.708E+07 41.2691 1.00000
  8.913E+12 8.913E+12 5.140E+00 4.561E+04 8.091E+05 8.671E+06 9.526E+06 9.526E+06 3.719E+07 41.4994 1.00000
  1.000E+13 1.000E+13 5.164E+00 5.118E+04 9.078E+05 9.951E+06 1.091E+07 1.091E+07 3.730E+07 41.7297 1.00000
  1.122E+13 1.122E+13 5.189E+00 5.742E+04 1.019E+06 1.142E+07 1.250E+07 1.250E+07 3.741E+07 41.9599 1.00000
  1.259E+13 1.259E+13 5.214E+00 6.443E+04 1.143E+06 1.310E+07 1.431E+07 1.431E+07 3.751E+07 42.1902 1.00000
  1.413E+13 1.413E+13 5.239E+00 7.229E+04 1.282E+06 1.504E+07 1.639E+07 1.639E+07 3.761E+07 42.4204 1.00000
  1.585E+13 1.585E+13 5.264E+00 8.111E+04 1.438E+06 1.726E+07 1.878E+07 1.878E+07 3.771E+07 42.6507 1.00000
  1.778E+13 1.778E+13 5.289E+00 9.101E+04 1.614E+06 1.981E+07 2.152E+07 2.152E+07 3.780E+07 42.8809 1.00000
  1.995E+13 1.995E+13 5.314E+00 1.021E+05 1.811E+06 2.274E+07 2.466E+07 2.466E+07 3.790E+07 43.1112 1.00000
  2.239E+13 2.239E+13 5.340E+00 1.146E+05 2.032E+06 2.611E+07 2.825E+07 2.825E+07 3.799E+07 43.3415 1.00000
  2.512E+13 2.512E+13 5.365E+00 1.286E+05 2.279E+06 2.997E+07 3.238E+07 3.238E+07 3.808E+07 43.5717 1.00000
  2.818E+13 2.818E+13 5.391E+00 1.442E+05 2.557E+06 3.441E+07 3.711E+07 3.711E+07 3.817E+07 43.8020 1.00000
  3.162E+13 3.162E+13 5.417E+00 1.618E+05 2.869E+06 3.950E+07 4.253E+07 4.253E+07 3.826E+07 44.0322 1.00000
  3.548E+13 3.548E+13 5.443E+00 1.816E+05 3.219E+06 4.535E+07 4.875E+07 4.875E+07 3.834E+07 44.2625 1.00000
  3.981E+13 3.981E+13 5.469E+00 2.037E+05 3.612E+06 5.207E+07 5.589E+07 5.589E+07 3.842E+07 44.4928 1.00000
  4.467E+13 4.467E+13 5.495E+00 2.286E+05 4.052E+06 5.979E+07 6.407E+07 6.407E+07 3.851E+07 44.7230 1.00000
  5.012E+13 5.012E+13 5.521E+00 2.565E+05 4.546E+06 6.866E+07 7.346E+07 7.346E+07 3.859E+07 44.9533 1.00000
  5.623E+13 5.623E+13 5.548E+00 2.878E+05 5.101E+06 7.884E+07 8.423E+07 8.423E+07 3.866E+07 45.1835 1.00000
  6.310E+13 6.310E+13 5.575E+00 3.229E+05 5.723E+06 9.054E+07 9.659E+07 9.659E+07 3.874E+07 45.4138 1.00000
  7.079E+13 7.079E+13 5.602E+00 3.623E+05 6.421E+06 1.040E+08 1.108E+08 1.108E+08 3.881E+07 45.6440 1.00000
  7.943E+13 7.943E+13 5.629E+00 4.065E+05 7.204E+06 1.194E+08 1.270E+08 1.270E+08 3.889E+07 45.8743 1.00000
  8.913E+13 8.913E+13 5.656E+00 4.561E+05 8.082E+06 1.372E+08 1.457E+08 1.457E+08 3.896E+07 46.1046 1.00000
