 Incident particle is a Tau with M = 1776.82000 MeV
 Index = 0: AdiposeTissue
      Absorber with <Z/A> = 0.55838
 Sternheimer coef:  a     k=m_s   x_0    x_1    I[eV]   Cbar  delta0
                 0.1028  3.4817  0.1827  2.6530   63.2  3.2367 0.00

 *** Table generated with PUMAS v1.00 ***

      T         p     Ionization  brems     pair     photonuc  Radloss    dE/dx   CSDA Range  delta   beta
    [MeV]    [MeV/c]  -----------------------[MeV cm^2/g]------------------------  [g/cm^2]
  1.000E+05 1.018E+05 2.468E+00 1.208E-04 1.880E-03 8.438E-03 1.044E-02 2.478E+00 2.017E+04  4.9288 0.99985
  1.122E+05 1.140E+05 2.489E+00 1.395E-04 2.274E-03 9.537E-03 1.195E-02 2.501E+00 2.508E+04  5.1428 0.99988
  1.259E+05 1.277E+05 2.510E+00 1.610E-04 2.739E-03 1.072E-02 1.362E-02 2.524E+00 3.053E+04  5.3589 0.99990
  1.413E+05 1.430E+05 2.531E+00 1.858E-04 3.288E-03 1.206E-02 1.553E-02 2.546E+00 3.659E+04  5.5769 0.99992
  1.585E+05 1.603E+05 2.552E+00 2.143E-04 3.933E-03 1.355E-02 1.770E-02 2.569E+00 4.332E+04  5.7966 0.99994
  1.778E+05 1.796E+05 2.573E+00 2.470E-04 4.691E-03 1.522E-02 2.016E-02 2.593E+00 5.082E+04  6.0178 0.99995
  1.995E+05 2.013E+05 2.593E+00 2.847E-04 5.580E-03 1.713E-02 2.299E-02 2.616E+00 5.915E+04  6.2404 0.99996
  2.239E+05 2.256E+05 2.614E+00 3.279E-04 6.619E-03 1.921E-02 2.616E-02 2.640E+00 6.841E+04  6.4643 0.99997
  2.512E+05 2.530E+05 2.635E+00 3.775E-04 7.832E-03 2.155E-02 2.976E-02 2.664E+00 7.871E+04  6.6893 0.99998
  2.818E+05 2.836E+05 2.655E+00 4.345E-04 9.245E-03 2.419E-02 3.387E-02 2.689E+00 9.016E+04  6.9152 0.99998
  3.162E+05 3.180E+05 2.676E+00 4.999E-04 1.089E-02 2.717E-02 3.856E-02 2.714E+00 1.029E+05  7.1420 0.99998
  3.548E+05 3.566E+05 2.696E+00 5.749E-04 1.280E-02 3.052E-02 4.390E-02 2.740E+00 1.170E+05  7.3695 0.99999
  3.981E+05 3.999E+05 2.716E+00 6.608E-04 1.501E-02 3.427E-02 4.994E-02 2.766E+00 1.328E+05  7.5975 0.99999
  4.467E+05 4.485E+05 2.737E+00 7.594E-04 1.758E-02 3.847E-02 5.680E-02 2.794E+00 1.502E+05  7.8261 0.99999
  5.012E+05 5.030E+05 2.757E+00 8.723E-04 2.054E-02 4.320E-02 6.461E-02 2.822E+00 1.697E+05  8.0551 0.99999
  5.623E+05 5.641E+05 2.777E+00 1.002E-03 2.396E-02 4.833E-02 7.329E-02 2.850E+00 1.912E+05  8.2843 1.00000
  6.310E+05 6.327E+05 2.797E+00 1.150E-03 2.791E-02 5.411E-02 8.317E-02 2.881E+00 2.152E+05  8.5138 1.00000
  7.079E+05 7.097E+05 2.817E+00 1.320E-03 3.246E-02 6.064E-02 9.442E-02 2.912E+00 2.417E+05  8.7434 1.00000
  7.943E+05 7.961E+05 2.837E+00 1.514E-03 3.769E-02 6.802E-02 1.072E-01 2.945E+00 2.712E+05  8.9731 1.00000
  8.913E+05 8.930E+05 2.857E+00 1.736E-03 4.370E-02 7.636E-02 1.218E-01 2.979E+00 3.040E+05  9.2029 1.00000
  1.000E+06 1.002E+06 2.877E+00 1.991E-03 5.059E-02 8.580E-02 1.384E-01 3.015E+00 3.403E+05  9.4327 1.00000
  1.122E+06 1.124E+06 2.897E+00 2.282E-03 5.850E-02 9.649E-02 1.573E-01 3.054E+00 3.805E+05  9.6626 1.00000
  1.259E+06 1.261E+06 2.916E+00 2.615E-03 6.756E-02 1.086E-01 1.788E-01 3.095E+00 4.250E+05  9.8925 1.00000
  1.413E+06 1.414E+06 2.936E+00 2.996E-03 7.792E-02 1.223E-01 2.032E-01 3.139E+00 4.743E+05 10.1224 1.00000
  1.585E+06 1.587E+06 2.955E+00 3.432E-03 8.976E-02 1.379E-01 2.311E-01 3.186E+00 5.288E+05 10.3524 1.00000
  1.778E+06 1.780E+06 2.974E+00 3.930E-03 1.033E-01 1.556E-01 2.628E-01 3.237E+00 5.890E+05 10.5824 1.00000
  1.995E+06 1.997E+06 2.994E+00 4.499E-03 1.187E-01 1.756E-01 2.988E-01 3.292E+00 6.555E+05 10.8125 1.00000
  2.239E+06 2.240E+06 3.012E+00 5.149E-03 1.363E-01 1.984E-01 3.398E-01 3.352E+00 7.287E+05 11.0426 1.00000
  2.512E+06 2.514E+06 3.031E+00 5.892E-03 1.563E-01 2.243E-01 3.865E-01 3.418E+00 8.094E+05 11.2726 1.00000
  2.818E+06 2.820E+06 3.050E+00 6.740E-03 1.790E-01 2.538E-01 4.395E-01 3.489E+00 8.982E+05 11.5027 1.00000
  3.162E+06 3.164E+06 3.068E+00 7.709E-03 2.049E-01 2.872E-01 4.998E-01 3.568E+00 9.957E+05 11.7329 1.00000
  3.548E+06 3.550E+06 3.087E+00 8.814E-03 2.343E-01 3.253E-01 5.684E-01 3.655E+00 1.103E+06 11.9630 1.00000
  3.981E+06 3.983E+06 3.105E+00 1.008E-02 2.676E-01 3.686E-01 6.463E-01 3.751E+00 1.219E+06 12.1932 1.00000
  4.467E+06 4.469E+06 3.123E+00 1.152E-02 3.054E-01 4.180E-01 7.349E-01 3.857E+00 1.347E+06 12.4233 1.00000
  5.012E+06 5.014E+06 3.140E+00 1.316E-02 3.483E-01 4.741E-01 8.356E-01 3.976E+00 1.486E+06 12.6535 1.00000
  5.623E+06 5.625E+06 3.158E+00 1.503E-02 3.968E-01 5.381E-01 9.499E-01 4.108E+00 1.638E+06 12.8837 1.00000
  6.310E+06 6.311E+06 3.175E+00 1.717E-02 4.517E-01 6.109E-01 1.080E+00 4.255E+00 1.802E+06 13.1139 1.00000
  7.079E+06 7.081E+06 3.192E+00 1.960E-02 5.138E-01 6.939E-01 1.227E+00 4.420E+00 1.979E+06 13.3441 1.00000
  7.943E+06 7.945E+06 3.209E+00 2.238E-02 5.841E-01 7.884E-01 1.395E+00 4.604E+00 2.171E+06 13.5743 1.00000
  8.913E+06 8.914E+06 3.226E+00 2.553E-02 6.634E-01 8.962E-01 1.585E+00 4.811E+00 2.377E+06 13.8045 1.00000
  1.000E+07 1.000E+07 3.243E+00 2.913E-02 7.530E-01 1.019E+00 1.801E+00 5.044E+00 2.598E+06 14.0347 1.00000
  1.122E+07 1.122E+07 3.260E+00 3.323E-02 8.542E-01 1.159E+00 2.046E+00 5.306E+00 2.834E+06 14.2649 1.00000
  1.259E+07 1.259E+07 3.276E+00 3.789E-02 9.683E-01 1.319E+00 2.325E+00 5.601E+00 3.085E+06 14.4951 1.00000
  1.413E+07 1.413E+07 3.292E+00 4.320E-02 1.097E+00 1.501E+00 2.641E+00 5.933E+00 3.351E+06 14.7254 1.00000
  1.585E+07 1.585E+07 3.308E+00 4.923E-02 1.242E+00 1.708E+00 3.000E+00 6.308E+00 3.633E+06 14.9556 1.00000
  1.778E+07 1.778E+07 3.324E+00 5.609E-02 1.406E+00 1.945E+00 3.407E+00 6.731E+00 3.930E+06 15.1858 1.00000
  1.995E+07 1.995E+07 3.340E+00 6.390E-02 1.590E+00 2.215E+00 3.869E+00 7.210E+00 4.242E+06 15.4161 1.00000
  2.239E+07 2.239E+07 3.356E+00 7.276E-02 1.797E+00 2.524E+00 4.394E+00 7.750E+00 4.568E+06 15.6463 1.00000
  2.512E+07 2.512E+07 3.372E+00 8.283E-02 2.031E+00 2.875E+00 4.989E+00 8.361E+00 4.907E+06 15.8765 1.00000
  2.818E+07 2.819E+07 3.388E+00 9.428E-02 2.294E+00 3.277E+00 5.664E+00 9.052E+00 5.260E+06 16.1068 1.00000
  3.162E+07 3.162E+07 3.403E+00 1.073E-01 2.589E+00 3.734E+00 6.431E+00 9.834E+00 5.625E+06 16.3370 1.00000
  3.548E+07 3.548E+07 3.419E+00 1.220E-01 2.922E+00 4.257E+00 7.301E+00 1.072E+01 6.001E+06 16.5673 1.00000
  3.981E+07 3.981E+07 3.434E+00 1.387E-01 3.296E+00 4.854E+00 8.289E+00 1.172E+01 6.388E+06 16.7975 1.00000
  4.467E+07 4.467E+07 3.450E+00 1.577E-01 3.717E+00 5.534E+00 9.409E+00 1.286E+01 6.784E+06 17.0278 1.00000
  5.012E+07 5.012E+07 3.466E+00 1.792E-01 4.190E+00 6.312E+00 1.068E+01 1.415E+01 7.188E+06 17.2580 1.00000
  5.623E+07 5.624E+07 3.481E+00 2.036E-01 4.721E+00 7.199E+00 1.212E+01 1.560E+01 7.600E+06 17.4883 1.00000
  6.310E+07 6.310E+07 3.497E+00 2.313E-01 5.319E+00 8.212E+00 1.376E+01 1.726E+01 8.019E+06 17.7185 1.00000
  7.079E+07 7.080E+07 3.512E+00 2.627E-01 5.990E+00 9.368E+00 1.562E+01 1.913E+01 8.443E+06 17.9488 1.00000
  7.943E+07 7.943E+07 3.528E+00 2.982E-01 6.744E+00 1.069E+01 1.773E+01 2.126E+01 8.872E+06 18.1790 1.00000
  8.913E+07 8.913E+07 3.543E+00 3.383E-01 7.591E+00 1.220E+01 2.013E+01 2.367E+01 9.305E+06 18.4093 1.00000
  1.000E+08 1.000E+08 3.559E+00 3.838E-01 8.543E+00 1.392E+01 2.285E+01 2.640E+01 9.740E+06 18.6395 1.00000
  1.122E+08 1.122E+08 3.574E+00 4.353E-01 9.612E+00 1.589E+01 2.593E+01 2.951E+01 1.018E+07 18.8698 1.00000
  1.259E+08 1.259E+08 3.590E+00 4.936E-01 1.081E+01 1.813E+01 2.944E+01 3.303E+01 1.062E+07 19.1000 1.00000
  1.413E+08 1.413E+08 3.606E+00 5.594E-01 1.216E+01 2.070E+01 3.342E+01 3.702E+01 1.106E+07 19.3303 1.00000
  1.585E+08 1.585E+08 3.621E+00 6.340E-01 1.367E+01 2.363E+01 3.793E+01 4.155E+01 1.150E+07 19.5606 1.00000
  1.778E+08 1.778E+08 3.637E+00 7.182E-01 1.537E+01 2.697E+01 4.306E+01 4.670E+01 1.194E+07 19.7908 1.00000
  1.995E+08 1.995E+08 3.653E+00 8.133E-01 1.728E+01 3.080E+01 4.889E+01 5.254E+01 1.238E+07 20.0211 1.00000
  2.239E+08 2.239E+08 3.669E+00 9.209E-01 1.942E+01 3.517E+01 5.551E+01 5.918E+01 1.281E+07 20.2513 1.00000
  2.512E+08 2.512E+08 3.685E+00 1.042E+00 2.182E+01 4.016E+01 6.302E+01 6.671E+01 1.325E+07 20.4816 1.00000
  2.818E+08 2.818E+08 3.701E+00 1.179E+00 2.452E+01 4.586E+01 7.156E+01 7.526E+01 1.368E+07 20.7118 1.00000
  3.162E+08 3.162E+08 3.717E+00 1.334E+00 2.755E+01 5.237E+01 8.126E+01 8.497E+01 1.411E+07 20.9421 1.00000
  3.548E+08 3.548E+08 3.733E+00 1.509E+00 3.095E+01 5.982E+01 9.227E+01 9.601E+01 1.454E+07 21.1724 1.00000
  3.981E+08 3.981E+08 3.750E+00 1.706E+00 3.476E+01 6.833E+01 1.048E+02 1.085E+02 1.497E+07 21.4026 1.00000
  4.467E+08 4.467E+08 3.766E+00 1.928E+00 3.904E+01 7.805E+01 1.190E+02 1.228E+02 1.539E+07 21.6329 1.00000
  5.012E+08 5.012E+08 3.782E+00 2.179E+00 4.384E+01 8.916E+01 1.352E+02 1.390E+02 1.581E+07 21.8631 1.00000
  5.623E+08 5.623E+08 3.799E+00 2.461E+00 4.924E+01 1.019E+02 1.536E+02 1.574E+02 1.622E+07 22.0934 1.00000
  6.310E+08 6.310E+08 3.815E+00 2.780E+00 5.529E+01 1.164E+02 1.744E+02 1.783E+02 1.663E+07 22.3236 1.00000
  7.079E+08 7.079E+08 3.832E+00 3.139E+00 6.208E+01 1.330E+02 1.982E+02 2.020E+02 1.704E+07 22.5539 1.00000
  7.943E+08 7.943E+08 3.849E+00 3.543E+00 6.970E+01 1.519E+02 2.252E+02 2.290E+02 1.744E+07 22.7842 1.00000
  8.913E+08 8.913E+08 3.866E+00 3.998E+00 7.825E+01 1.736E+02 2.559E+02 2.597E+02 1.784E+07 23.0144 1.00000
  1.000E+09 1.000E+09 3.883E+00 4.511E+00 8.784E+01 1.984E+02 2.908E+02 2.946E+02 1.823E+07 23.2447 1.00000
  1.122E+09 1.122E+09 3.900E+00 5.089E+00 9.861E+01 2.267E+02 3.304E+02 3.343E+02 1.862E+07 23.4749 1.00000
  1.259E+09 1.259E+09 3.917E+00 5.739E+00 1.107E+02 2.591E+02 3.756E+02 3.795E+02 1.901E+07 23.7052 1.00000
  1.413E+09 1.413E+09 3.934E+00 6.471E+00 1.242E+02 2.962E+02 4.269E+02 4.308E+02 1.939E+07 23.9354 1.00000
  1.585E+09 1.585E+09 3.951E+00 7.295E+00 1.395E+02 3.385E+02 4.853E+02 4.892E+02 1.976E+07 24.1657 1.00000
  1.778E+09 1.778E+09 3.969E+00 8.221E+00 1.565E+02 3.870E+02 5.517E+02 5.557E+02 2.013E+07 24.3960 1.00000
  1.995E+09 1.995E+09 3.986E+00 9.264E+00 1.757E+02 4.424E+02 6.273E+02 6.313E+02 2.050E+07 24.6262 1.00000
  2.239E+09 2.239E+09 4.004E+00 1.044E+01 1.972E+02 5.057E+02 7.133E+02 7.173E+02 2.086E+07 24.8565 1.00000
  2.512E+09 2.512E+09 4.021E+00 1.175E+01 2.213E+02 5.782E+02 8.112E+02 8.152E+02 2.122E+07 25.0867 1.00000
  2.818E+09 2.818E+09 4.039E+00 1.324E+01 2.483E+02 6.610E+02 9.226E+02 9.267E+02 2.158E+07 25.3170 1.00000
  3.162E+09 3.162E+09 4.057E+00 1.490E+01 2.787E+02 7.558E+02 1.049E+03 1.053E+03 2.192E+07 25.5473 1.00000
  3.548E+09 3.548E+09 4.075E+00 1.678E+01 3.128E+02 8.642E+02 1.194E+03 1.198E+03 2.227E+07 25.7775 1.00000
  3.981E+09 3.981E+09 4.093E+00 1.888E+01 3.510E+02 9.883E+02 1.358E+03 1.362E+03 2.261E+07 26.0078 1.00000
  4.467E+09 4.467E+09 4.111E+00 2.125E+01 3.939E+02 1.130E+03 1.545E+03 1.549E+03 2.294E+07 26.2380 1.00000
  5.012E+09 5.012E+09 4.130E+00 2.391E+01 4.420E+02 1.292E+03 1.758E+03 1.762E+03 2.327E+07 26.4683 1.00000
  5.623E+09 5.623E+09 4.148E+00 2.690E+01 4.960E+02 1.478E+03 2.001E+03 2.005E+03 2.360E+07 26.6985 1.00000
  6.310E+09 6.310E+09 4.166E+00 3.026E+01 5.566E+02 1.691E+03 2.277E+03 2.282E+03 2.392E+07 26.9288 1.00000
  7.079E+09 7.079E+09 4.185E+00 3.403E+01 6.245E+02 1.934E+03 2.592E+03 2.597E+03 2.424E+07 27.1591 1.00000
  7.943E+09 7.943E+09 4.204E+00 3.826E+01 7.008E+02 2.212E+03 2.951E+03 2.955E+03 2.455E+07 27.3893 1.00000
  8.913E+09 8.913E+09 4.223E+00 4.302E+01 7.864E+02 2.530E+03 3.360E+03 3.364E+03 2.486E+07 27.6196 1.00000
  1.000E+10 1.000E+10 4.241E+00 4.837E+01 8.824E+02 2.895E+03 3.825E+03 3.830E+03 2.516E+07 27.8498 1.00000
  1.122E+10 1.122E+10 4.260E+00 5.437E+01 9.901E+02 3.312E+03 4.356E+03 4.360E+03 2.546E+07 28.0801 1.00000
  1.259E+10 1.259E+10 4.280E+00 6.111E+01 1.111E+03 3.789E+03 4.961E+03 4.965E+03 2.576E+07 28.3104 1.00000
  1.413E+10 1.413E+10 4.299E+00 6.868E+01 1.247E+03 4.335E+03 5.650E+03 5.655E+03 2.605E+07 28.5406 1.00000
  1.585E+10 1.585E+10 4.318E+00 7.717E+01 1.399E+03 4.960E+03 6.436E+03 6.441E+03 2.633E+07 28.7709 1.00000
  1.778E+10 1.778E+10 4.338E+00 8.671E+01 1.569E+03 5.676E+03 7.332E+03 7.337E+03 2.662E+07 29.0011 1.00000
  1.995E+10 1.995E+10 4.357E+00 9.742E+01 1.761E+03 6.496E+03 8.354E+03 8.358E+03 2.689E+07 29.2314 1.00000
  2.239E+10 2.239E+10 4.377E+00 1.094E+02 1.976E+03 7.434E+03 9.519E+03 9.523E+03 2.717E+07 29.4617 1.00000
  2.512E+10 2.512E+10 4.397E+00 1.229E+02 2.217E+03 8.507E+03 1.085E+04 1.085E+04 2.744E+07 29.6919 1.00000
  2.818E+10 2.818E+10 4.416E+00 1.381E+02 2.488E+03 9.737E+03 1.236E+04 1.237E+04 2.770E+07 29.9222 1.00000
  3.162E+10 3.162E+10 4.436E+00 1.551E+02 2.791E+03 1.114E+04 1.409E+04 1.410E+04 2.796E+07 30.1524 1.00000
  3.548E+10 3.548E+10 4.457E+00 1.742E+02 3.132E+03 1.276E+04 1.606E+04 1.607E+04 2.822E+07 30.3827 1.00000
  3.981E+10 3.981E+10 4.477E+00 1.956E+02 3.514E+03 1.460E+04 1.831E+04 1.832E+04 2.847E+07 30.6129 1.00000
  4.467E+10 4.467E+10 4.497E+00 2.197E+02 3.943E+03 1.672E+04 2.088E+04 2.088E+04 2.872E+07 30.8432 1.00000
  5.012E+10 5.012E+10 4.518E+00 2.466E+02 4.424E+03 1.914E+04 2.381E+04 2.381E+04 2.897E+07 31.0735 1.00000
  5.623E+10 5.623E+10 4.538E+00 2.769E+02 4.963E+03 2.191E+04 2.715E+04 2.716E+04 2.921E+07 31.3037 1.00000
  6.310E+10 6.310E+10 4.559E+00 3.109E+02 5.569E+03 2.509E+04 3.097E+04 3.097E+04 2.944E+07 31.5340 1.00000
  7.079E+10 7.079E+10 4.580E+00 3.491E+02 6.249E+03 2.872E+04 3.532E+04 3.533E+04 2.968E+07 31.7642 1.00000
  7.943E+10 7.943E+10 4.601E+00 3.919E+02 7.011E+03 3.289E+04 4.029E+04 4.030E+04 2.991E+07 31.9945 1.00000
  8.913E+10 8.913E+10 4.622E+00 4.399E+02 7.866E+03 3.766E+04 4.597E+04 4.598E+04 3.013E+07 32.2248 1.00000
  1.000E+11 1.000E+11 4.643E+00 4.938E+02 8.826E+03 4.313E+04 5.245E+04 5.246E+04 3.035E+07 32.4550 1.00000
  1.122E+11 1.122E+11 4.664E+00 5.543E+02 9.903E+03 4.940E+04 5.985E+04 5.986E+04 3.057E+07 32.6853 1.00000
  1.259E+11 1.259E+11 4.685E+00 6.222E+02 1.111E+04 5.658E+04 6.831E+04 6.831E+04 3.079E+07 32.9155 1.00000
  1.413E+11 1.413E+11 4.707E+00 6.984E+02 1.247E+04 6.480E+04 7.796E+04 7.797E+04 3.100E+07 33.1458 1.00000
  1.585E+11 1.585E+11 4.729E+00 7.839E+02 1.399E+04 7.422E+04 8.899E+04 8.900E+04 3.120E+07 33.3760 1.00000
  1.778E+11 1.778E+11 4.750E+00 8.798E+02 1.569E+04 8.502E+04 1.016E+05 1.016E+05 3.141E+07 33.6063 1.00000
  1.995E+11 1.995E+11 4.772E+00 9.875E+02 1.761E+04 9.740E+04 1.160E+05 1.160E+05 3.161E+07 33.8366 1.00000
  2.239E+11 2.239E+11 4.794E+00 1.108E+03 1.976E+04 1.116E+05 1.324E+05 1.324E+05 3.181E+07 34.0668 1.00000
  2.512E+11 2.512E+11 4.816E+00 1.244E+03 2.217E+04 1.278E+05 1.512E+05 1.512E+05 3.200E+07 34.2971 1.00000
  2.818E+11 2.818E+11 4.839E+00 1.396E+03 2.487E+04 1.465E+05 1.727E+05 1.727E+05 3.219E+07 34.5273 1.00000
  3.162E+11 3.162E+11 4.861E+00 1.566E+03 2.790E+04 1.678E+05 1.973E+05 1.973E+05 3.238E+07 34.7576 1.00000
  3.548E+11 3.548E+11 4.883E+00 1.758E+03 3.131E+04 1.923E+05 2.253E+05 2.253E+05 3.256E+07 34.9879 1.00000
  3.981E+11 3.981E+11 4.906E+00 1.973E+03 3.513E+04 2.203E+05 2.574E+05 2.574E+05 3.274E+07 35.2181 1.00000
  4.467E+11 4.467E+11 4.929E+00 2.214E+03 3.941E+04 2.525E+05 2.941E+05 2.941E+05 3.292E+07 35.4484 1.00000
  5.012E+11 5.012E+11 4.952E+00 2.484E+03 4.422E+04 2.894E+05 3.361E+05 3.361E+05 3.309E+07 35.6786 1.00000
  5.623E+11 5.623E+11 4.975E+00 2.788E+03 4.961E+04 3.316E+05 3.840E+05 3.840E+05 3.326E+07 35.9089 1.00000
  6.310E+11 6.310E+11 4.998E+00 3.128E+03 5.566E+04 3.801E+05 4.389E+05 4.389E+05 3.343E+07 36.1391 1.00000
  7.079E+11 7.079E+11 5.021E+00 3.510E+03 6.245E+04 4.357E+05 5.016E+05 5.016E+05 3.359E+07 36.3694 1.00000
  7.943E+11 7.943E+11 5.045E+00 3.939E+03 7.007E+04 4.994E+05 5.734E+05 5.734E+05 3.375E+07 36.5997 1.00000
  8.913E+11 8.913E+11 5.068E+00 4.420E+03 7.862E+04 5.724E+05 6.555E+05 6.555E+05 3.391E+07 36.8299 1.00000
  1.000E+12 1.000E+12 5.092E+00 4.960E+03 8.821E+04 6.562E+05 7.494E+05 7.494E+05 3.407E+07 37.0602 1.00000
  1.122E+12 1.122E+12 5.116E+00 5.565E+03 9.897E+04 7.523E+05 8.568E+05 8.568E+05 3.422E+07 37.2904 1.00000
  1.259E+12 1.259E+12 5.139E+00 6.245E+03 1.110E+05 8.625E+05 9.798E+05 9.798E+05 3.437E+07 37.5207 1.00000
  1.413E+12 1.413E+12 5.163E+00 7.007E+03 1.246E+05 9.889E+05 1.121E+06 1.121E+06 3.452E+07 37.7510 1.00000
  1.585E+12 1.585E+12 5.188E+00 7.863E+03 1.398E+05 1.134E+06 1.282E+06 1.282E+06 3.466E+07 37.9812 1.00000
  1.778E+12 1.778E+12 5.212E+00 8.823E+03 1.568E+05 1.300E+06 1.466E+06 1.466E+06 3.480E+07 38.2115 1.00000
  1.995E+12 1.995E+12 5.236E+00 9.900E+03 1.760E+05 1.491E+06 1.677E+06 1.677E+06 3.494E+07 38.4417 1.00000
  2.239E+12 2.239E+12 5.261E+00 1.111E+04 1.974E+05 1.710E+06 1.918E+06 1.918E+06 3.508E+07 38.6720 1.00000
  2.512E+12 2.512E+12 5.286E+00 1.246E+04 2.215E+05 1.961E+06 2.195E+06 2.195E+06 3.521E+07 38.9022 1.00000
  2.818E+12 2.818E+12 5.311E+00 1.399E+04 2.485E+05 2.249E+06 2.511E+06 2.511E+06 3.534E+07 39.1325 1.00000
  3.162E+12 3.162E+12 5.336E+00 1.569E+04 2.788E+05 2.579E+06 2.874E+06 2.874E+06 3.547E+07 39.3628 1.00000
  3.548E+12 3.548E+12 5.361E+00 1.761E+04 3.128E+05 2.959E+06 3.289E+06 3.289E+06 3.560E+07 39.5930 1.00000
  3.981E+12 3.981E+12 5.386E+00 1.976E+04 3.510E+05 3.394E+06 3.764E+06 3.764E+06 3.572E+07 39.8233 1.00000
  4.467E+12 4.467E+12 5.411E+00 2.217E+04 3.938E+05 3.893E+06 4.309E+06 4.309E+06 3.584E+07 40.0535 1.00000
  5.012E+12 5.012E+12 5.437E+00 2.487E+04 4.418E+05 4.466E+06 4.933E+06 4.933E+06 3.596E+07 40.2838 1.00000
  5.623E+12 5.623E+12 5.463E+00 2.791E+04 4.957E+05 5.123E+06 5.647E+06 5.647E+06 3.608E+07 40.5141 1.00000
  6.310E+12 6.310E+12 5.489E+00 3.131E+04 5.562E+05 5.878E+06 6.466E+06 6.466E+06 3.619E+07 40.7443 1.00000
  7.079E+12 7.079E+12 5.515E+00 3.513E+04 6.240E+05 6.744E+06 7.403E+06 7.403E+06 3.630E+07 40.9746 1.00000
  7.943E+12 7.943E+12 5.541E+00 3.942E+04 7.001E+05 7.738E+06 8.478E+06 8.478E+06 3.641E+07 41.2048 1.00000
  8.913E+12 8.913E+12 5.567E+00 4.423E+04 7.855E+05 8.879E+06 9.709E+06 9.709E+06 3.652E+07 41.4351 1.00000
  1.000E+13 1.000E+13 5.593E+00 4.963E+04 8.813E+05 1.019E+07 1.112E+07 1.112E+07 3.662E+07 41.6654 1.00000
  1.122E+13 1.122E+13 5.620E+00 5.569E+04 9.888E+05 1.169E+07 1.274E+07 1.274E+07 3.672E+07 41.8956 1.00000
  1.259E+13 1.259E+13 5.647E+00 6.248E+04 1.109E+06 1.342E+07 1.459E+07 1.459E+07 3.683E+07 42.1259 1.00000
  1.413E+13 1.413E+13 5.673E+00 7.011E+04 1.245E+06 1.540E+07 1.672E+07 1.672E+07 3.692E+07 42.3561 1.00000
  1.585E+13 1.585E+13 5.700E+00 7.866E+04 1.397E+06 1.768E+07 1.915E+07 1.915E+07 3.702E+07 42.5864 1.00000
  1.778E+13 1.778E+13 5.728E+00 8.826E+04 1.567E+06 2.029E+07 2.194E+07 2.194E+07 3.711E+07 42.8166 1.00000
  1.995E+13 1.995E+13 5.755E+00 9.903E+04 1.758E+06 2.329E+07 2.515E+07 2.515E+07 3.721E+07 43.0469 1.00000
  2.239E+13 2.239E+13 5.782E+00 1.111E+05 1.972E+06 2.673E+07 2.882E+07 2.882E+07 3.730E+07 43.2772 1.00000
  2.512E+13 2.512E+13 5.810E+00 1.247E+05 2.213E+06 3.069E+07 3.303E+07 3.303E+07 3.739E+07 43.5074 1.00000
  2.818E+13 2.818E+13 5.838E+00 1.399E+05 2.483E+06 3.523E+07 3.785E+07 3.785E+07 3.747E+07 43.7377 1.00000
  3.162E+13 3.162E+13 5.865E+00 1.570E+05 2.786E+06 4.045E+07 4.339E+07 4.339E+07 3.756E+07 43.9679 1.00000
  3.548E+13 3.548E+13 5.893E+00 1.761E+05 3.125E+06 4.644E+07 4.974E+07 4.974E+07 3.764E+07 44.1982 1.00000
  3.981E+13 3.981E+13 5.922E+00 1.976E+05 3.506E+06 5.332E+07 5.702E+07 5.702E+07 3.772E+07 44.4285 1.00000
  4.467E+13 4.467E+13 5.950E+00 2.217E+05 3.934E+06 6.122E+07 6.538E+07 6.538E+07 3.780E+07 44.6587 1.00000
  5.012E+13 5.012E+13 5.978E+00 2.488E+05 4.414E+06 7.030E+07 7.497E+07 7.497E+07 3.788E+07 44.8890 1.00000
  5.623E+13 5.623E+13 6.007E+00 2.791E+05 4.952E+06 8.073E+07 8.596E+07 8.596E+07 3.796E+07 45.1192 1.00000
  6.310E+13 6.310E+13 6.036E+00 3.132E+05 5.556E+06 9.271E+07 9.858E+07 9.858E+07 3.803E+07 45.3495 1.00000
  7.079E+13 7.079E+13 6.065E+00 3.514E+05 6.234E+06 1.065E+08 1.131E+08 1.131E+08 3.811E+07 45.5797 1.00000
  7.943E+13 7.943E+13 6.094E+00 3.943E+05 6.994E+06 1.223E+08 1.297E+08 1.297E+08 3.818E+07 45.8100 1.00000
  8.913E+13 8.913E+13 6.123E+00 4.424E+05 7.847E+06 1.405E+08 1.487E+08 1.487E+08 3.825E+07 46.0403 1.00000
