 Incident particle is a Tau with M = 1776.82000 MeV
 Index = 0: AgHalidesInPhotEmulsion
      Absorber with <Z/A> = 0.43663
 Sternheimer coef:  a     k=m_s   x_0    x_1    I[eV]   Cbar  delta0
                 0.2459  2.6814  0.0353  3.2117  487.1  5.6166 0.00

 *** Table generated with PUMAS v1.00 ***

      T         p     Ionization  brems     pair     photonuc  Radloss    dE/dx   CSDA Range  delta   beta
    [MeV]    [MeV/c]  -----------------------[MeV cm^2/g]------------------------  [g/cm^2]
  1.000E+05 1.018E+05 1.775E+00 6.260E-04 1.062E-02 7.755E-03 1.900E-02 1.794E+00 2.787E+04  3.1496 0.99985
  1.122E+05 1.140E+05 1.795E+00 7.251E-04 1.273E-02 8.718E-03 2.217E-02 1.817E+00 3.462E+04  3.3170 0.99988
  1.259E+05 1.277E+05 1.814E+00 8.394E-04 1.521E-02 9.749E-03 2.579E-02 1.840E+00 4.211E+04  3.4881 0.99990
  1.413E+05 1.430E+05 1.834E+00 9.712E-04 1.812E-02 1.091E-02 2.999E-02 1.864E+00 5.041E+04  3.6628 0.99992
  1.585E+05 1.603E+05 1.853E+00 1.123E-03 2.153E-02 1.219E-02 3.485E-02 1.887E+00 5.960E+04  3.8409 0.99994
  1.778E+05 1.796E+05 1.872E+00 1.298E-03 2.552E-02 1.362E-02 4.044E-02 1.912E+00 6.978E+04  4.0224 0.99995
  1.995E+05 2.013E+05 1.890E+00 1.499E-03 3.018E-02 1.525E-02 4.693E-02 1.937E+00 8.105E+04  4.2073 0.99996
  2.239E+05 2.256E+05 1.909E+00 1.731E-03 3.561E-02 1.702E-02 5.436E-02 1.963E+00 9.354E+04  4.3953 0.99997
  2.512E+05 2.530E+05 1.927E+00 1.997E-03 4.193E-02 1.899E-02 6.292E-02 1.990E+00 1.074E+05  4.5865 0.99998
  2.818E+05 2.836E+05 1.945E+00 2.303E-03 4.926E-02 2.121E-02 7.277E-02 2.018E+00 1.226E+05  4.7806 0.99998
  3.162E+05 3.180E+05 1.964E+00 2.655E-03 5.775E-02 2.371E-02 8.411E-02 2.048E+00 1.396E+05  4.9776 0.99998
  3.548E+05 3.566E+05 1.981E+00 3.058E-03 6.758E-02 2.650E-02 9.713E-02 2.078E+00 1.583E+05  5.1774 0.99999
  3.981E+05 3.999E+05 1.999E+00 3.521E-03 7.893E-02 2.961E-02 1.121E-01 2.111E+00 1.789E+05  5.3799 0.99999
  4.467E+05 4.485E+05 2.016E+00 4.052E-03 9.202E-02 3.308E-02 1.291E-01 2.146E+00 2.018E+05  5.5850 0.99999
  5.012E+05 5.030E+05 2.034E+00 4.661E-03 1.071E-01 3.697E-02 1.487E-01 2.182E+00 2.270E+05  5.7925 0.99999
  5.623E+05 5.641E+05 2.051E+00 5.358E-03 1.244E-01 4.117E-02 1.710E-01 2.222E+00 2.547E+05  6.0024 1.00000
  6.310E+05 6.327E+05 2.068E+00 6.157E-03 1.444E-01 4.590E-02 1.964E-01 2.264E+00 2.853E+05  6.2146 1.00000
  7.079E+05 7.097E+05 2.084E+00 7.072E-03 1.672E-01 5.121E-02 2.255E-01 2.310E+00 3.190E+05  6.4289 1.00000
  7.943E+05 7.961E+05 2.101E+00 8.119E-03 1.934E-01 5.721E-02 2.587E-01 2.360E+00 3.560E+05  6.6452 1.00000
  8.913E+05 8.930E+05 2.117E+00 9.317E-03 2.234E-01 6.397E-02 2.966E-01 2.414E+00 3.966E+05  6.8635 1.00000
  1.000E+06 1.002E+06 2.133E+00 1.069E-02 2.576E-01 7.160E-02 3.399E-01 2.473E+00 4.411E+05  7.0836 1.00000
  1.122E+06 1.124E+06 2.149E+00 1.225E-02 2.967E-01 8.022E-02 3.892E-01 2.539E+00 4.898E+05  7.3053 1.00000
  1.259E+06 1.261E+06 2.165E+00 1.404E-02 3.413E-01 8.997E-02 4.453E-01 2.611E+00 5.430E+05  7.5286 1.00000
  1.413E+06 1.414E+06 2.181E+00 1.609E-02 3.921E-01 1.010E-01 5.092E-01 2.690E+00 6.010E+05  7.7533 1.00000
  1.585E+06 1.587E+06 2.196E+00 1.842E-02 4.500E-01 1.135E-01 5.819E-01 2.778E+00 6.640E+05  7.9792 1.00000
  1.778E+06 1.780E+06 2.211E+00 2.109E-02 5.158E-01 1.277E-01 6.645E-01 2.876E+00 7.325E+05  8.2063 1.00000
  1.995E+06 1.997E+06 2.226E+00 2.413E-02 5.905E-01 1.437E-01 7.584E-01 2.985E+00 8.065E+05  8.4344 1.00000
  2.239E+06 2.240E+06 2.241E+00 2.760E-02 6.754E-01 1.619E-01 8.650E-01 3.106E+00 8.865E+05  8.6633 1.00000
  2.512E+06 2.514E+06 2.256E+00 3.156E-02 7.717E-01 1.826E-01 9.859E-01 3.242E+00 9.726E+05  8.8929 1.00000
  2.818E+06 2.820E+06 2.271E+00 3.607E-02 8.808E-01 2.061E-01 1.123E+00 3.394E+00 1.065E+06  9.1228 1.00000
  3.162E+06 3.164E+06 2.285E+00 4.121E-02 1.004E+00 2.328E-01 1.278E+00 3.563E+00 1.164E+06  9.3530 1.00000
  3.548E+06 3.550E+06 2.299E+00 4.707E-02 1.144E+00 2.632E-01 1.454E+00 3.754E+00 1.269E+06  9.5831 1.00000
  3.981E+06 3.983E+06 2.313E+00 5.374E-02 1.302E+00 2.977E-01 1.654E+00 3.967E+00 1.382E+06  9.8133 1.00000
  4.467E+06 4.469E+06 2.327E+00 6.134E-02 1.481E+00 3.369E-01 1.880E+00 4.207E+00 1.501E+06 10.0434 1.00000
  5.012E+06 5.014E+06 2.341E+00 6.999E-02 1.683E+00 3.816E-01 2.135E+00 4.476E+00 1.626E+06 10.2736 1.00000
  5.623E+06 5.625E+06 2.355E+00 7.983E-02 1.912E+00 4.324E-01 2.424E+00 4.779E+00 1.759E+06 10.5038 1.00000
  6.310E+06 6.311E+06 2.369E+00 9.102E-02 2.169E+00 4.903E-01 2.750E+00 5.119E+00 1.897E+06 10.7340 1.00000
  7.079E+06 7.081E+06 2.382E+00 1.037E-01 2.460E+00 5.562E-01 3.120E+00 5.502E+00 2.043E+06 10.9642 1.00000
  7.943E+06 7.945E+06 2.395E+00 1.182E-01 2.787E+00 6.313E-01 3.537E+00 5.932E+00 2.194E+06 11.1944 1.00000
  8.913E+06 8.914E+06 2.409E+00 1.347E-01 3.156E+00 7.168E-01 4.008E+00 6.416E+00 2.351E+06 11.4246 1.00000
  1.000E+07 1.000E+07 2.422E+00 1.533E-01 3.572E+00 8.143E-01 4.540E+00 6.962E+00 2.514E+06 11.6548 1.00000
  1.122E+07 1.122E+07 2.435E+00 1.745E-01 4.041E+00 9.254E-01 5.141E+00 7.575E+00 2.682E+06 11.8850 1.00000
  1.259E+07 1.259E+07 2.447E+00 1.986E-01 4.568E+00 1.052E+00 5.819E+00 8.266E+00 2.855E+06 12.1152 1.00000
  1.413E+07 1.413E+07 2.460E+00 2.260E-01 5.162E+00 1.197E+00 6.584E+00 9.044E+00 3.033E+06 12.3455 1.00000
  1.585E+07 1.585E+07 2.473E+00 2.570E-01 5.830E+00 1.361E+00 7.448E+00 9.921E+00 3.215E+06 12.5757 1.00000
  1.778E+07 1.778E+07 2.485E+00 2.922E-01 6.581E+00 1.549E+00 8.423E+00 1.091E+01 3.401E+06 12.8059 1.00000
  1.995E+07 1.995E+07 2.498E+00 3.321E-01 7.427E+00 1.763E+00 9.522E+00 1.202E+01 3.591E+06 13.0362 1.00000
  2.239E+07 2.239E+07 2.510E+00 3.773E-01 8.377E+00 2.008E+00 1.076E+01 1.327E+01 3.784E+06 13.2664 1.00000
  2.512E+07 2.512E+07 2.523E+00 4.285E-01 9.446E+00 2.286E+00 1.216E+01 1.468E+01 3.980E+06 13.4966 1.00000
  2.818E+07 2.819E+07 2.535E+00 4.866E-01 1.065E+01 2.604E+00 1.374E+01 1.627E+01 4.179E+06 13.7269 1.00000
  3.162E+07 3.162E+07 2.547E+00 5.523E-01 1.200E+01 2.967E+00 1.552E+01 1.806E+01 4.379E+06 13.9571 1.00000
  3.548E+07 3.548E+07 2.559E+00 6.268E-01 1.351E+01 3.381E+00 1.752E+01 2.008E+01 4.582E+06 14.1874 1.00000
  3.981E+07 3.981E+07 2.571E+00 7.110E-01 1.522E+01 3.854E+00 1.978E+01 2.236E+01 4.787E+06 14.4176 1.00000
  4.467E+07 4.467E+07 2.584E+00 8.064E-01 1.713E+01 4.394E+00 2.233E+01 2.492E+01 4.993E+06 14.6479 1.00000
  5.012E+07 5.012E+07 2.596E+00 9.142E-01 1.928E+01 5.010E+00 2.521E+01 2.780E+01 5.200E+06 14.8781 1.00000
  5.623E+07 5.624E+07 2.608E+00 1.036E+00 2.170E+01 5.713E+00 2.845E+01 3.106E+01 5.409E+06 15.1084 1.00000
  6.310E+07 6.310E+07 2.620E+00 1.174E+00 2.441E+01 6.515E+00 3.210E+01 3.472E+01 5.618E+06 15.3386 1.00000
  7.079E+07 7.080E+07 2.632E+00 1.330E+00 2.746E+01 7.431E+00 3.622E+01 3.885E+01 5.828E+06 15.5689 1.00000
  7.943E+07 7.943E+07 2.644E+00 1.506E+00 3.088E+01 8.478E+00 4.086E+01 4.351E+01 6.039E+06 15.7991 1.00000
  8.913E+07 8.913E+07 2.656E+00 1.704E+00 3.472E+01 9.672E+00 4.610E+01 4.876E+01 6.249E+06 16.0294 1.00000
  1.000E+08 1.000E+08 2.669E+00 1.929E+00 3.903E+01 1.104E+01 5.200E+01 5.467E+01 6.460E+06 16.2596 1.00000
  1.122E+08 1.122E+08 2.681E+00 2.182E+00 4.388E+01 1.259E+01 5.865E+01 6.133E+01 6.671E+06 16.4899 1.00000
  1.259E+08 1.259E+08 2.693E+00 2.468E+00 4.931E+01 1.437E+01 6.615E+01 6.885E+01 6.882E+06 16.7201 1.00000
  1.413E+08 1.413E+08 2.705E+00 2.790E+00 5.541E+01 1.641E+01 7.461E+01 7.731E+01 7.093E+06 16.9504 1.00000
  1.585E+08 1.585E+08 2.718E+00 3.154E+00 6.226E+01 1.873E+01 8.414E+01 8.686E+01 7.304E+06 17.1807 1.00000
  1.778E+08 1.778E+08 2.730E+00 3.564E+00 6.994E+01 2.138E+01 9.489E+01 9.762E+01 7.514E+06 17.4109 1.00000
  1.995E+08 1.995E+08 2.742E+00 4.027E+00 7.857E+01 2.441E+01 1.070E+02 1.097E+02 7.724E+06 17.6412 1.00000
  2.239E+08 2.239E+08 2.755E+00 4.548E+00 8.825E+01 2.787E+01 1.207E+02 1.234E+02 7.934E+06 17.8714 1.00000
  2.512E+08 2.512E+08 2.767E+00 5.135E+00 9.912E+01 3.182E+01 1.361E+02 1.388E+02 8.143E+06 18.1017 1.00000
  2.818E+08 2.818E+08 2.780E+00 5.796E+00 1.113E+02 3.634E+01 1.535E+02 1.562E+02 8.351E+06 18.3319 1.00000
  3.162E+08 3.162E+08 2.792E+00 6.541E+00 1.250E+02 4.150E+01 1.730E+02 1.758E+02 8.559E+06 18.5622 1.00000
  3.548E+08 3.548E+08 2.805E+00 7.380E+00 1.404E+02 4.740E+01 1.951E+02 1.979E+02 8.766E+06 18.7925 1.00000
  3.981E+08 3.981E+08 2.818E+00 8.324E+00 1.576E+02 5.414E+01 2.201E+02 2.229E+02 8.973E+06 19.0227 1.00000
  4.467E+08 4.467E+08 2.831E+00 9.386E+00 1.769E+02 6.184E+01 2.482E+02 2.510E+02 9.179E+06 19.2530 1.00000
  5.012E+08 5.012E+08 2.843E+00 1.058E+01 1.986E+02 7.064E+01 2.799E+02 2.827E+02 9.384E+06 19.4832 1.00000
  5.623E+08 5.623E+08 2.856E+00 1.193E+01 2.230E+02 8.070E+01 3.156E+02 3.185E+02 9.588E+06 19.7135 1.00000
  6.310E+08 6.310E+08 2.869E+00 1.344E+01 2.503E+02 9.220E+01 3.560E+02 3.589E+02 9.791E+06 19.9437 1.00000
  7.079E+08 7.079E+08 2.882E+00 1.514E+01 2.810E+02 1.053E+02 4.015E+02 4.044E+02 9.994E+06 20.1740 1.00000
  7.943E+08 7.943E+08 2.895E+00 1.706E+01 3.154E+02 1.204E+02 4.529E+02 4.557E+02 1.020E+07 20.4043 1.00000
  8.913E+08 8.913E+08 2.909E+00 1.921E+01 3.540E+02 1.375E+02 5.108E+02 5.137E+02 1.040E+07 20.6345 1.00000
  1.000E+09 1.000E+09 2.922E+00 2.163E+01 3.974E+02 1.572E+02 5.762E+02 5.791E+02 1.060E+07 20.8648 1.00000
  1.122E+09 1.122E+09 2.935E+00 2.435E+01 4.460E+02 1.796E+02 6.500E+02 6.529E+02 1.079E+07 21.0950 1.00000
  1.259E+09 1.259E+09 2.949E+00 2.740E+01 5.006E+02 2.053E+02 7.333E+02 7.362E+02 1.099E+07 21.3253 1.00000
  1.413E+09 1.413E+09 2.962E+00 3.084E+01 5.618E+02 2.346E+02 8.272E+02 8.302E+02 1.119E+07 21.5555 1.00000
  1.585E+09 1.585E+09 2.976E+00 3.470E+01 6.305E+02 2.682E+02 9.334E+02 9.363E+02 1.138E+07 21.7858 1.00000
  1.778E+09 1.778E+09 2.989E+00 3.903E+01 7.075E+02 3.066E+02 1.053E+03 1.056E+03 1.158E+07 22.0161 1.00000
  1.995E+09 1.995E+09 3.003E+00 4.390E+01 7.940E+02 3.504E+02 1.188E+03 1.191E+03 1.177E+07 22.2463 1.00000
  2.239E+09 2.239E+09 3.017E+00 4.937E+01 8.911E+02 4.006E+02 1.341E+03 1.344E+03 1.197E+07 22.4766 1.00000
  2.512E+09 2.512E+09 3.030E+00 5.552E+01 9.999E+02 4.580E+02 1.513E+03 1.516E+03 1.216E+07 22.7068 1.00000
  2.818E+09 2.818E+09 3.044E+00 6.242E+01 1.122E+03 5.236E+02 1.708E+03 1.711E+03 1.235E+07 22.9371 1.00000
  3.162E+09 3.162E+09 3.058E+00 7.017E+01 1.259E+03 5.987E+02 1.928E+03 1.931E+03 1.254E+07 23.1674 1.00000
  3.548E+09 3.548E+09 3.072E+00 7.887E+01 1.413E+03 6.846E+02 2.176E+03 2.180E+03 1.273E+07 23.3976 1.00000
  3.981E+09 3.981E+09 3.086E+00 8.864E+01 1.586E+03 7.828E+02 2.457E+03 2.460E+03 1.291E+07 23.6279 1.00000
  4.467E+09 4.467E+09 3.101E+00 9.961E+01 1.779E+03 8.952E+02 2.774E+03 2.777E+03 1.310E+07 23.8581 1.00000
  5.012E+09 5.012E+09 3.115E+00 1.119E+02 1.996E+03 1.024E+03 3.132E+03 3.135E+03 1.329E+07 24.0884 1.00000
  5.623E+09 5.623E+09 3.129E+00 1.258E+02 2.240E+03 1.171E+03 3.537E+03 3.540E+03 1.347E+07 24.3186 1.00000
  6.310E+09 6.310E+09 3.144E+00 1.413E+02 2.514E+03 1.339E+03 3.994E+03 3.997E+03 1.365E+07 24.5489 1.00000
  7.079E+09 7.079E+09 3.158E+00 1.587E+02 2.821E+03 1.532E+03 4.511E+03 4.514E+03 1.383E+07 24.7792 1.00000
  7.943E+09 7.943E+09 3.173E+00 1.783E+02 3.165E+03 1.752E+03 5.095E+03 5.098E+03 1.401E+07 25.0094 1.00000
  8.913E+09 8.913E+09 3.188E+00 2.002E+02 3.551E+03 2.004E+03 5.756E+03 5.759E+03 1.419E+07 25.2397 1.00000
  1.000E+10 1.000E+10 3.202E+00 2.249E+02 3.985E+03 2.293E+03 6.502E+03 6.506E+03 1.437E+07 25.4699 1.00000
  1.122E+10 1.122E+10 3.217E+00 2.525E+02 4.471E+03 2.623E+03 7.347E+03 7.350E+03 1.455E+07 25.7002 1.00000
  1.259E+10 1.259E+10 3.232E+00 2.835E+02 5.017E+03 3.001E+03 8.301E+03 8.305E+03 1.472E+07 25.9305 1.00000
  1.413E+10 1.413E+10 3.247E+00 3.184E+02 5.629E+03 3.434E+03 9.381E+03 9.384E+03 1.490E+07 26.1607 1.00000
  1.585E+10 1.585E+10 3.262E+00 3.575E+02 6.316E+03 3.929E+03 1.060E+04 1.061E+04 1.507E+07 26.3910 1.00000
  1.778E+10 1.778E+10 3.278E+00 4.014E+02 7.086E+03 4.496E+03 1.198E+04 1.199E+04 1.524E+07 26.6212 1.00000
  1.995E+10 1.995E+10 3.293E+00 4.506E+02 7.951E+03 5.145E+03 1.355E+04 1.355E+04 1.541E+07 26.8515 1.00000
  2.239E+10 2.239E+10 3.308E+00 5.059E+02 8.921E+03 5.888E+03 1.532E+04 1.532E+04 1.558E+07 27.0818 1.00000
  2.512E+10 2.512E+10 3.324E+00 5.679E+02 1.001E+04 6.739E+03 1.732E+04 1.732E+04 1.575E+07 27.3120 1.00000
  2.818E+10 2.818E+10 3.339E+00 6.375E+02 1.123E+04 7.713E+03 1.958E+04 1.959E+04 1.592E+07 27.5423 1.00000
  3.162E+10 3.162E+10 3.355E+00 7.155E+02 1.260E+04 8.828E+03 2.215E+04 2.215E+04 1.608E+07 27.7725 1.00000
  3.548E+10 3.548E+10 3.371E+00 8.032E+02 1.414E+04 1.011E+04 2.505E+04 2.505E+04 1.625E+07 28.0028 1.00000
  3.981E+10 3.981E+10 3.386E+00 9.015E+02 1.586E+04 1.157E+04 2.833E+04 2.834E+04 1.641E+07 28.2330 1.00000
  4.467E+10 4.467E+10 3.402E+00 1.012E+03 1.780E+04 1.324E+04 3.205E+04 3.206E+04 1.657E+07 28.4633 1.00000
  5.012E+10 5.012E+10 3.418E+00 1.136E+03 1.997E+04 1.516E+04 3.627E+04 3.627E+04 1.673E+07 28.6936 1.00000
  5.623E+10 5.623E+10 3.434E+00 1.275E+03 2.241E+04 1.736E+04 4.104E+04 4.104E+04 1.689E+07 28.9238 1.00000
  6.310E+10 6.310E+10 3.451E+00 1.430E+03 2.514E+04 1.987E+04 4.644E+04 4.645E+04 1.705E+07 29.1541 1.00000
  7.079E+10 7.079E+10 3.467E+00 1.605E+03 2.821E+04 2.275E+04 5.257E+04 5.257E+04 1.720E+07 29.3843 1.00000
  7.943E+10 7.943E+10 3.483E+00 1.802E+03 3.165E+04 2.605E+04 5.951E+04 5.951E+04 1.736E+07 29.6146 1.00000
  8.913E+10 8.913E+10 3.500E+00 2.022E+03 3.551E+04 2.984E+04 6.737E+04 6.737E+04 1.751E+07 29.8449 1.00000
  1.000E+11 1.000E+11 3.516E+00 2.269E+03 3.984E+04 3.417E+04 7.628E+04 7.628E+04 1.766E+07 30.0751 1.00000
  1.122E+11 1.122E+11 3.533E+00 2.546E+03 4.471E+04 3.913E+04 8.638E+04 8.638E+04 1.781E+07 30.3054 1.00000
  1.259E+11 1.259E+11 3.550E+00 2.857E+03 5.016E+04 4.482E+04 9.783E+04 9.784E+04 1.796E+07 30.5356 1.00000
  1.413E+11 1.413E+11 3.566E+00 3.207E+03 5.628E+04 5.133E+04 1.108E+05 1.108E+05 1.811E+07 30.7659 1.00000
  1.585E+11 1.585E+11 3.583E+00 3.598E+03 6.314E+04 5.879E+04 1.255E+05 1.255E+05 1.826E+07 30.9961 1.00000
  1.778E+11 1.778E+11 3.600E+00 4.038E+03 7.085E+04 6.735E+04 1.422E+05 1.422E+05 1.840E+07 31.2264 1.00000
  1.995E+11 1.995E+11 3.617E+00 4.531E+03 7.949E+04 7.715E+04 1.612E+05 1.612E+05 1.855E+07 31.4567 1.00000
  2.239E+11 2.239E+11 3.635E+00 5.084E+03 8.919E+04 8.838E+04 1.827E+05 1.827E+05 1.869E+07 31.6869 1.00000
  2.512E+11 2.512E+11 3.652E+00 5.705E+03 1.001E+05 1.013E+05 2.070E+05 2.070E+05 1.883E+07 31.9172 1.00000
  2.818E+11 2.818E+11 3.669E+00 6.402E+03 1.123E+05 1.160E+05 2.347E+05 2.347E+05 1.897E+07 32.1474 1.00000
  3.162E+11 3.162E+11 3.687E+00 7.183E+03 1.260E+05 1.329E+05 2.661E+05 2.661E+05 1.911E+07 32.3777 1.00000
  3.548E+11 3.548E+11 3.704E+00 8.060E+03 1.413E+05 1.523E+05 3.017E+05 3.017E+05 1.924E+07 32.6080 1.00000
  3.981E+11 3.981E+11 3.722E+00 9.044E+03 1.586E+05 1.745E+05 3.421E+05 3.422E+05 1.938E+07 32.8382 1.00000
  4.467E+11 4.467E+11 3.740E+00 1.015E+04 1.779E+05 2.000E+05 3.881E+05 3.881E+05 1.951E+07 33.0685 1.00000
  5.012E+11 5.012E+11 3.758E+00 1.139E+04 1.996E+05 2.292E+05 4.402E+05 4.402E+05 1.964E+07 33.2987 1.00000
  5.623E+11 5.623E+11 3.776E+00 1.278E+04 2.240E+05 2.627E+05 4.994E+05 4.994E+05 1.977E+07 33.5290 1.00000
  6.310E+11 6.310E+11 3.794E+00 1.434E+04 2.513E+05 3.011E+05 5.667E+05 5.667E+05 1.990E+07 33.7592 1.00000
  7.079E+11 7.079E+11 3.812E+00 1.609E+04 2.819E+05 3.451E+05 6.431E+05 6.431E+05 2.003E+07 33.9895 1.00000
  7.943E+11 7.943E+11 3.830E+00 1.805E+04 3.163E+05 3.956E+05 7.299E+05 7.300E+05 2.016E+07 34.2198 1.00000
  8.913E+11 8.913E+11 3.849E+00 2.025E+04 3.549E+05 4.534E+05 8.286E+05 8.286E+05 2.028E+07 34.4500 1.00000
  1.000E+12 1.000E+12 3.867E+00 2.272E+04 3.982E+05 5.198E+05 9.407E+05 9.407E+05 2.041E+07 34.6803 1.00000
  1.122E+12 1.122E+12 3.886E+00 2.550E+04 4.468E+05 5.959E+05 1.068E+06 1.068E+06 2.053E+07 34.9105 1.00000
  1.259E+12 1.259E+12 3.905E+00 2.861E+04 5.013E+05 6.832E+05 1.213E+06 1.213E+06 2.065E+07 35.1408 1.00000
  1.413E+12 1.413E+12 3.923E+00 3.210E+04 5.624E+05 7.833E+05 1.378E+06 1.378E+06 2.077E+07 35.3711 1.00000
  1.585E+12 1.585E+12 3.942E+00 3.602E+04 6.310E+05 8.982E+05 1.565E+06 1.565E+06 2.088E+07 35.6013 1.00000
  1.778E+12 1.778E+12 3.961E+00 4.041E+04 7.080E+05 1.030E+06 1.778E+06 1.778E+06 2.100E+07 35.8316 1.00000
  1.995E+12 1.995E+12 3.980E+00 4.535E+04 7.943E+05 1.181E+06 2.021E+06 2.021E+06 2.112E+07 36.0618 1.00000
  2.239E+12 2.239E+12 4.000E+00 5.088E+04 8.912E+05 1.354E+06 2.296E+06 2.296E+06 2.123E+07 36.2921 1.00000
  2.512E+12 2.512E+12 4.019E+00 5.709E+04 9.999E+05 1.553E+06 2.610E+06 2.610E+06 2.134E+07 36.5223 1.00000
  2.818E+12 2.818E+12 4.038E+00 6.406E+04 1.122E+06 1.781E+06 2.967E+06 2.967E+06 2.145E+07 36.7526 1.00000
  3.162E+12 3.162E+12 4.058E+00 7.187E+04 1.259E+06 2.043E+06 3.374E+06 3.374E+06 2.156E+07 36.9829 1.00000
  3.548E+12 3.548E+12 4.078E+00 8.064E+04 1.412E+06 2.344E+06 3.836E+06 3.836E+06 2.167E+07 37.2131 1.00000
  3.981E+12 3.981E+12 4.097E+00 9.048E+04 1.585E+06 2.688E+06 4.363E+06 4.363E+06 2.177E+07 37.4434 1.00000
  4.467E+12 4.467E+12 4.117E+00 1.015E+05 1.778E+06 3.084E+06 4.963E+06 4.963E+06 2.188E+07 37.6736 1.00000
  5.012E+12 5.012E+12 4.137E+00 1.139E+05 1.995E+06 3.538E+06 5.646E+06 5.646E+06 2.198E+07 37.9039 1.00000
  5.623E+12 5.623E+12 4.157E+00 1.278E+05 2.238E+06 4.058E+06 6.424E+06 6.424E+06 2.208E+07 38.1342 1.00000
  6.310E+12 6.310E+12 4.178E+00 1.434E+05 2.511E+06 4.656E+06 7.310E+06 7.310E+06 2.218E+07 38.3644 1.00000
  7.079E+12 7.079E+12 4.198E+00 1.609E+05 2.817E+06 5.342E+06 8.320E+06 8.320E+06 2.228E+07 38.5947 1.00000
  7.943E+12 7.943E+12 4.218E+00 1.805E+05 3.161E+06 6.130E+06 9.471E+06 9.471E+06 2.238E+07 38.8249 1.00000
  8.913E+12 8.913E+12 4.239E+00 2.026E+05 3.546E+06 7.034E+06 1.078E+07 1.078E+07 2.248E+07 39.0552 1.00000
  1.000E+13 1.000E+13 4.260E+00 2.273E+05 3.979E+06 8.071E+06 1.228E+07 1.228E+07 2.257E+07 39.2855 1.00000
  1.122E+13 1.122E+13 4.280E+00 2.550E+05 4.464E+06 9.262E+06 1.398E+07 1.398E+07 2.266E+07 39.5157 1.00000
  1.259E+13 1.259E+13 4.301E+00 2.861E+05 5.008E+06 1.063E+07 1.592E+07 1.592E+07 2.276E+07 39.7460 1.00000
  1.413E+13 1.413E+13 4.322E+00 3.211E+05 5.619E+06 1.220E+07 1.814E+07 1.814E+07 2.285E+07 39.9762 1.00000
  1.585E+13 1.585E+13 4.343E+00 3.602E+05 6.304E+06 1.400E+07 2.067E+07 2.067E+07 2.294E+07 40.2065 1.00000
  1.778E+13 1.778E+13 4.364E+00 4.042E+05 7.073E+06 1.607E+07 2.355E+07 2.355E+07 2.302E+07 40.4367 1.00000
  1.995E+13 1.995E+13 4.386E+00 4.535E+05 7.936E+06 1.845E+07 2.684E+07 2.684E+07 2.311E+07 40.6670 1.00000
  2.239E+13 2.239E+13 4.407E+00 5.088E+05 8.904E+06 2.118E+07 3.059E+07 3.059E+07 2.320E+07 40.8973 1.00000
  2.512E+13 2.512E+13 4.429E+00 5.709E+05 9.990E+06 2.431E+07 3.487E+07 3.487E+07 2.328E+07 41.1275 1.00000
  2.818E+13 2.818E+13 4.450E+00 6.406E+05 1.121E+07 2.791E+07 3.976E+07 3.976E+07 2.336E+07 41.3578 1.00000
  3.162E+13 3.162E+13 4.472E+00 7.188E+05 1.258E+07 3.204E+07 4.533E+07 4.533E+07 2.344E+07 41.5880 1.00000
  3.548E+13 3.548E+13 4.494E+00 8.065E+05 1.411E+07 3.679E+07 5.170E+07 5.170E+07 2.352E+07 41.8183 1.00000
  3.981E+13 3.981E+13 4.516E+00 9.049E+05 1.583E+07 4.224E+07 5.897E+07 5.897E+07 2.360E+07 42.0486 1.00000
  4.467E+13 4.467E+13 4.538E+00 1.015E+06 1.776E+07 4.850E+07 6.727E+07 6.727E+07 2.368E+07 42.2788 1.00000
  5.012E+13 5.012E+13 4.561E+00 1.139E+06 1.993E+07 5.569E+07 7.675E+07 7.675E+07 2.375E+07 42.5091 1.00000
  5.623E+13 5.623E+13 4.583E+00 1.278E+06 2.236E+07 6.395E+07 8.758E+07 8.758E+07 2.383E+07 42.7393 1.00000
  6.310E+13 6.310E+13 4.606E+00 1.434E+06 2.508E+07 7.344E+07 9.996E+07 9.996E+07 2.390E+07 42.9696 1.00000
  7.079E+13 7.079E+13 4.628E+00 1.609E+06 2.814E+07 8.434E+07 1.141E+08 1.141E+08 2.397E+07 43.1998 1.00000
  7.943E+13 7.943E+13 4.651E+00 1.805E+06 3.157E+07 9.687E+07 1.302E+08 1.302E+08 2.405E+07 43.4301 1.00000
  8.913E+13 8.913E+13 4.674E+00 2.026E+06 3.542E+07 1.113E+08 1.487E+08 1.487E+08 2.412E+07 43.6604 1.00000
