 Incident particle is a Tau with M = 1776.82000 MeV
 Index = 0: Alanine
      Absorber with <Z/A> = 0.53870
 Sternheimer coef:  a     k=m_s   x_0    x_1    I[eV]   Cbar  delta0
                 0.1148  3.3526  0.1354  2.6336   71.9  3.0965 0.00

 *** Table generated with PUMAS v1.00 ***

      T         p     Ionization  brems     pair     photonuc  Radloss    dE/dx   CSDA Range  delta   beta
    [MeV]    [MeV/c]  -----------------------[MeV cm^2/g]------------------------  [g/cm^2]
  1.000E+05 1.018E+05 2.348E+00 1.306E-04 2.031E-03 8.387E-03 1.055E-02 2.358E+00 2.120E+04  5.0727 0.99985
  1.122E+05 1.140E+05 2.368E+00 1.509E-04 2.454E-03 9.475E-03 1.208E-02 2.380E+00 2.635E+04  5.2862 0.99988
  1.259E+05 1.277E+05 2.388E+00 1.742E-04 2.954E-03 1.065E-02 1.378E-02 2.402E+00 3.208E+04  5.5019 0.99990
  1.413E+05 1.430E+05 2.409E+00 2.010E-04 3.542E-03 1.197E-02 1.571E-02 2.424E+00 3.844E+04  5.7194 0.99992
  1.585E+05 1.603E+05 2.429E+00 2.318E-04 4.235E-03 1.345E-02 1.791E-02 2.447E+00 4.552E+04  5.9387 0.99994
  1.778E+05 1.796E+05 2.449E+00 2.673E-04 5.048E-03 1.510E-02 2.041E-02 2.469E+00 5.339E+04  6.1595 0.99995
  1.995E+05 2.013E+05 2.469E+00 3.080E-04 6.000E-03 1.698E-02 2.329E-02 2.492E+00 6.214E+04  6.3818 0.99996
  2.239E+05 2.256E+05 2.489E+00 3.548E-04 7.114E-03 1.904E-02 2.651E-02 2.515E+00 7.186E+04  6.6054 0.99997
  2.512E+05 2.530E+05 2.509E+00 4.086E-04 8.413E-03 2.136E-02 3.018E-02 2.539E+00 8.267E+04  6.8301 0.99998
  2.818E+05 2.836E+05 2.529E+00 4.702E-04 9.927E-03 2.396E-02 3.436E-02 2.563E+00 9.469E+04  7.0559 0.99998
  3.162E+05 3.180E+05 2.548E+00 5.410E-04 1.169E-02 2.691E-02 3.913E-02 2.587E+00 1.080E+05  7.2825 0.99998
  3.548E+05 3.566E+05 2.568E+00 6.221E-04 1.373E-02 3.021E-02 4.457E-02 2.613E+00 1.229E+05  7.5098 0.99999
  3.981E+05 3.999E+05 2.588E+00 7.152E-04 1.610E-02 3.391E-02 5.072E-02 2.638E+00 1.394E+05  7.7378 0.99999
  4.467E+05 4.485E+05 2.607E+00 8.218E-04 1.884E-02 3.805E-02 5.772E-02 2.665E+00 1.577E+05  7.9663 0.99999
  5.012E+05 5.030E+05 2.627E+00 9.440E-04 2.201E-02 4.272E-02 6.567E-02 2.693E+00 1.780E+05  8.1953 0.99999
  5.623E+05 5.641E+05 2.646E+00 1.084E-03 2.567E-02 4.777E-02 7.453E-02 2.721E+00 2.006E+05  8.4245 1.00000
  6.310E+05 6.327E+05 2.666E+00 1.244E-03 2.989E-02 5.347E-02 8.461E-02 2.750E+00 2.257E+05  8.6540 1.00000
  7.079E+05 7.097E+05 2.685E+00 1.428E-03 3.475E-02 5.991E-02 9.609E-02 2.781E+00 2.535E+05  8.8836 1.00000
  7.943E+05 7.961E+05 2.704E+00 1.638E-03 4.034E-02 6.718E-02 1.092E-01 2.814E+00 2.844E+05  9.1133 1.00000
  8.913E+05 8.930E+05 2.724E+00 1.879E-03 4.676E-02 7.540E-02 1.240E-01 2.848E+00 3.187E+05  9.3431 1.00000
  1.000E+06 1.002E+06 2.743E+00 2.154E-03 5.412E-02 8.470E-02 1.410E-01 2.884E+00 3.566E+05  9.5729 1.00000
  1.122E+06 1.124E+06 2.762E+00 2.468E-03 6.257E-02 9.522E-02 1.603E-01 2.922E+00 3.987E+05  9.8028 1.00000
  1.259E+06 1.261E+06 2.781E+00 2.828E-03 7.223E-02 1.071E-01 1.822E-01 2.963E+00 4.452E+05 10.0327 1.00000
  1.413E+06 1.414E+06 2.799E+00 3.240E-03 8.329E-02 1.207E-01 2.072E-01 3.007E+00 4.967E+05 10.2626 1.00000
  1.585E+06 1.587E+06 2.818E+00 3.710E-03 9.592E-02 1.360E-01 2.356E-01 3.054E+00 5.535E+05 10.4926 1.00000
  1.778E+06 1.780E+06 2.837E+00 4.248E-03 1.103E-01 1.534E-01 2.680E-01 3.105E+00 6.163E+05 10.7226 1.00000
  1.995E+06 1.997E+06 2.855E+00 4.862E-03 1.268E-01 1.731E-01 3.048E-01 3.160E+00 6.856E+05 10.9527 1.00000
  2.239E+06 2.240E+06 2.873E+00 5.564E-03 1.455E-01 1.956E-01 3.466E-01 3.220E+00 7.620E+05 11.1828 1.00000
  2.512E+06 2.514E+06 2.891E+00 6.365E-03 1.668E-01 2.210E-01 3.942E-01 3.286E+00 8.459E+05 11.4128 1.00000
  2.818E+06 2.820E+06 2.909E+00 7.280E-03 1.911E-01 2.500E-01 4.484E-01 3.358E+00 9.382E+05 11.6429 1.00000
  3.162E+06 3.164E+06 2.927E+00 8.324E-03 2.186E-01 2.830E-01 5.099E-01 3.437E+00 1.039E+06 11.8731 1.00000
  3.548E+06 3.550E+06 2.945E+00 9.516E-03 2.499E-01 3.204E-01 5.799E-01 3.525E+00 1.150E+06 12.1032 1.00000
  3.981E+06 3.983E+06 2.962E+00 1.088E-02 2.854E-01 3.631E-01 6.593E-01 3.622E+00 1.272E+06 12.3334 1.00000
  4.467E+06 4.469E+06 2.980E+00 1.243E-02 3.257E-01 4.116E-01 7.497E-01 3.729E+00 1.404E+06 12.5635 1.00000
  5.012E+06 5.014E+06 2.997E+00 1.420E-02 3.713E-01 4.668E-01 8.523E-01 3.849E+00 1.548E+06 12.7937 1.00000
  5.623E+06 5.625E+06 3.014E+00 1.621E-02 4.229E-01 5.297E-01 9.688E-01 3.982E+00 1.704E+06 13.0239 1.00000
  6.310E+06 6.311E+06 3.030E+00 1.851E-02 4.813E-01 6.014E-01 1.101E+00 4.132E+00 1.873E+06 13.2541 1.00000
  7.079E+06 7.081E+06 3.047E+00 2.113E-02 5.474E-01 6.830E-01 1.252E+00 4.299E+00 2.056E+06 13.4843 1.00000
  7.943E+06 7.945E+06 3.063E+00 2.411E-02 6.221E-01 7.760E-01 1.422E+00 4.486E+00 2.252E+06 13.7145 1.00000
  8.913E+06 8.914E+06 3.080E+00 2.751E-02 7.065E-01 8.820E-01 1.616E+00 4.696E+00 2.464E+06 13.9447 1.00000
  1.000E+07 1.000E+07 3.096E+00 3.138E-02 8.017E-01 1.003E+00 1.836E+00 4.932E+00 2.690E+06 14.1749 1.00000
  1.122E+07 1.122E+07 3.112E+00 3.578E-02 9.092E-01 1.141E+00 2.086E+00 5.197E+00 2.931E+06 14.4051 1.00000
  1.259E+07 1.259E+07 3.128E+00 4.079E-02 1.031E+00 1.298E+00 2.369E+00 5.497E+00 3.187E+06 14.6353 1.00000
  1.413E+07 1.413E+07 3.143E+00 4.649E-02 1.167E+00 1.477E+00 2.690E+00 5.834E+00 3.458E+06 14.8656 1.00000
  1.585E+07 1.585E+07 3.159E+00 5.297E-02 1.321E+00 1.681E+00 3.055E+00 6.214E+00 3.745E+06 15.0958 1.00000
  1.778E+07 1.778E+07 3.174E+00 6.033E-02 1.495E+00 1.914E+00 3.469E+00 6.644E+00 4.046E+06 15.3260 1.00000
  1.995E+07 1.995E+07 3.190E+00 6.870E-02 1.691E+00 2.180E+00 3.939E+00 7.129E+00 4.362E+06 15.5563 1.00000
  2.239E+07 2.239E+07 3.205E+00 7.822E-02 1.911E+00 2.483E+00 4.472E+00 7.677E+00 4.691E+06 15.7865 1.00000
  2.512E+07 2.512E+07 3.220E+00 8.902E-02 2.159E+00 2.829E+00 5.077E+00 8.297E+00 5.033E+06 16.0167 1.00000
  2.818E+07 2.819E+07 3.235E+00 1.013E-01 2.438E+00 3.223E+00 5.763E+00 8.998E+00 5.388E+06 16.2470 1.00000
  3.162E+07 3.162E+07 3.250E+00 1.152E-01 2.752E+00 3.674E+00 6.541E+00 9.791E+00 5.755E+06 16.4772 1.00000
  3.548E+07 3.548E+07 3.265E+00 1.310E-01 3.105E+00 4.188E+00 7.424E+00 1.069E+01 6.133E+06 16.7075 1.00000
  3.981E+07 3.981E+07 3.280E+00 1.489E-01 3.502E+00 4.774E+00 8.426E+00 1.171E+01 6.520E+06 16.9377 1.00000
  4.467E+07 4.467E+07 3.295E+00 1.693E-01 3.949E+00 5.444E+00 9.562E+00 1.286E+01 6.916E+06 17.1680 1.00000
  5.012E+07 5.012E+07 3.310E+00 1.923E-01 4.451E+00 6.208E+00 1.085E+01 1.416E+01 7.321E+06 17.3982 1.00000
  5.623E+07 5.624E+07 3.325E+00 2.184E-01 5.015E+00 7.081E+00 1.231E+01 1.564E+01 7.732E+06 17.6285 1.00000
  6.310E+07 6.310E+07 3.340E+00 2.480E-01 5.649E+00 8.077E+00 1.397E+01 1.731E+01 8.150E+06 17.8587 1.00000
  7.079E+07 7.080E+07 3.355E+00 2.816E-01 6.361E+00 9.215E+00 1.586E+01 1.921E+01 8.572E+06 18.0890 1.00000
  7.943E+07 7.943E+07 3.370E+00 3.195E-01 7.161E+00 1.051E+01 1.799E+01 2.136E+01 8.999E+06 18.3192 1.00000
  8.913E+07 8.913E+07 3.385E+00 3.625E-01 8.060E+00 1.200E+01 2.042E+01 2.380E+01 9.430E+06 18.5495 1.00000
  1.000E+08 1.000E+08 3.400E+00 4.112E-01 9.069E+00 1.369E+01 2.317E+01 2.657E+01 9.863E+06 18.7797 1.00000
  1.122E+08 1.122E+08 3.415E+00 4.662E-01 1.020E+01 1.562E+01 2.629E+01 2.971E+01 1.030E+07 19.0100 1.00000
  1.259E+08 1.259E+08 3.431E+00 5.284E-01 1.148E+01 1.783E+01 2.984E+01 3.327E+01 1.073E+07 19.2402 1.00000
  1.413E+08 1.413E+08 3.446E+00 5.988E-01 1.291E+01 2.036E+01 3.386E+01 3.731E+01 1.117E+07 19.4705 1.00000
  1.585E+08 1.585E+08 3.461E+00 6.784E-01 1.451E+01 2.324E+01 3.843E+01 4.189E+01 1.161E+07 19.7008 1.00000
  1.778E+08 1.778E+08 3.476E+00 7.683E-01 1.631E+01 2.653E+01 4.361E+01 4.709E+01 1.204E+07 19.9310 1.00000
  1.995E+08 1.995E+08 3.491E+00 8.699E-01 1.834E+01 3.029E+01 4.950E+01 5.299E+01 1.248E+07 20.1613 1.00000
  2.239E+08 2.239E+08 3.507E+00 9.847E-01 2.061E+01 3.459E+01 5.618E+01 5.969E+01 1.291E+07 20.3915 1.00000
  2.512E+08 2.512E+08 3.522E+00 1.114E+00 2.316E+01 3.950E+01 6.377E+01 6.729E+01 1.334E+07 20.6218 1.00000
  2.818E+08 2.818E+08 3.538E+00 1.261E+00 2.602E+01 4.511E+01 7.238E+01 7.592E+01 1.377E+07 20.8520 1.00000
  3.162E+08 3.162E+08 3.553E+00 1.426E+00 2.923E+01 5.151E+01 8.217E+01 8.572E+01 1.420E+07 21.0823 1.00000
  3.548E+08 3.548E+08 3.569E+00 1.612E+00 3.283E+01 5.884E+01 9.328E+01 9.685E+01 1.463E+07 21.3126 1.00000
  3.981E+08 3.981E+08 3.585E+00 1.822E+00 3.688E+01 6.720E+01 1.059E+02 1.095E+02 1.505E+07 21.5428 1.00000
  4.467E+08 4.467E+08 3.600E+00 2.059E+00 4.142E+01 7.677E+01 1.202E+02 1.238E+02 1.546E+07 21.7731 1.00000
  5.012E+08 5.012E+08 3.616E+00 2.326E+00 4.651E+01 8.770E+01 1.365E+02 1.402E+02 1.588E+07 22.0033 1.00000
  5.623E+08 5.623E+08 3.632E+00 2.627E+00 5.223E+01 1.002E+02 1.550E+02 1.587E+02 1.629E+07 22.2336 1.00000
  6.310E+08 6.310E+08 3.648E+00 2.966E+00 5.865E+01 1.145E+02 1.761E+02 1.797E+02 1.670E+07 22.4638 1.00000
  7.079E+08 7.079E+08 3.664E+00 3.349E+00 6.585E+01 1.308E+02 2.000E+02 2.036E+02 1.710E+07 22.6941 1.00000
  7.943E+08 7.943E+08 3.680E+00 3.780E+00 7.393E+01 1.494E+02 2.271E+02 2.308E+02 1.750E+07 22.9244 1.00000
  8.913E+08 8.913E+08 3.697E+00 4.265E+00 8.300E+01 1.708E+02 2.580E+02 2.617E+02 1.789E+07 23.1546 1.00000
  1.000E+09 1.000E+09 3.713E+00 4.811E+00 9.318E+01 1.951E+02 2.931E+02 2.968E+02 1.829E+07 23.3849 1.00000
  1.122E+09 1.122E+09 3.729E+00 5.426E+00 1.046E+02 2.230E+02 3.330E+02 3.368E+02 1.867E+07 23.6151 1.00000
  1.259E+09 1.259E+09 3.746E+00 6.118E+00 1.174E+02 2.549E+02 3.784E+02 3.821E+02 1.905E+07 23.8454 1.00000
  1.413E+09 1.413E+09 3.762E+00 6.897E+00 1.318E+02 2.913E+02 4.300E+02 4.338E+02 1.943E+07 24.0756 1.00000
  1.585E+09 1.585E+09 3.779E+00 7.773E+00 1.479E+02 3.330E+02 4.887E+02 4.924E+02 1.981E+07 24.3059 1.00000
  1.778E+09 1.778E+09 3.796E+00 8.759E+00 1.660E+02 3.806E+02 5.554E+02 5.592E+02 2.018E+07 24.5362 1.00000
  1.995E+09 1.995E+09 3.813E+00 9.868E+00 1.863E+02 4.351E+02 6.313E+02 6.351E+02 2.054E+07 24.7664 1.00000
  2.239E+09 2.239E+09 3.830E+00 1.112E+01 2.091E+02 4.974E+02 7.176E+02 7.215E+02 2.090E+07 24.9967 1.00000
  2.512E+09 2.512E+09 3.847E+00 1.252E+01 2.347E+02 5.687E+02 8.159E+02 8.197E+02 2.126E+07 25.2269 1.00000
  2.818E+09 2.818E+09 3.864E+00 1.409E+01 2.634E+02 6.502E+02 9.276E+02 9.315E+02 2.161E+07 25.4572 1.00000
  3.162E+09 3.162E+09 3.881E+00 1.587E+01 2.956E+02 7.434E+02 1.055E+03 1.059E+03 2.196E+07 25.6875 1.00000
  3.548E+09 3.548E+09 3.898E+00 1.786E+01 3.317E+02 8.500E+02 1.200E+03 1.203E+03 2.230E+07 25.9177 1.00000
  3.981E+09 3.981E+09 3.916E+00 2.010E+01 3.723E+02 9.720E+02 1.364E+03 1.368E+03 2.264E+07 26.1480 1.00000
  4.467E+09 4.467E+09 3.933E+00 2.261E+01 4.177E+02 1.112E+03 1.552E+03 1.556E+03 2.297E+07 26.3782 1.00000
  5.012E+09 5.012E+09 3.951E+00 2.544E+01 4.688E+02 1.271E+03 1.765E+03 1.769E+03 2.330E+07 26.6085 1.00000
  5.623E+09 5.623E+09 3.969E+00 2.862E+01 5.260E+02 1.454E+03 2.008E+03 2.012E+03 2.362E+07 26.8387 1.00000
  6.310E+09 6.310E+09 3.987E+00 3.219E+01 5.903E+02 1.663E+03 2.285E+03 2.289E+03 2.394E+07 27.0690 1.00000
  7.079E+09 7.079E+09 4.005E+00 3.619E+01 6.624E+02 1.902E+03 2.601E+03 2.605E+03 2.426E+07 27.2993 1.00000
  7.943E+09 7.943E+09 4.023E+00 4.070E+01 7.433E+02 2.176E+03 2.960E+03 2.964E+03 2.457E+07 27.5295 1.00000
  8.913E+09 8.913E+09 4.041E+00 4.575E+01 8.340E+02 2.489E+03 3.368E+03 3.373E+03 2.488E+07 27.7598 1.00000
  1.000E+10 1.000E+10 4.059E+00 5.143E+01 9.358E+02 2.847E+03 3.834E+03 3.838E+03 2.518E+07 27.9900 1.00000
  1.122E+10 1.122E+10 4.077E+00 5.781E+01 1.050E+03 3.257E+03 4.365E+03 4.369E+03 2.548E+07 28.2203 1.00000
  1.259E+10 1.259E+10 4.096E+00 6.497E+01 1.178E+03 3.727E+03 4.970E+03 4.974E+03 2.577E+07 28.4506 1.00000
  1.413E+10 1.413E+10 4.114E+00 7.301E+01 1.322E+03 4.264E+03 5.659E+03 5.663E+03 2.606E+07 28.6808 1.00000
  1.585E+10 1.585E+10 4.133E+00 8.203E+01 1.483E+03 4.879E+03 6.444E+03 6.448E+03 2.635E+07 28.9111 1.00000
  1.778E+10 1.778E+10 4.152E+00 9.216E+01 1.665E+03 5.583E+03 7.339E+03 7.344E+03 2.663E+07 29.1413 1.00000
  1.995E+10 1.995E+10 4.171E+00 1.035E+02 1.868E+03 6.389E+03 8.360E+03 8.364E+03 2.691E+07 29.3716 1.00000
  2.239E+10 2.239E+10 4.190E+00 1.163E+02 2.096E+03 7.311E+03 9.523E+03 9.527E+03 2.718E+07 29.6019 1.00000
  2.512E+10 2.512E+10 4.209E+00 1.306E+02 2.351E+03 8.367E+03 1.085E+04 1.085E+04 2.745E+07 29.8321 1.00000
  2.818E+10 2.818E+10 4.228E+00 1.467E+02 2.638E+03 9.577E+03 1.236E+04 1.237E+04 2.772E+07 30.0624 1.00000
  3.162E+10 3.162E+10 4.247E+00 1.648E+02 2.960E+03 1.096E+04 1.409E+04 1.409E+04 2.798E+07 30.2926 1.00000
  3.548E+10 3.548E+10 4.267E+00 1.851E+02 3.321E+03 1.255E+04 1.605E+04 1.606E+04 2.823E+07 30.5229 1.00000
  3.981E+10 3.981E+10 4.286E+00 2.078E+02 3.727E+03 1.436E+04 1.830E+04 1.830E+04 2.849E+07 30.7531 1.00000
  4.467E+10 4.467E+10 4.306E+00 2.334E+02 4.181E+03 1.644E+04 2.086E+04 2.086E+04 2.874E+07 30.9834 1.00000
  5.012E+10 5.012E+10 4.325E+00 2.620E+02 4.692E+03 1.882E+04 2.378E+04 2.378E+04 2.898E+07 31.2137 1.00000
  5.623E+10 5.623E+10 4.345E+00 2.942E+02 5.264E+03 2.155E+04 2.711E+04 2.711E+04 2.922E+07 31.4439 1.00000
  6.310E+10 6.310E+10 4.365E+00 3.303E+02 5.906E+03 2.467E+04 3.091E+04 3.091E+04 2.946E+07 31.6742 1.00000
  7.079E+10 7.079E+10 4.385E+00 3.708E+02 6.627E+03 2.825E+04 3.525E+04 3.525E+04 2.969E+07 31.9044 1.00000
  7.943E+10 7.943E+10 4.405E+00 4.162E+02 7.436E+03 3.235E+04 4.020E+04 4.021E+04 2.992E+07 32.1347 1.00000
  8.913E+10 8.913E+10 4.426E+00 4.673E+02 8.343E+03 3.704E+04 4.585E+04 4.586E+04 3.015E+07 32.3650 1.00000
  1.000E+11 1.000E+11 4.446E+00 5.245E+02 9.361E+03 4.242E+04 5.231E+04 5.231E+04 3.037E+07 32.5952 1.00000
  1.122E+11 1.122E+11 4.467E+00 5.887E+02 1.050E+04 4.858E+04 5.968E+04 5.968E+04 3.059E+07 32.8255 1.00000
  1.259E+11 1.259E+11 4.487E+00 6.608E+02 1.178E+04 5.564E+04 6.809E+04 6.809E+04 3.081E+07 33.0557 1.00000
  1.413E+11 1.413E+11 4.508E+00 7.417E+02 1.322E+04 6.373E+04 7.770E+04 7.770E+04 3.102E+07 33.2860 1.00000
  1.585E+11 1.585E+11 4.529E+00 8.325E+02 1.483E+04 7.300E+04 8.867E+04 8.867E+04 3.123E+07 33.5162 1.00000
  1.778E+11 1.778E+11 4.550E+00 9.344E+02 1.664E+04 8.362E+04 1.012E+05 1.012E+05 3.143E+07 33.7465 1.00000
  1.995E+11 1.995E+11 4.571E+00 1.049E+03 1.867E+04 9.579E+04 1.155E+05 1.155E+05 3.163E+07 33.9768 1.00000
  2.239E+11 2.239E+11 4.592E+00 1.177E+03 2.095E+04 1.097E+05 1.319E+05 1.319E+05 3.183E+07 34.2070 1.00000
  2.512E+11 2.512E+11 4.614E+00 1.321E+03 2.351E+04 1.257E+05 1.506E+05 1.506E+05 3.202E+07 34.4373 1.00000
  2.818E+11 2.818E+11 4.635E+00 1.482E+03 2.638E+04 1.440E+05 1.719E+05 1.719E+05 3.222E+07 34.6675 1.00000
  3.162E+11 3.162E+11 4.657E+00 1.663E+03 2.959E+04 1.650E+05 1.963E+05 1.963E+05 3.240E+07 34.8978 1.00000
  3.548E+11 3.548E+11 4.678E+00 1.867E+03 3.320E+04 1.891E+05 2.242E+05 2.242E+05 3.259E+07 35.1281 1.00000
  3.981E+11 3.981E+11 4.700E+00 2.095E+03 3.725E+04 2.167E+05 2.561E+05 2.561E+05 3.277E+07 35.3583 1.00000
  4.467E+11 4.467E+11 4.722E+00 2.351E+03 4.180E+04 2.483E+05 2.925E+05 2.925E+05 3.295E+07 35.5886 1.00000
  5.012E+11 5.012E+11 4.744E+00 2.638E+03 4.690E+04 2.846E+05 3.341E+05 3.341E+05 3.312E+07 35.8188 1.00000
  5.623E+11 5.623E+11 4.766E+00 2.960E+03 5.262E+04 3.262E+05 3.817E+05 3.817E+05 3.329E+07 36.0491 1.00000
  6.310E+11 6.310E+11 4.789E+00 3.322E+03 5.904E+04 3.738E+05 4.362E+05 4.362E+05 3.346E+07 36.2793 1.00000
  7.079E+11 7.079E+11 4.811E+00 3.727E+03 6.624E+04 4.285E+05 4.984E+05 4.985E+05 3.363E+07 36.5096 1.00000
  7.943E+11 7.943E+11 4.834E+00 4.183E+03 7.432E+04 4.911E+05 5.696E+05 5.697E+05 3.379E+07 36.7399 1.00000
  8.913E+11 8.913E+11 4.856E+00 4.693E+03 8.338E+04 5.630E+05 6.511E+05 6.511E+05 3.395E+07 36.9701 1.00000
  1.000E+12 1.000E+12 4.879E+00 5.266E+03 9.355E+04 6.454E+05 7.442E+05 7.442E+05 3.411E+07 37.2004 1.00000
  1.122E+12 1.122E+12 4.902E+00 5.909E+03 1.050E+05 7.399E+05 8.508E+05 8.508E+05 3.426E+07 37.4306 1.00000
  1.259E+12 1.259E+12 4.925E+00 6.631E+03 1.178E+05 8.483E+05 9.727E+05 9.727E+05 3.441E+07 37.6609 1.00000
  1.413E+12 1.413E+12 4.949E+00 7.440E+03 1.321E+05 9.726E+05 1.112E+06 1.112E+06 3.456E+07 37.8912 1.00000
  1.585E+12 1.585E+12 4.972E+00 8.349E+03 1.482E+05 1.115E+06 1.272E+06 1.272E+06 3.470E+07 38.1214 1.00000
  1.778E+12 1.778E+12 4.995E+00 9.368E+03 1.663E+05 1.279E+06 1.454E+06 1.454E+06 3.485E+07 38.3517 1.00000
  1.995E+12 1.995E+12 5.019E+00 1.051E+04 1.866E+05 1.466E+06 1.664E+06 1.664E+06 3.499E+07 38.5819 1.00000
  2.239E+12 2.239E+12 5.043E+00 1.179E+04 2.094E+05 1.682E+06 1.903E+06 1.903E+06 3.512E+07 38.8122 1.00000
  2.512E+12 2.512E+12 5.067E+00 1.323E+04 2.349E+05 1.929E+06 2.177E+06 2.177E+06 3.526E+07 39.0424 1.00000
  2.818E+12 2.818E+12 5.091E+00 1.485E+04 2.636E+05 2.212E+06 2.490E+06 2.490E+06 3.539E+07 39.2727 1.00000
  3.162E+12 3.162E+12 5.115E+00 1.666E+04 2.957E+05 2.537E+06 2.849E+06 2.849E+06 3.552E+07 39.5030 1.00000
  3.548E+12 3.548E+12 5.139E+00 1.869E+04 3.318E+05 2.910E+06 3.260E+06 3.260E+06 3.565E+07 39.7332 1.00000
  3.981E+12 3.981E+12 5.163E+00 2.098E+04 3.723E+05 3.338E+06 3.731E+06 3.731E+06 3.577E+07 39.9635 1.00000
  4.467E+12 4.467E+12 5.188E+00 2.354E+04 4.177E+05 3.829E+06 4.270E+06 4.270E+06 3.589E+07 40.1937 1.00000
  5.012E+12 5.012E+12 5.212E+00 2.641E+04 4.686E+05 4.392E+06 4.887E+06 4.887E+06 3.601E+07 40.4240 1.00000
  5.623E+12 5.623E+12 5.237E+00 2.963E+04 5.258E+05 5.039E+06 5.594E+06 5.594E+06 3.613E+07 40.6543 1.00000
  6.310E+12 6.310E+12 5.262E+00 3.325E+04 5.899E+05 5.781E+06 6.404E+06 6.404E+06 3.624E+07 40.8845 1.00000
  7.079E+12 7.079E+12 5.287E+00 3.730E+04 6.618E+05 6.633E+06 7.332E+06 7.332E+06 3.636E+07 41.1148 1.00000
  7.943E+12 7.943E+12 5.312E+00 4.186E+04 7.425E+05 7.611E+06 8.395E+06 8.395E+06 3.647E+07 41.3450 1.00000
  8.913E+12 8.913E+12 5.338E+00 4.697E+04 8.331E+05 8.733E+06 9.613E+06 9.613E+06 3.657E+07 41.5753 1.00000
  1.000E+13 1.000E+13 5.363E+00 5.270E+04 9.347E+05 1.002E+07 1.101E+07 1.101E+07 3.668E+07 41.8056 1.00000
  1.122E+13 1.122E+13 5.389E+00 5.913E+04 1.049E+06 1.150E+07 1.261E+07 1.261E+07 3.678E+07 42.0358 1.00000
  1.259E+13 1.259E+13 5.415E+00 6.634E+04 1.177E+06 1.320E+07 1.444E+07 1.444E+07 3.689E+07 42.2661 1.00000
  1.413E+13 1.413E+13 5.441E+00 7.444E+04 1.320E+06 1.515E+07 1.654E+07 1.654E+07 3.699E+07 42.4963 1.00000
  1.585E+13 1.585E+13 5.467E+00 8.352E+04 1.481E+06 1.739E+07 1.895E+07 1.895E+07 3.708E+07 42.7266 1.00000
  1.778E+13 1.778E+13 5.493E+00 9.371E+04 1.662E+06 1.995E+07 2.171E+07 2.171E+07 3.718E+07 42.9568 1.00000
  1.995E+13 1.995E+13 5.519E+00 1.051E+05 1.864E+06 2.291E+07 2.487E+07 2.487E+07 3.727E+07 43.1871 1.00000
  2.239E+13 2.239E+13 5.546E+00 1.180E+05 2.092E+06 2.629E+07 2.850E+07 2.850E+07 3.736E+07 43.4174 1.00000
  2.512E+13 2.512E+13 5.572E+00 1.324E+05 2.347E+06 3.018E+07 3.266E+07 3.266E+07 3.745E+07 43.6476 1.00000
  2.818E+13 2.818E+13 5.599E+00 1.485E+05 2.633E+06 3.465E+07 3.743E+07 3.743E+07 3.754E+07 43.8779 1.00000
  3.162E+13 3.162E+13 5.626E+00 1.666E+05 2.954E+06 3.978E+07 4.290E+07 4.290E+07 3.763E+07 44.1081 1.00000
  3.548E+13 3.548E+13 5.653E+00 1.870E+05 3.315E+06 4.567E+07 4.918E+07 4.918E+07 3.771E+07 44.3384 1.00000
  3.981E+13 3.981E+13 5.680E+00 2.098E+05 3.719E+06 5.244E+07 5.637E+07 5.637E+07 3.779E+07 44.5687 1.00000
  4.467E+13 4.467E+13 5.707E+00 2.354E+05 4.172E+06 6.022E+07 6.462E+07 6.462E+07 3.788E+07 44.7989 1.00000
  5.012E+13 5.012E+13 5.735E+00 2.641E+05 4.681E+06 6.915E+07 7.409E+07 7.409E+07 3.795E+07 45.0292 1.00000
  5.623E+13 5.623E+13 5.762E+00 2.964E+05 5.252E+06 7.940E+07 8.495E+07 8.495E+07 3.803E+07 45.2594 1.00000
  6.310E+13 6.310E+13 5.790E+00 3.325E+05 5.893E+06 9.119E+07 9.741E+07 9.741E+07 3.811E+07 45.4897 1.00000
  7.079E+13 7.079E+13 5.818E+00 3.731E+05 6.611E+06 1.047E+08 1.117E+08 1.117E+08 3.818E+07 45.7199 1.00000
  7.943E+13 7.943E+13 5.846E+00 4.186E+05 7.417E+06 1.203E+08 1.281E+08 1.281E+08 3.825E+07 45.9502 1.00000
  8.913E+13 8.913E+13 5.874E+00 4.697E+05 8.322E+06 1.381E+08 1.469E+08 1.469E+08 3.832E+07 46.1805 1.00000
