 Incident particle is a Tau with M = 1776.82000 MeV
 Index = 0: Aluminum
      Absorber with <Z/A> = 0.48181
 Sternheimer coef:  a     k=m_s   x_0    x_1    I[eV]   Cbar  delta0
                 0.0802  3.6345  0.1708  3.0127  166.0  4.2395 0.12

 *** Table generated with PUMAS v1.00 ***

      T         p     Ionization  brems     pair     photonuc  Radloss    dE/dx   CSDA Range  delta   beta
    [MeV]    [MeV/c]  -----------------------[MeV cm^2/g]------------------------  [g/cm^2]
  1.000E+05 1.018E+05 2.052E+00 2.365E-04 3.746E-03 8.113E-03 1.210E-02 2.065E+00 2.422E+04  4.0391 0.99985
  1.122E+05 1.140E+05 2.072E+00 2.734E-04 4.504E-03 9.147E-03 1.392E-02 2.085E+00 3.010E+04  4.2409 0.99988
  1.259E+05 1.277E+05 2.090E+00 3.159E-04 5.398E-03 1.026E-02 1.597E-02 2.106E+00 3.663E+04  4.4455 0.99990
  1.413E+05 1.430E+05 2.109E+00 3.649E-04 6.449E-03 1.151E-02 1.832E-02 2.128E+00 4.389E+04  4.6528 0.99992
  1.585E+05 1.603E+05 2.128E+00 4.212E-04 7.684E-03 1.290E-02 2.101E-02 2.149E+00 5.195E+04  4.8627 0.99994
  1.778E+05 1.796E+05 2.147E+00 4.859E-04 9.131E-03 1.446E-02 2.407E-02 2.171E+00 6.090E+04  5.0748 0.99995
  1.995E+05 2.013E+05 2.165E+00 5.604E-04 1.082E-02 1.623E-02 2.761E-02 2.193E+00 7.085E+04  5.2891 0.99996
  2.239E+05 2.256E+05 2.184E+00 6.459E-04 1.280E-02 1.816E-02 3.161E-02 2.215E+00 8.189E+04  5.5054 0.99997
  2.512E+05 2.530E+05 2.202E+00 7.442E-04 1.510E-02 2.032E-02 3.617E-02 2.238E+00 9.416E+04  5.7235 0.99998
  2.818E+05 2.836E+05 2.220E+00 8.569E-04 1.778E-02 2.276E-02 4.139E-02 2.261E+00 1.078E+05  5.9433 0.99998
  3.162E+05 3.180E+05 2.238E+00 9.864E-04 2.089E-02 2.550E-02 4.738E-02 2.286E+00 1.229E+05  6.1645 0.99998
  3.548E+05 3.566E+05 2.256E+00 1.135E-03 2.449E-02 2.858E-02 5.421E-02 2.310E+00 1.397E+05  6.3871 0.99999
  3.981E+05 3.999E+05 2.274E+00 1.305E-03 2.866E-02 3.202E-02 6.199E-02 2.336E+00 1.583E+05  6.6109 0.99999
  4.467E+05 4.485E+05 2.292E+00 1.500E-03 3.349E-02 3.587E-02 7.085E-02 2.363E+00 1.790E+05  6.8358 0.99999
  5.012E+05 5.030E+05 2.310E+00 1.723E-03 3.905E-02 4.019E-02 8.096E-02 2.391E+00 2.020E+05  7.0617 0.99999
  5.623E+05 5.641E+05 2.327E+00 1.979E-03 4.546E-02 4.487E-02 9.231E-02 2.419E+00 2.274E+05  7.2884 1.00000
  6.310E+05 6.327E+05 2.345E+00 2.272E-03 5.285E-02 5.014E-02 1.053E-01 2.450E+00 2.556E+05  7.5158 1.00000
  7.079E+05 7.097E+05 2.362E+00 2.608E-03 6.134E-02 5.608E-02 1.200E-01 2.482E+00 2.868E+05  7.7438 1.00000
  7.943E+05 7.961E+05 2.379E+00 2.991E-03 7.108E-02 6.278E-02 1.369E-01 2.516E+00 3.214E+05  7.9723 1.00000
  8.913E+05 8.930E+05 2.397E+00 3.430E-03 8.226E-02 7.035E-02 1.560E-01 2.553E+00 3.596E+05  8.2012 1.00000
  1.000E+06 1.002E+06 2.414E+00 3.932E-03 9.507E-02 7.891E-02 1.779E-01 2.592E+00 4.019E+05  8.4305 1.00000
  1.122E+06 1.124E+06 2.431E+00 4.506E-03 1.097E-01 8.859E-02 2.028E-01 2.634E+00 4.486E+05  8.6601 1.00000
  1.259E+06 1.261E+06 2.448E+00 5.161E-03 1.265E-01 9.955E-02 2.312E-01 2.679E+00 5.001E+05  8.8898 1.00000
  1.413E+06 1.414E+06 2.465E+00 5.910E-03 1.456E-01 1.120E-01 2.635E-01 2.728E+00 5.569E+05  9.1197 1.00000
  1.585E+06 1.587E+06 2.481E+00 6.765E-03 1.674E-01 1.260E-01 3.002E-01 2.782E+00 6.195E+05  9.3496 1.00000
  1.778E+06 1.780E+06 2.498E+00 7.742E-03 1.923E-01 1.420E-01 3.421E-01 2.840E+00 6.883E+05  9.5796 1.00000
  1.995E+06 1.997E+06 2.514E+00 8.857E-03 2.206E-01 1.601E-01 3.896E-01 2.904E+00 7.639E+05  9.8097 1.00000
  2.239E+06 2.240E+06 2.531E+00 1.013E-02 2.529E-01 1.807E-01 4.437E-01 2.974E+00 8.467E+05 10.0398 1.00000
  2.512E+06 2.514E+06 2.547E+00 1.158E-02 2.895E-01 2.040E-01 5.051E-01 3.052E+00 9.374E+05 10.2698 1.00000
  2.818E+06 2.820E+06 2.563E+00 1.323E-02 3.311E-01 2.305E-01 5.749E-01 3.138E+00 1.036E+06 10.4999 1.00000
  3.162E+06 3.164E+06 2.579E+00 1.512E-02 3.783E-01 2.607E-01 6.541E-01 3.233E+00 1.144E+06 10.7301 1.00000
  3.548E+06 3.550E+06 2.595E+00 1.727E-02 4.318E-01 2.950E-01 7.441E-01 3.339E+00 1.262E+06 10.9602 1.00000
  3.981E+06 3.983E+06 2.610E+00 1.972E-02 4.924E-01 3.340E-01 8.462E-01 3.456E+00 1.389E+06 11.1904 1.00000
  4.467E+06 4.469E+06 2.626E+00 2.252E-02 5.611E-01 3.784E-01 9.620E-01 3.588E+00 1.527E+06 11.4205 1.00000
  5.012E+06 5.014E+06 2.641E+00 2.570E-02 6.388E-01 4.290E-01 1.093E+00 3.734E+00 1.676E+06 11.6507 1.00000
  5.623E+06 5.625E+06 2.656E+00 2.932E-02 7.266E-01 4.865E-01 1.242E+00 3.899E+00 1.837E+06 11.8809 1.00000
  6.310E+06 6.311E+06 2.671E+00 3.344E-02 8.259E-01 5.520E-01 1.411E+00 4.083E+00 2.009E+06 12.1111 1.00000
  7.079E+06 7.081E+06 2.686E+00 3.813E-02 9.381E-01 6.267E-01 1.603E+00 4.289E+00 2.193E+06 12.3413 1.00000
  7.943E+06 7.945E+06 2.701E+00 4.347E-02 1.065E+00 7.117E-01 1.820E+00 4.521E+00 2.389E+06 12.5715 1.00000
  8.913E+06 8.914E+06 2.715E+00 4.954E-02 1.208E+00 8.086E-01 2.066E+00 4.781E+00 2.597E+06 12.8017 1.00000
  1.000E+07 1.000E+07 2.730E+00 5.644E-02 1.369E+00 9.191E-01 2.344E+00 5.074E+00 2.818E+06 13.0319 1.00000
  1.122E+07 1.122E+07 2.744E+00 6.429E-02 1.550E+00 1.045E+00 2.660E+00 5.404E+00 3.052E+06 13.2621 1.00000
  1.259E+07 1.259E+07 2.758E+00 7.320E-02 1.755E+00 1.188E+00 3.017E+00 5.775E+00 3.297E+06 13.4923 1.00000
  1.413E+07 1.413E+07 2.772E+00 8.333E-02 1.986E+00 1.352E+00 3.421E+00 6.194E+00 3.554E+06 13.7226 1.00000
  1.585E+07 1.585E+07 2.786E+00 9.483E-02 2.246E+00 1.539E+00 3.879E+00 6.666E+00 3.822E+06 13.9528 1.00000
  1.778E+07 1.778E+07 2.800E+00 1.079E-01 2.538E+00 1.752E+00 4.398E+00 7.198E+00 4.102E+06 14.1830 1.00000
  1.995E+07 1.995E+07 2.814E+00 1.227E-01 2.868E+00 1.994E+00 4.985E+00 7.799E+00 4.391E+06 14.4133 1.00000
  2.239E+07 2.239E+07 2.827E+00 1.395E-01 3.238E+00 2.271E+00 5.649E+00 8.477E+00 4.691E+06 14.6435 1.00000
  2.512E+07 2.512E+07 2.841E+00 1.586E-01 3.655E+00 2.587E+00 6.401E+00 9.242E+00 5.000E+06 14.8737 1.00000
  2.818E+07 2.819E+07 2.854E+00 1.802E-01 4.124E+00 2.948E+00 7.252E+00 1.011E+01 5.317E+06 15.1040 1.00000
  3.162E+07 3.162E+07 2.868E+00 2.048E-01 4.651E+00 3.359E+00 8.215E+00 1.108E+01 5.643E+06 15.3342 1.00000
  3.548E+07 3.548E+07 2.881E+00 2.326E-01 5.244E+00 3.829E+00 9.305E+00 1.219E+01 5.975E+06 15.5645 1.00000
  3.981E+07 3.981E+07 2.895E+00 2.641E-01 5.910E+00 4.365E+00 1.054E+01 1.343E+01 6.314E+06 15.7947 1.00000
  4.467E+07 4.467E+07 2.908E+00 2.997E-01 6.659E+00 4.977E+00 1.194E+01 1.484E+01 6.658E+06 16.0250 1.00000
  5.012E+07 5.012E+07 2.922E+00 3.401E-01 7.500E+00 5.675E+00 1.352E+01 1.644E+01 7.008E+06 16.2552 1.00000
  5.623E+07 5.624E+07 2.935E+00 3.858E-01 8.445E+00 6.472E+00 1.530E+01 1.824E+01 7.361E+06 16.4855 1.00000
  6.310E+07 6.310E+07 2.948E+00 4.376E-01 9.507E+00 7.382E+00 1.733E+01 2.028E+01 7.719E+06 16.7157 1.00000
  7.079E+07 7.080E+07 2.962E+00 4.962E-01 1.070E+01 8.421E+00 1.962E+01 2.258E+01 8.079E+06 16.9460 1.00000
  7.943E+07 7.943E+07 2.975E+00 5.624E-01 1.204E+01 9.608E+00 2.221E+01 2.518E+01 8.442E+06 17.1762 1.00000
  8.913E+07 8.913E+07 2.989E+00 6.372E-01 1.354E+01 1.096E+01 2.514E+01 2.813E+01 8.807E+06 17.4065 1.00000
  1.000E+08 1.000E+08 3.002E+00 7.219E-01 1.523E+01 1.251E+01 2.846E+01 3.147E+01 9.173E+06 17.6367 1.00000
  1.122E+08 1.122E+08 3.016E+00 8.175E-01 1.713E+01 1.428E+01 3.222E+01 3.524E+01 9.540E+06 17.8670 1.00000
  1.259E+08 1.259E+08 3.029E+00 9.255E-01 1.926E+01 1.629E+01 3.648E+01 3.951E+01 9.907E+06 18.0972 1.00000
  1.413E+08 1.413E+08 3.043E+00 1.048E+00 2.165E+01 1.860E+01 4.130E+01 4.434E+01 1.027E+07 18.3275 1.00000
  1.585E+08 1.585E+08 3.056E+00 1.185E+00 2.433E+01 2.123E+01 4.675E+01 4.981E+01 1.064E+07 18.5578 1.00000
  1.778E+08 1.778E+08 3.070E+00 1.341E+00 2.735E+01 2.424E+01 5.293E+01 5.600E+01 1.101E+07 18.7880 1.00000
  1.995E+08 1.995E+08 3.083E+00 1.516E+00 3.073E+01 2.767E+01 5.992E+01 6.300E+01 1.137E+07 19.0183 1.00000
  2.239E+08 2.239E+08 3.097E+00 1.715E+00 3.453E+01 3.160E+01 6.784E+01 7.094E+01 1.174E+07 19.2485 1.00000
  2.512E+08 2.512E+08 3.111E+00 1.938E+00 3.879E+01 3.608E+01 7.681E+01 7.992E+01 1.210E+07 19.4788 1.00000
  2.818E+08 2.818E+08 3.125E+00 2.190E+00 4.357E+01 4.120E+01 8.697E+01 9.009E+01 1.247E+07 19.7090 1.00000
  3.162E+08 3.162E+08 3.139E+00 2.474E+00 4.894E+01 4.706E+01 9.847E+01 1.016E+02 1.283E+07 19.9393 1.00000
  3.548E+08 3.548E+08 3.153E+00 2.794E+00 5.496E+01 5.375E+01 1.115E+02 1.147E+02 1.318E+07 20.1696 1.00000
  3.981E+08 3.981E+08 3.167E+00 3.154E+00 6.172E+01 6.139E+01 1.263E+02 1.294E+02 1.354E+07 20.3998 1.00000
  4.467E+08 4.467E+08 3.181E+00 3.561E+00 6.931E+01 7.012E+01 1.430E+02 1.462E+02 1.389E+07 20.6301 1.00000
  5.012E+08 5.012E+08 3.195E+00 4.018E+00 7.783E+01 8.011E+01 1.620E+02 1.651E+02 1.424E+07 20.8603 1.00000
  5.623E+08 5.623E+08 3.209E+00 4.534E+00 8.738E+01 9.151E+01 1.834E+02 1.866E+02 1.459E+07 21.0906 1.00000
  6.310E+08 6.310E+08 3.224E+00 5.114E+00 9.811E+01 1.046E+02 2.078E+02 2.110E+02 1.494E+07 21.3208 1.00000
  7.079E+08 7.079E+08 3.238E+00 5.767E+00 1.101E+02 1.195E+02 2.354E+02 2.386E+02 1.528E+07 21.5511 1.00000
  7.943E+08 7.943E+08 3.252E+00 6.502E+00 1.236E+02 1.365E+02 2.666E+02 2.699E+02 1.562E+07 21.7814 1.00000
  8.913E+08 8.913E+08 3.267E+00 7.329E+00 1.388E+02 1.560E+02 3.021E+02 3.054E+02 1.596E+07 22.0116 1.00000
  1.000E+09 1.000E+09 3.282E+00 8.260E+00 1.558E+02 1.782E+02 3.423E+02 3.456E+02 1.630E+07 22.2419 1.00000
  1.122E+09 1.122E+09 3.296E+00 9.307E+00 1.749E+02 2.037E+02 3.879E+02 3.912E+02 1.663E+07 22.4721 1.00000
  1.259E+09 1.259E+09 3.311E+00 1.048E+01 1.963E+02 2.328E+02 4.396E+02 4.429E+02 1.696E+07 22.7024 1.00000
  1.413E+09 1.413E+09 3.326E+00 1.181E+01 2.203E+02 2.661E+02 4.982E+02 5.015E+02 1.729E+07 22.9326 1.00000
  1.585E+09 1.585E+09 3.341E+00 1.330E+01 2.473E+02 3.041E+02 5.647E+02 5.680E+02 1.761E+07 23.1629 1.00000
  1.778E+09 1.778E+09 3.356E+00 1.497E+01 2.775E+02 3.476E+02 6.401E+02 6.435E+02 1.793E+07 23.3932 1.00000
  1.995E+09 1.995E+09 3.371E+00 1.685E+01 3.114E+02 3.974E+02 7.257E+02 7.291E+02 1.825E+07 23.6234 1.00000
  2.239E+09 2.239E+09 3.386E+00 1.897E+01 3.495E+02 4.543E+02 8.228E+02 8.262E+02 1.856E+07 23.8537 1.00000
  2.512E+09 2.512E+09 3.401E+00 2.134E+01 3.922E+02 5.194E+02 9.330E+02 9.364E+02 1.887E+07 24.0839 1.00000
  2.818E+09 2.818E+09 3.417E+00 2.401E+01 4.402E+02 5.938E+02 1.058E+03 1.061E+03 1.918E+07 24.3142 1.00000
  3.162E+09 3.162E+09 3.432E+00 2.701E+01 4.940E+02 6.790E+02 1.200E+03 1.203E+03 1.949E+07 24.5445 1.00000
  3.548E+09 3.548E+09 3.448E+00 3.038E+01 5.543E+02 7.764E+02 1.361E+03 1.365E+03 1.979E+07 24.7747 1.00000
  3.981E+09 3.981E+09 3.463E+00 3.416E+01 6.221E+02 8.878E+02 1.544E+03 1.547E+03 2.009E+07 25.0050 1.00000
  4.467E+09 4.467E+09 3.479E+00 3.841E+01 6.980E+02 1.015E+03 1.752E+03 1.755E+03 2.038E+07 25.2352 1.00000
  5.012E+09 5.012E+09 3.495E+00 4.319E+01 7.833E+02 1.161E+03 1.988E+03 1.991E+03 2.067E+07 25.4655 1.00000
  5.623E+09 5.623E+09 3.510E+00 4.855E+01 8.790E+02 1.328E+03 2.255E+03 2.259E+03 2.096E+07 25.6957 1.00000
  6.310E+09 6.310E+09 3.526E+00 5.457E+01 9.863E+02 1.519E+03 2.560E+03 2.563E+03 2.125E+07 25.9260 1.00000
  7.079E+09 7.079E+09 3.542E+00 6.133E+01 1.107E+03 1.737E+03 2.905E+03 2.909E+03 2.153E+07 26.1563 1.00000
  7.943E+09 7.943E+09 3.559E+00 6.893E+01 1.242E+03 1.987E+03 3.298E+03 3.301E+03 2.181E+07 26.3865 1.00000
  8.913E+09 8.913E+09 3.575E+00 7.745E+01 1.393E+03 2.273E+03 3.744E+03 3.748E+03 2.209E+07 26.6168 1.00000
  1.000E+10 1.000E+10 3.591E+00 8.702E+01 1.564E+03 2.600E+03 4.251E+03 4.255E+03 2.236E+07 26.8470 1.00000
  1.122E+10 1.122E+10 3.608E+00 9.776E+01 1.754E+03 2.975E+03 4.827E+03 4.831E+03 2.263E+07 27.0773 1.00000
  1.259E+10 1.259E+10 3.624E+00 1.098E+02 1.969E+03 3.404E+03 5.482E+03 5.486E+03 2.290E+07 27.3076 1.00000
  1.413E+10 1.413E+10 3.641E+00 1.234E+02 2.209E+03 3.895E+03 6.227E+03 6.230E+03 2.316E+07 27.5378 1.00000
  1.585E+10 1.585E+10 3.657E+00 1.386E+02 2.478E+03 4.456E+03 7.073E+03 7.077E+03 2.342E+07 27.7681 1.00000
  1.778E+10 1.778E+10 3.674E+00 1.556E+02 2.781E+03 5.099E+03 8.036E+03 8.039E+03 2.368E+07 27.9983 1.00000
  1.995E+10 1.995E+10 3.691E+00 1.748E+02 3.120E+03 5.835E+03 9.130E+03 9.134E+03 2.393E+07 28.2286 1.00000
  2.239E+10 2.239E+10 3.708E+00 1.962E+02 3.501E+03 6.678E+03 1.038E+04 1.038E+04 2.418E+07 28.4589 1.00000
  2.512E+10 2.512E+10 3.725E+00 2.204E+02 3.928E+03 7.643E+03 1.179E+04 1.179E+04 2.443E+07 28.6891 1.00000
  2.818E+10 2.818E+10 3.742E+00 2.474E+02 4.408E+03 8.747E+03 1.340E+04 1.341E+04 2.467E+07 28.9194 1.00000
  3.162E+10 3.162E+10 3.759E+00 2.778E+02 4.945E+03 1.001E+04 1.524E+04 1.524E+04 2.491E+07 29.1496 1.00000
  3.548E+10 3.548E+10 3.777E+00 3.119E+02 5.549E+03 1.146E+04 1.732E+04 1.732E+04 2.515E+07 29.3799 1.00000
  3.981E+10 3.981E+10 3.794E+00 3.501E+02 6.226E+03 1.312E+04 1.969E+04 1.970E+04 2.539E+07 29.6101 1.00000
  4.467E+10 4.467E+10 3.812E+00 3.931E+02 6.985E+03 1.502E+04 2.240E+04 2.240E+04 2.562E+07 29.8404 1.00000
  5.012E+10 5.012E+10 3.829E+00 4.412E+02 7.838E+03 1.719E+04 2.547E+04 2.548E+04 2.585E+07 30.0707 1.00000
  5.623E+10 5.623E+10 3.847E+00 4.953E+02 8.794E+03 1.968E+04 2.897E+04 2.898E+04 2.607E+07 30.3009 1.00000
  6.310E+10 6.310E+10 3.865E+00 5.560E+02 9.867E+03 2.254E+04 3.296E+04 3.296E+04 2.629E+07 30.5312 1.00000
  7.079E+10 7.079E+10 3.883E+00 6.241E+02 1.107E+04 2.580E+04 3.750E+04 3.750E+04 2.651E+07 30.7614 1.00000
  7.943E+10 7.943E+10 3.901E+00 7.004E+02 1.242E+04 2.955E+04 4.267E+04 4.267E+04 2.673E+07 30.9917 1.00000
  8.913E+10 8.913E+10 3.919E+00 7.862E+02 1.394E+04 3.384E+04 4.856E+04 4.856E+04 2.694E+07 31.2220 1.00000
  1.000E+11 1.000E+11 3.937E+00 8.824E+02 1.564E+04 3.875E+04 5.527E+04 5.527E+04 2.715E+07 31.4522 1.00000
  1.122E+11 1.122E+11 3.956E+00 9.903E+02 1.754E+04 4.438E+04 6.291E+04 6.292E+04 2.736E+07 31.6825 1.00000
  1.259E+11 1.259E+11 3.974E+00 1.111E+03 1.969E+04 5.082E+04 7.162E+04 7.162E+04 2.757E+07 31.9127 1.00000
  1.413E+11 1.413E+11 3.993E+00 1.247E+03 2.209E+04 5.821E+04 8.155E+04 8.155E+04 2.777E+07 32.1430 1.00000
  1.585E+11 1.585E+11 4.011E+00 1.400E+03 2.478E+04 6.668E+04 9.286E+04 9.286E+04 2.797E+07 32.3732 1.00000
  1.778E+11 1.778E+11 4.030E+00 1.571E+03 2.780E+04 7.638E+04 1.058E+05 1.058E+05 2.816E+07 32.6035 1.00000
  1.995E+11 1.995E+11 4.049E+00 1.763E+03 3.120E+04 8.749E+04 1.205E+05 1.205E+05 2.835E+07 32.8338 1.00000
  2.239E+11 2.239E+11 4.068E+00 1.978E+03 3.500E+04 1.002E+05 1.372E+05 1.372E+05 2.854E+07 33.0640 1.00000
  2.512E+11 2.512E+11 4.087E+00 2.220E+03 3.927E+04 1.148E+05 1.563E+05 1.563E+05 2.873E+07 33.2943 1.00000
  2.818E+11 2.818E+11 4.106E+00 2.491E+03 4.406E+04 1.316E+05 1.781E+05 1.781E+05 2.891E+07 33.5245 1.00000
  3.162E+11 3.162E+11 4.126E+00 2.796E+03 4.944E+04 1.507E+05 2.030E+05 2.030E+05 2.910E+07 33.7548 1.00000
  3.548E+11 3.548E+11 4.145E+00 3.137E+03 5.547E+04 1.727E+05 2.313E+05 2.313E+05 2.927E+07 33.9851 1.00000
  3.981E+11 3.981E+11 4.165E+00 3.520E+03 6.223E+04 1.979E+05 2.637E+05 2.637E+05 2.945E+07 34.2153 1.00000
  4.467E+11 4.467E+11 4.184E+00 3.950E+03 6.982E+04 2.268E+05 3.006E+05 3.006E+05 2.962E+07 34.4456 1.00000
  5.012E+11 5.012E+11 4.204E+00 4.432E+03 7.834E+04 2.599E+05 3.427E+05 3.427E+05 2.979E+07 34.6758 1.00000
  5.623E+11 5.623E+11 4.224E+00 4.974E+03 8.790E+04 2.979E+05 3.908E+05 3.908E+05 2.996E+07 34.9061 1.00000
  6.310E+11 6.310E+11 4.244E+00 5.581E+03 9.862E+04 3.415E+05 4.457E+05 4.457E+05 3.013E+07 35.1363 1.00000
  7.079E+11 7.079E+11 4.264E+00 6.262E+03 1.106E+05 3.914E+05 5.083E+05 5.083E+05 3.029E+07 35.3666 1.00000
  7.943E+11 7.943E+11 4.284E+00 7.027E+03 1.241E+05 4.486E+05 5.798E+05 5.798E+05 3.045E+07 35.5969 1.00000
  8.913E+11 8.913E+11 4.304E+00 7.885E+03 1.393E+05 5.142E+05 6.614E+05 6.614E+05 3.060E+07 35.8271 1.00000
  1.000E+12 1.000E+12 4.325E+00 8.847E+03 1.563E+05 5.895E+05 7.546E+05 7.546E+05 3.076E+07 36.0574 1.00000
  1.122E+12 1.122E+12 4.345E+00 9.927E+03 1.753E+05 6.758E+05 8.611E+05 8.611E+05 3.091E+07 36.2876 1.00000
  1.259E+12 1.259E+12 4.366E+00 1.114E+04 1.967E+05 7.748E+05 9.827E+05 9.827E+05 3.106E+07 36.5179 1.00000
  1.413E+12 1.413E+12 4.387E+00 1.250E+04 2.207E+05 8.884E+05 1.122E+06 1.122E+06 3.121E+07 36.7482 1.00000
  1.585E+12 1.585E+12 4.408E+00 1.402E+04 2.476E+05 1.019E+06 1.280E+06 1.280E+06 3.135E+07 36.9784 1.00000
  1.778E+12 1.778E+12 4.429E+00 1.574E+04 2.779E+05 1.168E+06 1.462E+06 1.462E+06 3.149E+07 37.2087 1.00000
  1.995E+12 1.995E+12 4.450E+00 1.766E+04 3.117E+05 1.339E+06 1.669E+06 1.669E+06 3.163E+07 37.4389 1.00000
  2.239E+12 2.239E+12 4.471E+00 1.981E+04 3.498E+05 1.536E+06 1.906E+06 1.906E+06 3.177E+07 37.6692 1.00000
  2.512E+12 2.512E+12 4.492E+00 2.223E+04 3.924E+05 1.762E+06 2.176E+06 2.176E+06 3.190E+07 37.8994 1.00000
  2.818E+12 2.818E+12 4.514E+00 2.494E+04 4.403E+05 2.020E+06 2.486E+06 2.486E+06 3.203E+07 38.1297 1.00000
  3.162E+12 3.162E+12 4.535E+00 2.798E+04 4.940E+05 2.317E+06 2.839E+06 2.839E+06 3.216E+07 38.3600 1.00000
  3.548E+12 3.548E+12 4.557E+00 3.140E+04 5.543E+05 2.658E+06 3.243E+06 3.243E+06 3.229E+07 38.5902 1.00000
  3.981E+12 3.981E+12 4.579E+00 3.523E+04 6.219E+05 3.049E+06 3.706E+06 3.706E+06 3.242E+07 38.8205 1.00000
  4.467E+12 4.467E+12 4.601E+00 3.953E+04 6.977E+05 3.497E+06 4.234E+06 4.234E+06 3.254E+07 39.0507 1.00000
  5.012E+12 5.012E+12 4.623E+00 4.435E+04 7.828E+05 4.012E+06 4.839E+06 4.839E+06 3.266E+07 39.2810 1.00000
  5.623E+12 5.623E+12 4.645E+00 4.977E+04 8.783E+05 4.603E+06 5.531E+06 5.531E+06 3.278E+07 39.5113 1.00000
  6.310E+12 6.310E+12 4.667E+00 5.584E+04 9.854E+05 5.280E+06 6.322E+06 6.322E+06 3.289E+07 39.7415 1.00000
  7.079E+12 7.079E+12 4.690E+00 6.265E+04 1.106E+06 6.059E+06 7.227E+06 7.227E+06 3.301E+07 39.9718 1.00000
  7.943E+12 7.943E+12 4.712E+00 7.030E+04 1.240E+06 6.952E+06 8.262E+06 8.262E+06 3.312E+07 40.2020 1.00000
  8.913E+12 8.913E+12 4.735E+00 7.888E+04 1.392E+06 7.977E+06 9.447E+06 9.447E+06 3.323E+07 40.4323 1.00000
  1.000E+13 1.000E+13 4.758E+00 8.850E+04 1.561E+06 9.153E+06 1.080E+07 1.080E+07 3.334E+07 40.6626 1.00000
  1.122E+13 1.122E+13 4.781E+00 9.930E+04 1.752E+06 1.050E+07 1.236E+07 1.236E+07 3.344E+07 40.8928 1.00000
  1.259E+13 1.259E+13 4.804E+00 1.114E+05 1.966E+06 1.206E+07 1.413E+07 1.413E+07 3.355E+07 41.1231 1.00000
  1.413E+13 1.413E+13 4.827E+00 1.250E+05 2.205E+06 1.384E+07 1.617E+07 1.617E+07 3.365E+07 41.3533 1.00000
  1.585E+13 1.585E+13 4.850E+00 1.403E+05 2.474E+06 1.588E+07 1.849E+07 1.849E+07 3.375E+07 41.5836 1.00000
  1.778E+13 1.778E+13 4.873E+00 1.574E+05 2.776E+06 1.823E+07 2.116E+07 2.116E+07 3.385E+07 41.8138 1.00000
  1.995E+13 1.995E+13 4.897E+00 1.766E+05 3.115E+06 2.092E+07 2.421E+07 2.421E+07 3.394E+07 42.0441 1.00000
  2.239E+13 2.239E+13 4.921E+00 1.981E+05 3.494E+06 2.402E+07 2.771E+07 2.771E+07 3.404E+07 42.2744 1.00000
  2.512E+13 2.512E+13 4.944E+00 2.223E+05 3.921E+06 2.757E+07 3.171E+07 3.171E+07 3.413E+07 42.5046 1.00000
  2.818E+13 2.818E+13 4.968E+00 2.494E+05 4.399E+06 3.165E+07 3.630E+07 3.630E+07 3.422E+07 42.7349 1.00000
  3.162E+13 3.162E+13 4.992E+00 2.799E+05 4.935E+06 3.634E+07 4.155E+07 4.155E+07 3.431E+07 42.9651 1.00000
  3.548E+13 3.548E+13 5.017E+00 3.140E+05 5.537E+06 4.172E+07 4.757E+07 4.757E+07 3.440E+07 43.1954 1.00000
  3.981E+13 3.981E+13 5.041E+00 3.523E+05 6.212E+06 4.790E+07 5.446E+07 5.446E+07 3.448E+07 43.4257 1.00000
  4.467E+13 4.467E+13 5.065E+00 3.953E+05 6.970E+06 5.500E+07 6.237E+07 6.237E+07 3.457E+07 43.6559 1.00000
  5.012E+13 5.012E+13 5.090E+00 4.436E+05 7.820E+06 6.316E+07 7.142E+07 7.142E+07 3.465E+07 43.8862 1.00000
  5.623E+13 5.623E+13 5.115E+00 4.977E+05 8.774E+06 7.253E+07 8.180E+07 8.180E+07 3.473E+07 44.1164 1.00000
  6.310E+13 6.310E+13 5.139E+00 5.584E+05 9.844E+06 8.329E+07 9.369E+07 9.369E+07 3.481E+07 44.3467 1.00000
  7.079E+13 7.079E+13 5.164E+00 6.266E+05 1.104E+07 9.565E+07 1.073E+08 1.073E+08 3.488E+07 44.5769 1.00000
  7.943E+13 7.943E+13 5.190E+00 7.030E+05 1.239E+07 1.099E+08 1.230E+08 1.230E+08 3.496E+07 44.8072 1.00000
  8.913E+13 8.913E+13 5.215E+00 7.888E+05 1.390E+07 1.262E+08 1.409E+08 1.409E+08 3.503E+07 45.0375 1.00000
