 Incident particle is a Tau with M = 1776.82000 MeV
 Index = 0: AluminumOxideSapphire
      Absorber with <Z/A> = 0.49038
 Sternheimer coef:  a     k=m_s   x_0    x_1    I[eV]   Cbar  delta0
                 0.0850  3.5458  0.0402  2.8665  145.2  3.5682 0.00

 *** Table generated with PUMAS v1.00 ***

      T         p     Ionization  brems     pair     photonuc  Radloss    dE/dx   CSDA Range  delta   beta
    [MeV]    [MeV/c]  -----------------------[MeV cm^2/g]------------------------  [g/cm^2]
  1.000E+05 1.018E+05 2.063E+00 1.991E-04 3.132E-03 8.188E-03 1.152E-02 2.075E+00 2.410E+04  4.6499 0.99985
  1.122E+05 1.140E+05 2.082E+00 2.301E-04 3.770E-03 9.236E-03 1.324E-02 2.095E+00 2.995E+04  4.8582 0.99988
  1.259E+05 1.277E+05 2.101E+00 2.658E-04 4.522E-03 1.036E-02 1.515E-02 2.116E+00 3.646E+04  5.0689 0.99990
  1.413E+05 1.430E+05 2.120E+00 3.069E-04 5.407E-03 1.163E-02 1.735E-02 2.137E+00 4.368E+04  5.2819 0.99992
  1.585E+05 1.603E+05 2.138E+00 3.542E-04 6.447E-03 1.305E-02 1.985E-02 2.158E+00 5.170E+04  5.4969 0.99994
  1.778E+05 1.796E+05 2.157E+00 4.086E-04 7.666E-03 1.463E-02 2.270E-02 2.180E+00 6.062E+04  5.7137 0.99995
  1.995E+05 2.013E+05 2.175E+00 4.711E-04 9.093E-03 1.643E-02 2.600E-02 2.201E+00 7.053E+04  5.9324 0.99996
  2.239E+05 2.256E+05 2.194E+00 5.430E-04 1.076E-02 1.840E-02 2.970E-02 2.224E+00 8.153E+04  6.1526 0.99997
  2.512E+05 2.530E+05 2.212E+00 6.254E-04 1.270E-02 2.060E-02 3.393E-02 2.246E+00 9.375E+04  6.3742 0.99998
  2.818E+05 2.836E+05 2.230E+00 7.201E-04 1.496E-02 2.308E-02 3.876E-02 2.269E+00 1.073E+05  6.5972 0.99998
  3.162E+05 3.180E+05 2.249E+00 8.287E-04 1.758E-02 2.588E-02 4.429E-02 2.293E+00 1.224E+05  6.8213 0.99998
  3.548E+05 3.566E+05 2.267E+00 9.533E-04 2.063E-02 2.902E-02 5.060E-02 2.317E+00 1.391E+05  7.0465 0.99999
  3.981E+05 3.999E+05 2.285E+00 1.096E-03 2.415E-02 3.253E-02 5.777E-02 2.343E+00 1.577E+05  7.2725 0.99999
  4.467E+05 4.485E+05 2.303E+00 1.260E-03 2.822E-02 3.645E-02 6.594E-02 2.369E+00 1.783E+05  7.4994 0.99999
  5.012E+05 5.030E+05 2.321E+00 1.447E-03 3.293E-02 4.087E-02 7.524E-02 2.396E+00 2.012E+05  7.7269 0.99999
  5.623E+05 5.641E+05 2.339E+00 1.662E-03 3.835E-02 4.565E-02 8.566E-02 2.424E+00 2.266E+05  7.9550 1.00000
  6.310E+05 6.327E+05 2.356E+00 1.908E-03 4.460E-02 5.103E-02 9.754E-02 2.454E+00 2.547E+05  8.1837 1.00000
  7.079E+05 7.097E+05 2.374E+00 2.189E-03 5.178E-02 5.710E-02 1.111E-01 2.485E+00 2.859E+05  8.4127 1.00000
  7.943E+05 7.961E+05 2.392E+00 2.511E-03 6.003E-02 6.396E-02 1.265E-01 2.518E+00 3.204E+05  8.6420 1.00000
  8.913E+05 8.930E+05 2.409E+00 2.880E-03 6.950E-02 7.170E-02 1.441E-01 2.553E+00 3.587E+05  8.8715 1.00000
  1.000E+06 1.002E+06 2.426E+00 3.301E-03 8.035E-02 8.046E-02 1.641E-01 2.591E+00 4.010E+05  9.1012 1.00000
  1.122E+06 1.124E+06 2.444E+00 3.783E-03 9.277E-02 9.037E-02 1.869E-01 2.631E+00 4.477E+05  9.3311 1.00000
  1.259E+06 1.261E+06 2.461E+00 4.333E-03 1.070E-01 1.016E-01 2.129E-01 2.674E+00 4.993E+05  9.5610 1.00000
  1.413E+06 1.414E+06 2.478E+00 4.962E-03 1.232E-01 1.143E-01 2.425E-01 2.721E+00 5.563E+05  9.7909 1.00000
  1.585E+06 1.587E+06 2.495E+00 5.680E-03 1.417E-01 1.287E-01 2.761E-01 2.771E+00 6.191E+05 10.0209 1.00000
  1.778E+06 1.780E+06 2.512E+00 6.501E-03 1.628E-01 1.450E-01 3.144E-01 2.826E+00 6.882E+05 10.2509 1.00000
  1.995E+06 1.997E+06 2.529E+00 7.437E-03 1.869E-01 1.636E-01 3.579E-01 2.887E+00 7.641E+05 10.4810 1.00000
  2.239E+06 2.240E+06 2.545E+00 8.506E-03 2.143E-01 1.846E-01 4.074E-01 2.953E+00 8.475E+05 10.7111 1.00000
  2.512E+06 2.514E+06 2.562E+00 9.726E-03 2.454E-01 2.086E-01 4.637E-01 3.025E+00 9.389E+05 10.9411 1.00000
  2.818E+06 2.820E+06 2.578E+00 1.112E-02 2.807E-01 2.357E-01 5.276E-01 3.106E+00 1.039E+06 11.1712 1.00000
  3.162E+06 3.164E+06 2.594E+00 1.270E-02 3.209E-01 2.667E-01 6.002E-01 3.195E+00 1.148E+06 11.4014 1.00000
  3.548E+06 3.550E+06 2.610E+00 1.451E-02 3.664E-01 3.018E-01 6.827E-01 3.293E+00 1.267E+06 11.6315 1.00000
  3.981E+06 3.983E+06 2.626E+00 1.658E-02 4.180E-01 3.418E-01 7.763E-01 3.403E+00 1.396E+06 11.8617 1.00000
  4.467E+06 4.469E+06 2.642E+00 1.893E-02 4.764E-01 3.873E-01 8.826E-01 3.525E+00 1.537E+06 12.0918 1.00000
  5.012E+06 5.014E+06 2.658E+00 2.160E-02 5.426E-01 4.391E-01 1.003E+00 3.661E+00 1.688E+06 12.3220 1.00000
  5.623E+06 5.625E+06 2.673E+00 2.465E-02 6.174E-01 4.980E-01 1.140E+00 3.813E+00 1.852E+06 12.5522 1.00000
  6.310E+06 6.311E+06 2.688E+00 2.812E-02 7.020E-01 5.652E-01 1.295E+00 3.984E+00 2.028E+06 12.7824 1.00000
  7.079E+06 7.081E+06 2.703E+00 3.208E-02 7.976E-01 6.417E-01 1.471E+00 4.175E+00 2.217E+06 13.0126 1.00000
  7.943E+06 7.945E+06 2.718E+00 3.657E-02 9.055E-01 7.289E-01 1.671E+00 4.389E+00 2.419E+06 13.2428 1.00000
  8.913E+06 8.914E+06 2.733E+00 4.169E-02 1.027E+00 8.282E-01 1.897E+00 4.630E+00 2.634E+06 13.4730 1.00000
  1.000E+07 1.000E+07 2.748E+00 4.751E-02 1.165E+00 9.414E-01 2.154E+00 4.902E+00 2.862E+06 13.7032 1.00000
  1.122E+07 1.122E+07 2.762E+00 5.412E-02 1.320E+00 1.070E+00 2.444E+00 5.207E+00 3.104E+06 13.9334 1.00000
  1.259E+07 1.259E+07 2.777E+00 6.164E-02 1.495E+00 1.218E+00 2.774E+00 5.551E+00 3.359E+06 14.1636 1.00000
  1.413E+07 1.413E+07 2.791E+00 7.019E-02 1.692E+00 1.385E+00 3.147E+00 5.938E+00 3.627E+06 14.3939 1.00000
  1.585E+07 1.585E+07 2.805E+00 7.989E-02 1.913E+00 1.577E+00 3.570E+00 6.375E+00 3.907E+06 14.6241 1.00000
  1.778E+07 1.778E+07 2.819E+00 9.092E-02 2.163E+00 1.795E+00 4.049E+00 6.868E+00 4.199E+06 14.8543 1.00000
  1.995E+07 1.995E+07 2.833E+00 1.034E-01 2.444E+00 2.044E+00 4.592E+00 7.425E+00 4.503E+06 15.0846 1.00000
  2.239E+07 2.239E+07 2.847E+00 1.176E-01 2.761E+00 2.328E+00 5.206E+00 8.054E+00 4.818E+06 15.3148 1.00000
  2.512E+07 2.512E+07 2.861E+00 1.338E-01 3.117E+00 2.652E+00 5.903E+00 8.764E+00 5.144E+06 15.5450 1.00000
  2.818E+07 2.819E+07 2.875E+00 1.520E-01 3.518E+00 3.021E+00 6.691E+00 9.566E+00 5.479E+06 15.7753 1.00000
  3.162E+07 3.162E+07 2.889E+00 1.728E-01 3.968E+00 3.443E+00 7.584E+00 1.047E+01 5.823E+06 16.0055 1.00000
  3.548E+07 3.548E+07 2.902E+00 1.963E-01 4.475E+00 3.925E+00 8.595E+00 1.150E+01 6.175E+06 16.2358 1.00000
  3.981E+07 3.981E+07 2.916E+00 2.229E-01 5.044E+00 4.474E+00 9.741E+00 1.266E+01 6.534E+06 16.4660 1.00000
  4.467E+07 4.467E+07 2.930E+00 2.531E-01 5.684E+00 5.101E+00 1.104E+01 1.397E+01 6.900E+06 16.6963 1.00000
  5.012E+07 5.012E+07 2.943E+00 2.873E-01 6.403E+00 5.817E+00 1.251E+01 1.545E+01 7.272E+06 16.9265 1.00000
  5.623E+07 5.624E+07 2.957E+00 3.260E-01 7.211E+00 6.634E+00 1.417E+01 1.713E+01 7.648E+06 17.1568 1.00000
  6.310E+07 6.310E+07 2.970E+00 3.698E-01 8.119E+00 7.567E+00 1.606E+01 1.903E+01 8.029E+06 17.3870 1.00000
  7.079E+07 7.080E+07 2.984E+00 4.194E-01 9.139E+00 8.633E+00 1.819E+01 2.117E+01 8.413E+06 17.6173 1.00000
  7.943E+07 7.943E+07 2.998E+00 4.755E-01 1.028E+01 9.849E+00 2.061E+01 2.361E+01 8.800E+06 17.8475 1.00000
  8.913E+07 8.913E+07 3.011E+00 5.389E-01 1.157E+01 1.124E+01 2.335E+01 2.636E+01 9.189E+06 18.0778 1.00000
  1.000E+08 1.000E+08 3.025E+00 6.107E-01 1.302E+01 1.282E+01 2.645E+01 2.948E+01 9.579E+06 18.3080 1.00000
  1.122E+08 1.122E+08 3.039E+00 6.918E-01 1.464E+01 1.464E+01 2.996E+01 3.300E+01 9.971E+06 18.5383 1.00000
  1.259E+08 1.259E+08 3.053E+00 7.834E-01 1.646E+01 1.670E+01 3.395E+01 3.700E+01 1.036E+07 18.7685 1.00000
  1.413E+08 1.413E+08 3.066E+00 8.869E-01 1.850E+01 1.907E+01 3.846E+01 4.152E+01 1.076E+07 18.9988 1.00000
  1.585E+08 1.585E+08 3.080E+00 1.004E+00 2.080E+01 2.177E+01 4.357E+01 4.665E+01 1.115E+07 19.2291 1.00000
  1.778E+08 1.778E+08 3.094E+00 1.136E+00 2.338E+01 2.485E+01 4.936E+01 5.246E+01 1.154E+07 19.4593 1.00000
  1.995E+08 1.995E+08 3.108E+00 1.285E+00 2.627E+01 2.837E+01 5.593E+01 5.903E+01 1.193E+07 19.6896 1.00000
  2.239E+08 2.239E+08 3.122E+00 1.453E+00 2.952E+01 3.239E+01 6.336E+01 6.649E+01 1.232E+07 19.9198 1.00000
  2.512E+08 2.512E+08 3.136E+00 1.643E+00 3.316E+01 3.699E+01 7.180E+01 7.493E+01 1.271E+07 20.1501 1.00000
  2.818E+08 2.818E+08 3.150E+00 1.857E+00 3.725E+01 4.224E+01 8.135E+01 8.450E+01 1.309E+07 20.3803 1.00000
  3.162E+08 3.162E+08 3.164E+00 2.098E+00 4.184E+01 4.824E+01 9.219E+01 9.535E+01 1.348E+07 20.6106 1.00000
  3.548E+08 3.548E+08 3.178E+00 2.370E+00 4.700E+01 5.510E+01 1.045E+02 1.076E+02 1.386E+07 20.8409 1.00000
  3.981E+08 3.981E+08 3.193E+00 2.677E+00 5.278E+01 6.294E+01 1.184E+02 1.216E+02 1.424E+07 21.0711 1.00000
  4.467E+08 4.467E+08 3.207E+00 3.022E+00 5.927E+01 7.189E+01 1.342E+02 1.374E+02 1.461E+07 21.3014 1.00000
  5.012E+08 5.012E+08 3.221E+00 3.412E+00 6.656E+01 8.213E+01 1.521E+02 1.553E+02 1.499E+07 21.5316 1.00000
  5.623E+08 5.623E+08 3.236E+00 3.850E+00 7.473E+01 9.382E+01 1.724E+02 1.756E+02 1.536E+07 21.7619 1.00000
  6.310E+08 6.310E+08 3.251E+00 4.344E+00 8.390E+01 1.072E+02 1.954E+02 1.987E+02 1.573E+07 21.9921 1.00000
  7.079E+08 7.079E+08 3.265E+00 4.900E+00 9.420E+01 1.225E+02 2.216E+02 2.248E+02 1.609E+07 22.2224 1.00000
  7.943E+08 7.943E+08 3.280E+00 5.526E+00 1.057E+02 1.399E+02 2.512E+02 2.545E+02 1.645E+07 22.4527 1.00000
  8.913E+08 8.913E+08 3.295E+00 6.230E+00 1.187E+02 1.599E+02 2.849E+02 2.881E+02 1.681E+07 22.6829 1.00000
  1.000E+09 1.000E+09 3.310E+00 7.023E+00 1.333E+02 1.827E+02 3.230E+02 3.263E+02 1.717E+07 22.9132 1.00000
  1.122E+09 1.122E+09 3.325E+00 7.915E+00 1.496E+02 2.088E+02 3.663E+02 3.697E+02 1.752E+07 23.1434 1.00000
  1.259E+09 1.259E+09 3.340E+00 8.918E+00 1.679E+02 2.387E+02 4.155E+02 4.188E+02 1.787E+07 23.3737 1.00000
  1.413E+09 1.413E+09 3.355E+00 1.005E+01 1.884E+02 2.728E+02 4.713E+02 4.746E+02 1.821E+07 23.6039 1.00000
  1.585E+09 1.585E+09 3.370E+00 1.131E+01 2.115E+02 3.118E+02 5.346E+02 5.380E+02 1.856E+07 23.8342 1.00000
  1.778E+09 1.778E+09 3.385E+00 1.274E+01 2.374E+02 3.564E+02 6.065E+02 6.099E+02 1.889E+07 24.0645 1.00000
  1.995E+09 1.995E+09 3.400E+00 1.434E+01 2.664E+02 4.074E+02 6.882E+02 6.916E+02 1.923E+07 24.2947 1.00000
  2.239E+09 2.239E+09 3.416E+00 1.615E+01 2.990E+02 4.658E+02 7.809E+02 7.843E+02 1.956E+07 24.5250 1.00000
  2.512E+09 2.512E+09 3.431E+00 1.817E+01 3.355E+02 5.325E+02 8.862E+02 8.897E+02 1.989E+07 24.7552 1.00000
  2.818E+09 2.818E+09 3.447E+00 2.045E+01 3.765E+02 6.088E+02 1.006E+03 1.009E+03 2.021E+07 24.9855 1.00000
  3.162E+09 3.162E+09 3.463E+00 2.301E+01 4.226E+02 6.961E+02 1.142E+03 1.145E+03 2.053E+07 25.2158 1.00000
  3.548E+09 3.548E+09 3.479E+00 2.588E+01 4.742E+02 7.960E+02 1.296E+03 1.300E+03 2.085E+07 25.4460 1.00000
  3.981E+09 3.981E+09 3.494E+00 2.911E+01 5.321E+02 9.102E+02 1.471E+03 1.475E+03 2.116E+07 25.6763 1.00000
  4.467E+09 4.467E+09 3.510E+00 3.274E+01 5.971E+02 1.041E+03 1.671E+03 1.674E+03 2.147E+07 25.9065 1.00000
  5.012E+09 5.012E+09 3.526E+00 3.682E+01 6.701E+02 1.190E+03 1.897E+03 1.901E+03 2.178E+07 26.1368 1.00000
  5.623E+09 5.623E+09 3.543E+00 4.139E+01 7.519E+02 1.361E+03 2.155E+03 2.158E+03 2.208E+07 26.3670 1.00000
  6.310E+09 6.310E+09 3.559E+00 4.653E+01 8.437E+02 1.557E+03 2.447E+03 2.451E+03 2.238E+07 26.5973 1.00000
  7.079E+09 7.079E+09 3.575E+00 5.230E+01 9.468E+02 1.781E+03 2.780E+03 2.784E+03 2.268E+07 26.8276 1.00000
  7.943E+09 7.943E+09 3.592E+00 5.878E+01 1.062E+03 2.037E+03 3.158E+03 3.162E+03 2.297E+07 27.0578 1.00000
  8.913E+09 8.913E+09 3.608E+00 6.606E+01 1.192E+03 2.331E+03 3.589E+03 3.592E+03 2.326E+07 27.2881 1.00000
  1.000E+10 1.000E+10 3.625E+00 7.423E+01 1.338E+03 2.666E+03 4.078E+03 4.082E+03 2.354E+07 27.5183 1.00000
  1.122E+10 1.122E+10 3.641E+00 8.341E+01 1.501E+03 3.050E+03 4.634E+03 4.638E+03 2.382E+07 27.7486 1.00000
  1.259E+10 1.259E+10 3.658E+00 9.370E+01 1.684E+03 3.490E+03 5.268E+03 5.271E+03 2.410E+07 27.9789 1.00000
  1.413E+10 1.413E+10 3.675E+00 1.053E+02 1.890E+03 3.993E+03 5.988E+03 5.991E+03 2.437E+07 28.2091 1.00000
  1.585E+10 1.585E+10 3.692E+00 1.182E+02 2.120E+03 4.569E+03 6.807E+03 6.811E+03 2.464E+07 28.4394 1.00000
  1.778E+10 1.778E+10 3.709E+00 1.328E+02 2.379E+03 5.228E+03 7.740E+03 7.743E+03 2.491E+07 28.6696 1.00000
  1.995E+10 1.995E+10 3.726E+00 1.492E+02 2.669E+03 5.983E+03 8.801E+03 8.805E+03 2.517E+07 28.8999 1.00000
  2.239E+10 2.239E+10 3.743E+00 1.675E+02 2.995E+03 6.847E+03 1.001E+04 1.001E+04 2.543E+07 29.1302 1.00000
  2.512E+10 2.512E+10 3.761E+00 1.881E+02 3.361E+03 7.836E+03 1.138E+04 1.139E+04 2.569E+07 29.3604 1.00000
  2.818E+10 2.818E+10 3.778E+00 2.112E+02 3.771E+03 8.968E+03 1.295E+04 1.295E+04 2.594E+07 29.5907 1.00000
  3.162E+10 3.162E+10 3.796E+00 2.372E+02 4.231E+03 1.026E+04 1.473E+04 1.474E+04 2.619E+07 29.8209 1.00000
  3.548E+10 3.548E+10 3.814E+00 2.663E+02 4.747E+03 1.175E+04 1.676E+04 1.677E+04 2.644E+07 30.0512 1.00000
  3.981E+10 3.981E+10 3.831E+00 2.990E+02 5.326E+03 1.345E+04 1.907E+04 1.908E+04 2.668E+07 30.2814 1.00000
  4.467E+10 4.467E+10 3.849E+00 3.357E+02 5.976E+03 1.540E+04 2.171E+04 2.171E+04 2.692E+07 30.5117 1.00000
  5.012E+10 5.012E+10 3.867E+00 3.768E+02 6.705E+03 1.763E+04 2.471E+04 2.471E+04 2.715E+07 30.7420 1.00000
  5.623E+10 5.623E+10 3.885E+00 4.230E+02 7.523E+03 2.018E+04 2.813E+04 2.813E+04 2.739E+07 30.9722 1.00000
  6.310E+10 6.310E+10 3.903E+00 4.748E+02 8.441E+03 2.311E+04 3.202E+04 3.203E+04 2.762E+07 31.2025 1.00000
  7.079E+10 7.079E+10 3.922E+00 5.330E+02 9.471E+03 2.646E+04 3.646E+04 3.646E+04 2.784E+07 31.4327 1.00000
  7.943E+10 7.943E+10 3.940E+00 5.983E+02 1.063E+04 3.029E+04 4.152E+04 4.152E+04 2.806E+07 31.6630 1.00000
  8.913E+10 8.913E+10 3.958E+00 6.715E+02 1.192E+04 3.469E+04 4.728E+04 4.729E+04 2.828E+07 31.8933 1.00000
  1.000E+11 1.000E+11 3.977E+00 7.537E+02 1.338E+04 3.973E+04 5.386E+04 5.386E+04 2.850E+07 32.1235 1.00000
  1.122E+11 1.122E+11 3.996E+00 8.459E+02 1.501E+04 4.550E+04 6.135E+04 6.136E+04 2.871E+07 32.3538 1.00000
  1.259E+11 1.259E+11 4.015E+00 9.494E+02 1.684E+04 5.211E+04 6.990E+04 6.990E+04 2.892E+07 32.5840 1.00000
  1.413E+11 1.413E+11 4.033E+00 1.066E+03 1.890E+04 5.968E+04 7.964E+04 7.965E+04 2.913E+07 32.8143 1.00000
  1.585E+11 1.585E+11 4.052E+00 1.196E+03 2.120E+04 6.836E+04 9.076E+04 9.076E+04 2.933E+07 33.0445 1.00000
  1.778E+11 1.778E+11 4.072E+00 1.342E+03 2.379E+04 7.831E+04 1.034E+05 1.034E+05 2.953E+07 33.2748 1.00000
  1.995E+11 1.995E+11 4.091E+00 1.506E+03 2.669E+04 8.970E+04 1.179E+05 1.179E+05 2.973E+07 33.5051 1.00000
  2.239E+11 2.239E+11 4.110E+00 1.690E+03 2.994E+04 1.028E+05 1.344E+05 1.344E+05 2.992E+07 33.7353 1.00000
  2.512E+11 2.512E+11 4.130E+00 1.897E+03 3.360E+04 1.177E+05 1.532E+05 1.532E+05 3.011E+07 33.9656 1.00000
  2.818E+11 2.818E+11 4.149E+00 2.128E+03 3.769E+04 1.349E+05 1.747E+05 1.747E+05 3.030E+07 34.1958 1.00000
  3.162E+11 3.162E+11 4.169E+00 2.388E+03 4.229E+04 1.546E+05 1.992E+05 1.992E+05 3.048E+07 34.4261 1.00000
  3.548E+11 3.548E+11 4.188E+00 2.680E+03 4.745E+04 1.771E+05 2.272E+05 2.272E+05 3.067E+07 34.6564 1.00000
  3.981E+11 3.981E+11 4.208E+00 3.008E+03 5.324E+04 2.029E+05 2.592E+05 2.592E+05 3.085E+07 34.8866 1.00000
  4.467E+11 4.467E+11 4.228E+00 3.375E+03 5.973E+04 2.326E+05 2.957E+05 2.957E+05 3.102E+07 35.1169 1.00000
  5.012E+11 5.012E+11 4.248E+00 3.787E+03 6.702E+04 2.665E+05 3.373E+05 3.373E+05 3.119E+07 35.3471 1.00000
  5.623E+11 5.623E+11 4.269E+00 4.250E+03 7.520E+04 3.054E+05 3.849E+05 3.849E+05 3.136E+07 35.5774 1.00000
  6.310E+11 6.310E+11 4.289E+00 4.769E+03 8.437E+04 3.501E+05 4.392E+05 4.392E+05 3.153E+07 35.8076 1.00000
  7.079E+11 7.079E+11 4.309E+00 5.351E+03 9.466E+04 4.013E+05 5.013E+05 5.013E+05 3.170E+07 36.0379 1.00000
  7.943E+11 7.943E+11 4.330E+00 6.004E+03 1.062E+05 4.599E+05 5.721E+05 5.722E+05 3.186E+07 36.2682 1.00000
  8.913E+11 8.913E+11 4.351E+00 6.737E+03 1.192E+05 5.272E+05 6.531E+05 6.531E+05 3.202E+07 36.4984 1.00000
  1.000E+12 1.000E+12 4.371E+00 7.559E+03 1.337E+05 6.044E+05 7.457E+05 7.457E+05 3.217E+07 36.7287 1.00000
  1.122E+12 1.122E+12 4.392E+00 8.482E+03 1.500E+05 6.929E+05 8.514E+05 8.514E+05 3.233E+07 36.9589 1.00000
  1.259E+12 1.259E+12 4.413E+00 9.518E+03 1.683E+05 7.944E+05 9.722E+05 9.722E+05 3.248E+07 37.1892 1.00000
  1.413E+12 1.413E+12 4.434E+00 1.068E+04 1.888E+05 9.108E+05 1.110E+06 1.110E+06 3.263E+07 37.4195 1.00000
  1.585E+12 1.585E+12 4.456E+00 1.198E+04 2.119E+05 1.044E+06 1.268E+06 1.268E+06 3.277E+07 37.6497 1.00000
  1.778E+12 1.778E+12 4.477E+00 1.345E+04 2.377E+05 1.198E+06 1.449E+06 1.449E+06 3.291E+07 37.8800 1.00000
  1.995E+12 1.995E+12 4.499E+00 1.509E+04 2.667E+05 1.373E+06 1.655E+06 1.655E+06 3.305E+07 38.1102 1.00000
  2.239E+12 2.239E+12 4.520E+00 1.693E+04 2.992E+05 1.575E+06 1.891E+06 1.891E+06 3.319E+07 38.3405 1.00000
  2.512E+12 2.512E+12 4.542E+00 1.899E+04 3.357E+05 1.806E+06 2.161E+06 2.161E+06 3.333E+07 38.5707 1.00000
  2.818E+12 2.818E+12 4.564E+00 2.131E+04 3.767E+05 2.071E+06 2.469E+06 2.469E+06 3.346E+07 38.8010 1.00000
  3.162E+12 3.162E+12 4.586E+00 2.391E+04 4.226E+05 2.376E+06 2.822E+06 2.822E+06 3.359E+07 39.0313 1.00000
  3.548E+12 3.548E+12 4.608E+00 2.683E+04 4.742E+05 2.725E+06 3.226E+06 3.226E+06 3.372E+07 39.2615 1.00000
  3.981E+12 3.981E+12 4.630E+00 3.010E+04 5.320E+05 3.126E+06 3.688E+06 3.688E+06 3.385E+07 39.4918 1.00000
  4.467E+12 4.467E+12 4.652E+00 3.378E+04 5.969E+05 3.585E+06 4.216E+06 4.216E+06 3.397E+07 39.7220 1.00000
  5.012E+12 5.012E+12 4.675E+00 3.790E+04 6.697E+05 4.113E+06 4.821E+06 4.821E+06 3.409E+07 39.9523 1.00000
  5.623E+12 5.623E+12 4.697E+00 4.253E+04 7.514E+05 4.719E+06 5.513E+06 5.513E+06 3.421E+07 40.1826 1.00000
  6.310E+12 6.310E+12 4.720E+00 4.772E+04 8.430E+05 5.414E+06 6.305E+06 6.305E+06 3.433E+07 40.4128 1.00000
  7.079E+12 7.079E+12 4.743E+00 5.354E+04 9.458E+05 6.212E+06 7.211E+06 7.211E+06 3.444E+07 40.6431 1.00000
  7.943E+12 7.943E+12 4.766E+00 6.007E+04 1.061E+06 7.127E+06 8.248E+06 8.248E+06 3.455E+07 40.8733 1.00000
  8.913E+12 8.913E+12 4.789E+00 6.740E+04 1.191E+06 8.178E+06 9.436E+06 9.436E+06 3.466E+07 41.1036 1.00000
  1.000E+13 1.000E+13 4.812E+00 7.563E+04 1.336E+06 9.385E+06 1.080E+07 1.080E+07 3.477E+07 41.3339 1.00000
  1.122E+13 1.122E+13 4.835E+00 8.485E+04 1.499E+06 1.077E+07 1.235E+07 1.235E+07 3.488E+07 41.5641 1.00000
  1.259E+13 1.259E+13 4.859E+00 9.521E+04 1.682E+06 1.236E+07 1.414E+07 1.414E+07 3.498E+07 41.7944 1.00000
  1.413E+13 1.413E+13 4.882E+00 1.068E+05 1.887E+06 1.418E+07 1.618E+07 1.618E+07 3.508E+07 42.0246 1.00000
  1.585E+13 1.585E+13 4.906E+00 1.199E+05 2.117E+06 1.628E+07 1.852E+07 1.852E+07 3.518E+07 42.2549 1.00000
  1.778E+13 1.778E+13 4.930E+00 1.345E+05 2.375E+06 1.869E+07 2.120E+07 2.120E+07 3.528E+07 42.4851 1.00000
  1.995E+13 1.995E+13 4.954E+00 1.509E+05 2.665E+06 2.145E+07 2.426E+07 2.426E+07 3.538E+07 42.7154 1.00000
  2.239E+13 2.239E+13 4.978E+00 1.693E+05 2.989E+06 2.462E+07 2.778E+07 2.778E+07 3.547E+07 42.9457 1.00000
  2.512E+13 2.512E+13 5.002E+00 1.900E+05 3.354E+06 2.827E+07 3.181E+07 3.181E+07 3.556E+07 43.1759 1.00000
  2.818E+13 2.818E+13 5.026E+00 2.132E+05 3.763E+06 3.245E+07 3.643E+07 3.643E+07 3.565E+07 43.4062 1.00000
  3.162E+13 3.162E+13 5.051E+00 2.392E+05 4.222E+06 3.725E+07 4.172E+07 4.172E+07 3.574E+07 43.6364 1.00000
  3.548E+13 3.548E+13 5.075E+00 2.683E+05 4.737E+06 4.277E+07 4.778E+07 4.778E+07 3.583E+07 43.8667 1.00000
  3.981E+13 3.981E+13 5.100E+00 3.011E+05 5.315E+06 4.911E+07 5.473E+07 5.473E+07 3.591E+07 44.0970 1.00000
  4.467E+13 4.467E+13 5.125E+00 3.378E+05 5.963E+06 5.639E+07 6.269E+07 6.269E+07 3.599E+07 44.3272 1.00000
  5.012E+13 5.012E+13 5.150E+00 3.790E+05 6.690E+06 6.475E+07 7.182E+07 7.182E+07 3.608E+07 44.5575 1.00000
  5.623E+13 5.623E+13 5.175E+00 4.253E+05 7.506E+06 7.436E+07 8.229E+07 8.229E+07 3.616E+07 44.7877 1.00000
  6.310E+13 6.310E+13 5.201E+00 4.772E+05 8.421E+06 8.539E+07 9.429E+07 9.429E+07 3.623E+07 45.0180 1.00000
  7.079E+13 7.079E+13 5.226E+00 5.354E+05 9.448E+06 9.807E+07 1.081E+08 1.081E+08 3.631E+07 45.2482 1.00000
  7.943E+13 7.943E+13 5.251E+00 6.007E+05 1.060E+07 1.126E+08 1.238E+08 1.238E+08 3.639E+07 45.4785 1.00000
  8.913E+13 8.913E+13 5.277E+00 6.740E+05 1.189E+07 1.294E+08 1.419E+08 1.419E+08 3.646E+07 45.7088 1.00000
