 Incident particle is a Tau with M = 1776.82000 MeV
 Index = 0: Amber
      Absorber with <Z/A> = 0.55170
 Sternheimer coef:  a     k=m_s   x_0    x_1    I[eV]   Cbar  delta0
                 0.1193  3.4098  0.1335  2.5610   63.2  3.0701 0.00

 *** Table generated with PUMAS v1.00 ***

      T         p     Ionization  brems     pair     photonuc  Radloss    dE/dx   CSDA Range  delta   beta
    [MeV]    [MeV/c]  -----------------------[MeV cm^2/g]------------------------  [g/cm^2]
  1.000E+05 1.018E+05 2.425E+00 1.164E-04 1.810E-03 8.440E-03 1.037E-02 2.436E+00 2.053E+04  5.0820 0.99985
  1.122E+05 1.140E+05 2.446E+00 1.344E-04 2.189E-03 9.538E-03 1.186E-02 2.458E+00 2.551E+04  5.2976 0.99988
  1.259E+05 1.277E+05 2.467E+00 1.552E-04 2.638E-03 1.072E-02 1.352E-02 2.480E+00 3.106E+04  5.5151 0.99990
  1.413E+05 1.430E+05 2.487E+00 1.791E-04 3.167E-03 1.206E-02 1.540E-02 2.503E+00 3.722E+04  5.7344 0.99992
  1.585E+05 1.603E+05 2.508E+00 2.065E-04 3.790E-03 1.355E-02 1.755E-02 2.525E+00 4.408E+04  5.9554 0.99994
  1.778E+05 1.796E+05 2.528E+00 2.381E-04 4.521E-03 1.522E-02 1.998E-02 2.548E+00 5.170E+04  6.1778 0.99995
  1.995E+05 2.013E+05 2.549E+00 2.743E-04 5.378E-03 1.713E-02 2.278E-02 2.571E+00 6.018E+04  6.4015 0.99996
  2.239E+05 2.256E+05 2.569E+00 3.160E-04 6.381E-03 1.922E-02 2.591E-02 2.595E+00 6.961E+04  6.6264 0.99997
  2.512E+05 2.530E+05 2.589E+00 3.638E-04 7.551E-03 2.156E-02 2.947E-02 2.619E+00 8.009E+04  6.8523 0.99998
  2.818E+05 2.836E+05 2.609E+00 4.187E-04 8.915E-03 2.419E-02 3.353E-02 2.643E+00 9.174E+04  7.0790 0.99998
  3.162E+05 3.180E+05 2.630E+00 4.816E-04 1.050E-02 2.718E-02 3.816E-02 2.668E+00 1.047E+05  7.3065 0.99998
  3.548E+05 3.566E+05 2.650E+00 5.539E-04 1.234E-02 3.053E-02 4.343E-02 2.693E+00 1.191E+05  7.5346 0.99999
  3.981E+05 3.999E+05 2.670E+00 6.367E-04 1.448E-02 3.427E-02 4.939E-02 2.719E+00 1.351E+05  7.7631 0.99999
  4.467E+05 4.485E+05 2.690E+00 7.316E-04 1.696E-02 3.847E-02 5.616E-02 2.746E+00 1.529E+05  7.9921 0.99999
  5.012E+05 5.030E+05 2.710E+00 8.404E-04 1.982E-02 4.321E-02 6.386E-02 2.774E+00 1.726E+05  8.2213 0.99999
  5.623E+05 5.641E+05 2.730E+00 9.651E-04 2.312E-02 4.833E-02 7.242E-02 2.802E+00 1.945E+05  8.4508 1.00000
  6.310E+05 6.327E+05 2.750E+00 1.108E-03 2.693E-02 5.412E-02 8.216E-02 2.832E+00 2.189E+05  8.6803 1.00000
  7.079E+05 7.097E+05 2.770E+00 1.271E-03 3.132E-02 6.065E-02 9.325E-02 2.863E+00 2.459E+05  8.9100 1.00000
  7.943E+05 7.961E+05 2.789E+00 1.459E-03 3.637E-02 6.803E-02 1.059E-01 2.895E+00 2.759E+05  9.1397 1.00000
  8.913E+05 8.930E+05 2.809E+00 1.673E-03 4.218E-02 7.638E-02 1.202E-01 2.929E+00 3.092E+05  9.3695 1.00000
  1.000E+06 1.002E+06 2.829E+00 1.918E-03 4.884E-02 8.582E-02 1.366E-01 2.965E+00 3.461E+05  9.5993 1.00000
  1.122E+06 1.124E+06 2.848E+00 2.199E-03 5.648E-02 9.651E-02 1.552E-01 3.003E+00 3.870E+05  9.8292 1.00000
  1.259E+06 1.261E+06 2.867E+00 2.520E-03 6.523E-02 1.086E-01 1.764E-01 3.044E+00 4.323E+05 10.0591 1.00000
  1.413E+06 1.414E+06 2.887E+00 2.887E-03 7.524E-02 1.224E-01 2.005E-01 3.087E+00 4.824E+05 10.2890 1.00000
  1.585E+06 1.587E+06 2.906E+00 3.306E-03 8.668E-02 1.379E-01 2.279E-01 3.134E+00 5.378E+05 10.5190 1.00000
  1.778E+06 1.780E+06 2.925E+00 3.786E-03 9.974E-02 1.556E-01 2.591E-01 3.184E+00 5.991E+05 10.7490 1.00000
  1.995E+06 1.997E+06 2.944E+00 4.334E-03 1.146E-01 1.757E-01 2.946E-01 3.238E+00 6.666E+05 10.9791 1.00000
  2.239E+06 2.240E+06 2.962E+00 4.961E-03 1.316E-01 1.985E-01 3.350E-01 3.297E+00 7.411E+05 11.2092 1.00000
  2.512E+06 2.514E+06 2.981E+00 5.677E-03 1.510E-01 2.244E-01 3.810E-01 3.362E+00 8.232E+05 11.4392 1.00000
  2.818E+06 2.820E+06 2.999E+00 6.495E-03 1.730E-01 2.538E-01 4.333E-01 3.433E+00 9.134E+05 11.6693 1.00000
  3.162E+06 3.164E+06 3.017E+00 7.428E-03 1.980E-01 2.873E-01 4.927E-01 3.510E+00 1.012E+06 11.8995 1.00000
  3.548E+06 3.550E+06 3.036E+00 8.494E-03 2.264E-01 3.254E-01 5.602E-01 3.596E+00 1.121E+06 12.1296 1.00000
  3.981E+06 3.983E+06 3.053E+00 9.711E-03 2.586E-01 3.687E-01 6.370E-01 3.690E+00 1.240E+06 12.3598 1.00000
  4.467E+06 4.469E+06 3.071E+00 1.110E-02 2.952E-01 4.181E-01 7.243E-01 3.795E+00 1.370E+06 12.5899 1.00000
  5.012E+06 5.014E+06 3.089E+00 1.268E-02 3.366E-01 4.742E-01 8.235E-01 3.912E+00 1.511E+06 12.8201 1.00000
  5.623E+06 5.625E+06 3.106E+00 1.449E-02 3.835E-01 5.382E-01 9.362E-01 4.042E+00 1.665E+06 13.0503 1.00000
  6.310E+06 6.311E+06 3.123E+00 1.655E-02 4.367E-01 6.110E-01 1.064E+00 4.187E+00 1.832E+06 13.2805 1.00000
  7.079E+06 7.081E+06 3.140E+00 1.890E-02 4.967E-01 6.940E-01 1.210E+00 4.350E+00 2.012E+06 13.5107 1.00000
  7.943E+06 7.945E+06 3.157E+00 2.157E-02 5.647E-01 7.886E-01 1.375E+00 4.532E+00 2.207E+06 13.7409 1.00000
  8.913E+06 8.914E+06 3.174E+00 2.462E-02 6.414E-01 8.964E-01 1.562E+00 4.736E+00 2.416E+06 13.9711 1.00000
  1.000E+07 1.000E+07 3.190E+00 2.809E-02 7.281E-01 1.019E+00 1.775E+00 4.966E+00 2.640E+06 14.2013 1.00000
  1.122E+07 1.122E+07 3.206E+00 3.204E-02 8.260E-01 1.159E+00 2.017E+00 5.224E+00 2.880E+06 14.4315 1.00000
  1.259E+07 1.259E+07 3.223E+00 3.654E-02 9.364E-01 1.319E+00 2.292E+00 5.515E+00 3.135E+06 14.6617 1.00000
  1.413E+07 1.413E+07 3.239E+00 4.166E-02 1.061E+00 1.501E+00 2.604E+00 5.842E+00 3.406E+06 14.8920 1.00000
  1.585E+07 1.585E+07 3.255E+00 4.748E-02 1.201E+00 1.709E+00 2.958E+00 6.212E+00 3.692E+06 15.1222 1.00000
  1.778E+07 1.778E+07 3.271E+00 5.410E-02 1.360E+00 1.946E+00 3.359E+00 6.630E+00 3.994E+06 15.3524 1.00000
  1.995E+07 1.995E+07 3.286E+00 6.163E-02 1.538E+00 2.216E+00 3.815E+00 7.102E+00 4.310E+06 15.5827 1.00000
  2.239E+07 2.239E+07 3.302E+00 7.019E-02 1.739E+00 2.524E+00 4.333E+00 7.635E+00 4.641E+06 15.8129 1.00000
  2.512E+07 2.512E+07 3.318E+00 7.991E-02 1.965E+00 2.876E+00 4.920E+00 8.238E+00 4.986E+06 16.0431 1.00000
  2.818E+07 2.819E+07 3.333E+00 9.095E-02 2.219E+00 3.277E+00 5.587E+00 8.920E+00 5.344E+06 16.2734 1.00000
  3.162E+07 3.162E+07 3.349E+00 1.035E-01 2.505E+00 3.735E+00 6.344E+00 9.693E+00 5.714E+06 16.5036 1.00000
  3.548E+07 3.548E+07 3.364E+00 1.177E-01 2.827E+00 4.258E+00 7.203E+00 1.057E+01 6.095E+06 16.7339 1.00000
  3.981E+07 3.981E+07 3.379E+00 1.339E-01 3.190E+00 4.854E+00 8.178E+00 1.156E+01 6.487E+06 16.9641 1.00000
  4.467E+07 4.467E+07 3.395E+00 1.522E-01 3.597E+00 5.535E+00 9.284E+00 1.268E+01 6.889E+06 17.1944 1.00000
  5.012E+07 5.012E+07 3.410E+00 1.730E-01 4.055E+00 6.313E+00 1.054E+01 1.395E+01 7.299E+06 17.4246 1.00000
  5.623E+07 5.624E+07 3.425E+00 1.965E-01 4.569E+00 7.200E+00 1.197E+01 1.539E+01 7.717E+06 17.6549 1.00000
  6.310E+07 6.310E+07 3.441E+00 2.233E-01 5.148E+00 8.213E+00 1.358E+01 1.702E+01 8.142E+06 17.8851 1.00000
  7.079E+07 7.080E+07 3.456E+00 2.535E-01 5.798E+00 9.370E+00 1.542E+01 1.888E+01 8.572E+06 18.1154 1.00000
  7.943E+07 7.943E+07 3.471E+00 2.878E-01 6.528E+00 1.069E+01 1.751E+01 2.098E+01 9.006E+06 18.3456 1.00000
  8.913E+07 8.913E+07 3.487E+00 3.266E-01 7.348E+00 1.220E+01 1.987E+01 2.336E+01 9.445E+06 18.5759 1.00000
  1.000E+08 1.000E+08 3.502E+00 3.706E-01 8.269E+00 1.392E+01 2.256E+01 2.606E+01 9.886E+06 18.8061 1.00000
  1.122E+08 1.122E+08 3.517E+00 4.203E-01 9.304E+00 1.589E+01 2.561E+01 2.913E+01 1.033E+07 19.0364 1.00000
  1.259E+08 1.259E+08 3.533E+00 4.766E-01 1.047E+01 1.813E+01 2.908E+01 3.261E+01 1.077E+07 19.2666 1.00000
  1.413E+08 1.413E+08 3.548E+00 5.402E-01 1.177E+01 2.070E+01 3.301E+01 3.656E+01 1.122E+07 19.4969 1.00000
  1.585E+08 1.585E+08 3.564E+00 6.122E-01 1.324E+01 2.363E+01 3.748E+01 4.104E+01 1.167E+07 19.7272 1.00000
  1.778E+08 1.778E+08 3.580E+00 6.936E-01 1.488E+01 2.698E+01 4.255E+01 4.613E+01 1.211E+07 19.9574 1.00000
  1.995E+08 1.995E+08 3.595E+00 7.856E-01 1.673E+01 3.080E+01 4.832E+01 5.191E+01 1.256E+07 20.1877 1.00000
  2.239E+08 2.239E+08 3.611E+00 8.895E-01 1.880E+01 3.517E+01 5.486E+01 5.847E+01 1.300E+07 20.4179 1.00000
  2.512E+08 2.512E+08 3.627E+00 1.007E+00 2.113E+01 4.016E+01 6.230E+01 6.592E+01 1.344E+07 20.6482 1.00000
  2.818E+08 2.818E+08 3.643E+00 1.139E+00 2.374E+01 4.587E+01 7.075E+01 7.439E+01 1.388E+07 20.8784 1.00000
  3.162E+08 3.162E+08 3.659E+00 1.289E+00 2.667E+01 5.238E+01 8.034E+01 8.400E+01 1.431E+07 21.1087 1.00000
  3.548E+08 3.548E+08 3.675E+00 1.458E+00 2.996E+01 5.983E+01 9.125E+01 9.492E+01 1.475E+07 21.3390 1.00000
  3.981E+08 3.981E+08 3.691E+00 1.648E+00 3.365E+01 6.834E+01 1.036E+02 1.073E+02 1.518E+07 21.5692 1.00000
  4.467E+08 4.467E+08 3.707E+00 1.863E+00 3.780E+01 7.806E+01 1.177E+02 1.214E+02 1.560E+07 21.7995 1.00000
  5.012E+08 5.012E+08 3.723E+00 2.105E+00 4.245E+01 8.918E+01 1.337E+02 1.375E+02 1.602E+07 22.0297 1.00000
  5.623E+08 5.623E+08 3.739E+00 2.379E+00 4.767E+01 1.019E+02 1.519E+02 1.557E+02 1.644E+07 22.2600 1.00000
  6.310E+08 6.310E+08 3.756E+00 2.686E+00 5.353E+01 1.164E+02 1.726E+02 1.764E+02 1.686E+07 22.4902 1.00000
  7.079E+08 7.079E+08 3.772E+00 3.033E+00 6.010E+01 1.330E+02 1.961E+02 1.999E+02 1.727E+07 22.7205 1.00000
  7.943E+08 7.943E+08 3.789E+00 3.425E+00 6.748E+01 1.520E+02 2.229E+02 2.267E+02 1.768E+07 22.9508 1.00000
  8.913E+08 8.913E+08 3.805E+00 3.865E+00 7.576E+01 1.736E+02 2.533E+02 2.571E+02 1.808E+07 23.1810 1.00000
  1.000E+09 1.000E+09 3.822E+00 4.361E+00 8.505E+01 1.984E+02 2.878E+02 2.917E+02 1.848E+07 23.4113 1.00000
  1.122E+09 1.122E+09 3.839E+00 4.920E+00 9.547E+01 2.268E+02 3.272E+02 3.310E+02 1.887E+07 23.6415 1.00000
  1.259E+09 1.259E+09 3.856E+00 5.549E+00 1.072E+02 2.592E+02 3.719E+02 3.758E+02 1.926E+07 23.8718 1.00000
  1.413E+09 1.413E+09 3.873E+00 6.257E+00 1.203E+02 2.962E+02 4.228E+02 4.267E+02 1.964E+07 24.1020 1.00000
  1.585E+09 1.585E+09 3.890E+00 7.053E+00 1.350E+02 3.386E+02 4.807E+02 4.846E+02 2.002E+07 24.3323 1.00000
  1.778E+09 1.778E+09 3.907E+00 7.950E+00 1.516E+02 3.870E+02 5.466E+02 5.505E+02 2.040E+07 24.5626 1.00000
  1.995E+09 1.995E+09 3.924E+00 8.958E+00 1.701E+02 4.425E+02 6.215E+02 6.254E+02 2.077E+07 24.7928 1.00000
  2.239E+09 2.239E+09 3.942E+00 1.009E+01 1.909E+02 5.058E+02 7.068E+02 7.108E+02 2.113E+07 25.0231 1.00000
  2.512E+09 2.512E+09 3.959E+00 1.137E+01 2.143E+02 5.783E+02 8.039E+02 8.079E+02 2.150E+07 25.2533 1.00000
  2.818E+09 2.818E+09 3.977E+00 1.280E+01 2.405E+02 6.612E+02 9.144E+02 9.184E+02 2.185E+07 25.4836 1.00000
  3.162E+09 3.162E+09 3.994E+00 1.441E+01 2.698E+02 7.560E+02 1.040E+03 1.044E+03 2.220E+07 25.7139 1.00000
  3.548E+09 3.548E+09 4.012E+00 1.623E+01 3.028E+02 8.644E+02 1.183E+03 1.187E+03 2.255E+07 25.9441 1.00000
  3.981E+09 3.981E+09 4.030E+00 1.827E+01 3.398E+02 9.884E+02 1.347E+03 1.351E+03 2.289E+07 26.1744 1.00000
  4.467E+09 4.467E+09 4.048E+00 2.056E+01 3.814E+02 1.130E+03 1.532E+03 1.536E+03 2.323E+07 26.4046 1.00000
  5.012E+09 5.012E+09 4.066E+00 2.313E+01 4.280E+02 1.293E+03 1.744E+03 1.748E+03 2.357E+07 26.6349 1.00000
  5.623E+09 5.623E+09 4.084E+00 2.602E+01 4.802E+02 1.478E+03 1.985E+03 1.989E+03 2.389E+07 26.8651 1.00000
  6.310E+09 6.310E+09 4.102E+00 2.927E+01 5.389E+02 1.691E+03 2.259E+03 2.263E+03 2.422E+07 27.0954 1.00000
  7.079E+09 7.079E+09 4.121E+00 3.292E+01 6.047E+02 1.934E+03 2.572E+03 2.576E+03 2.454E+07 27.3257 1.00000
  7.943E+09 7.943E+09 4.139E+00 3.702E+01 6.785E+02 2.212E+03 2.928E+03 2.932E+03 2.485E+07 27.5559 1.00000
  8.913E+09 8.913E+09 4.158E+00 4.162E+01 7.614E+02 2.531E+03 3.334E+03 3.338E+03 2.516E+07 27.7862 1.00000
  1.000E+10 1.000E+10 4.177E+00 4.680E+01 8.544E+02 2.895E+03 3.796E+03 3.801E+03 2.547E+07 28.0164 1.00000
  1.122E+10 1.122E+10 4.195E+00 5.260E+01 9.587E+02 3.312E+03 4.324E+03 4.328E+03 2.577E+07 28.2467 1.00000
  1.259E+10 1.259E+10 4.214E+00 5.913E+01 1.076E+03 3.790E+03 4.924E+03 4.929E+03 2.607E+07 28.4770 1.00000
  1.413E+10 1.413E+10 4.233E+00 6.645E+01 1.207E+03 4.336E+03 5.609E+03 5.614E+03 2.636E+07 28.7072 1.00000
  1.585E+10 1.585E+10 4.252E+00 7.467E+01 1.354E+03 4.961E+03 6.390E+03 6.395E+03 2.665E+07 28.9375 1.00000
  1.778E+10 1.778E+10 4.272E+00 8.391E+01 1.520E+03 5.677E+03 7.281E+03 7.285E+03 2.693E+07 29.1677 1.00000
  1.995E+10 1.995E+10 4.291E+00 9.427E+01 1.705E+03 6.497E+03 8.296E+03 8.300E+03 2.721E+07 29.3980 1.00000
  2.239E+10 2.239E+10 4.310E+00 1.059E+02 1.913E+03 7.435E+03 9.454E+03 9.458E+03 2.749E+07 29.6283 1.00000
  2.512E+10 2.512E+10 4.330E+00 1.190E+02 2.147E+03 8.509E+03 1.077E+04 1.078E+04 2.776E+07 29.8585 1.00000
  2.818E+10 2.818E+10 4.349E+00 1.336E+02 2.409E+03 9.739E+03 1.228E+04 1.229E+04 2.803E+07 30.0888 1.00000
  3.162E+10 3.162E+10 4.369E+00 1.501E+02 2.703E+03 1.115E+04 1.400E+04 1.400E+04 2.829E+07 30.3190 1.00000
  3.548E+10 3.548E+10 4.389E+00 1.686E+02 3.032E+03 1.276E+04 1.596E+04 1.596E+04 2.855E+07 30.5493 1.00000
  3.981E+10 3.981E+10 4.409E+00 1.893E+02 3.402E+03 1.461E+04 1.820E+04 1.820E+04 2.880E+07 30.7795 1.00000
  4.467E+10 4.467E+10 4.429E+00 2.126E+02 3.818E+03 1.672E+04 2.075E+04 2.075E+04 2.905E+07 31.0098 1.00000
  5.012E+10 5.012E+10 4.449E+00 2.387E+02 4.283E+03 1.914E+04 2.366E+04 2.367E+04 2.930E+07 31.2401 1.00000
  5.623E+10 5.623E+10 4.470E+00 2.680E+02 4.806E+03 2.191E+04 2.699E+04 2.699E+04 2.954E+07 31.4703 1.00000
  6.310E+10 6.310E+10 4.490E+00 3.009E+02 5.392E+03 2.509E+04 3.078E+04 3.079E+04 2.978E+07 31.7006 1.00000
  7.079E+10 7.079E+10 4.511E+00 3.378E+02 6.050E+03 2.873E+04 3.512E+04 3.512E+04 3.001E+07 31.9308 1.00000
  7.943E+10 7.943E+10 4.531E+00 3.793E+02 6.788E+03 3.290E+04 4.006E+04 4.007E+04 3.024E+07 32.1611 1.00000
  8.913E+10 8.913E+10 4.552E+00 4.258E+02 7.617E+03 3.767E+04 4.571E+04 4.572E+04 3.047E+07 32.3914 1.00000
  1.000E+11 1.000E+11 4.573E+00 4.780E+02 8.546E+03 4.314E+04 5.216E+04 5.217E+04 3.069E+07 32.6216 1.00000
  1.122E+11 1.122E+11 4.594E+00 5.365E+02 9.588E+03 4.941E+04 5.953E+04 5.954E+04 3.091E+07 32.8519 1.00000
  1.259E+11 1.259E+11 4.615E+00 6.022E+02 1.076E+04 5.659E+04 6.795E+04 6.795E+04 3.113E+07 33.0821 1.00000
  1.413E+11 1.413E+11 4.636E+00 6.760E+02 1.207E+04 6.481E+04 7.756E+04 7.756E+04 3.134E+07 33.3124 1.00000
  1.585E+11 1.585E+11 4.658E+00 7.587E+02 1.354E+04 7.424E+04 8.854E+04 8.854E+04 3.155E+07 33.5426 1.00000
  1.778E+11 1.778E+11 4.679E+00 8.515E+02 1.520E+04 8.504E+04 1.011E+05 1.011E+05 3.176E+07 33.7729 1.00000
  1.995E+11 1.995E+11 4.701E+00 9.557E+02 1.705E+04 9.741E+04 1.154E+05 1.154E+05 3.196E+07 34.0032 1.00000
  2.239E+11 2.239E+11 4.723E+00 1.073E+03 1.913E+04 1.116E+05 1.318E+05 1.318E+05 3.215E+07 34.2334 1.00000
  2.512E+11 2.512E+11 4.745E+00 1.204E+03 2.146E+04 1.279E+05 1.505E+05 1.505E+05 3.235E+07 34.4637 1.00000
  2.818E+11 2.818E+11 4.767E+00 1.351E+03 2.408E+04 1.465E+05 1.719E+05 1.719E+05 3.254E+07 34.6939 1.00000
  3.162E+11 3.162E+11 4.789E+00 1.516E+03 2.702E+04 1.678E+05 1.964E+05 1.964E+05 3.273E+07 34.9242 1.00000
  3.548E+11 3.548E+11 4.811E+00 1.701E+03 3.031E+04 1.923E+05 2.243E+05 2.243E+05 3.291E+07 35.1545 1.00000
  3.981E+11 3.981E+11 4.833E+00 1.909E+03 3.401E+04 2.204E+05 2.563E+05 2.563E+05 3.309E+07 35.3847 1.00000
  4.467E+11 4.467E+11 4.856E+00 2.143E+03 3.816E+04 2.525E+05 2.928E+05 2.928E+05 3.327E+07 35.6150 1.00000
  5.012E+11 5.012E+11 4.878E+00 2.405E+03 4.282E+04 2.894E+05 3.346E+05 3.346E+05 3.344E+07 35.8452 1.00000
  5.623E+11 5.623E+11 4.901E+00 2.698E+03 4.804E+04 3.317E+05 3.824E+05 3.824E+05 3.362E+07 36.0755 1.00000
  6.310E+11 6.310E+11 4.924E+00 3.028E+03 5.390E+04 3.802E+05 4.371E+05 4.371E+05 3.378E+07 36.3057 1.00000
  7.079E+11 7.079E+11 4.947E+00 3.398E+03 6.047E+04 4.357E+05 4.996E+05 4.996E+05 3.395E+07 36.5360 1.00000
  7.943E+11 7.943E+11 4.970E+00 3.813E+03 6.785E+04 4.995E+05 5.711E+05 5.711E+05 3.411E+07 36.7663 1.00000
  8.913E+11 8.913E+11 4.993E+00 4.278E+03 7.612E+04 5.725E+05 6.529E+05 6.529E+05 3.427E+07 36.9965 1.00000
  1.000E+12 1.000E+12 5.017E+00 4.801E+03 8.541E+04 6.563E+05 7.466E+05 7.466E+05 3.443E+07 37.2268 1.00000
  1.122E+12 1.122E+12 5.040E+00 5.387E+03 9.583E+04 7.525E+05 8.537E+05 8.537E+05 3.458E+07 37.4570 1.00000
  1.259E+12 1.259E+12 5.064E+00 6.045E+03 1.075E+05 8.627E+05 9.762E+05 9.762E+05 3.473E+07 37.6873 1.00000
  1.413E+12 1.413E+12 5.088E+00 6.783E+03 1.206E+05 9.891E+05 1.117E+06 1.117E+06 3.488E+07 37.9176 1.00000
  1.585E+12 1.585E+12 5.112E+00 7.611E+03 1.353E+05 1.134E+06 1.277E+06 1.277E+06 3.502E+07 38.1478 1.00000
  1.778E+12 1.778E+12 5.136E+00 8.540E+03 1.519E+05 1.300E+06 1.461E+06 1.461E+06 3.516E+07 38.3781 1.00000
  1.995E+12 1.995E+12 5.160E+00 9.582E+03 1.704E+05 1.491E+06 1.671E+06 1.671E+06 3.530E+07 38.6083 1.00000
  2.239E+12 2.239E+12 5.184E+00 1.075E+04 1.912E+05 1.710E+06 1.912E+06 1.912E+06 3.544E+07 38.8386 1.00000
  2.512E+12 2.512E+12 5.208E+00 1.206E+04 2.145E+05 1.961E+06 2.188E+06 2.188E+06 3.557E+07 39.0688 1.00000
  2.818E+12 2.818E+12 5.233E+00 1.354E+04 2.406E+05 2.249E+06 2.503E+06 2.503E+06 3.570E+07 39.2991 1.00000
  3.162E+12 3.162E+12 5.258E+00 1.519E+04 2.700E+05 2.580E+06 2.865E+06 2.865E+06 3.583E+07 39.5294 1.00000
  3.548E+12 3.548E+12 5.283E+00 1.704E+04 3.029E+05 2.959E+06 3.279E+06 3.279E+06 3.596E+07 39.7596 1.00000
  3.981E+12 3.981E+12 5.308E+00 1.912E+04 3.399E+05 3.394E+06 3.753E+06 3.753E+06 3.608E+07 39.9899 1.00000
  4.467E+12 4.467E+12 5.333E+00 2.146E+04 3.813E+05 3.894E+06 4.296E+06 4.296E+06 3.620E+07 40.2201 1.00000
  5.012E+12 5.012E+12 5.358E+00 2.407E+04 4.278E+05 4.467E+06 4.919E+06 4.919E+06 3.632E+07 40.4504 1.00000
  5.623E+12 5.623E+12 5.383E+00 2.701E+04 4.800E+05 5.124E+06 5.631E+06 5.631E+06 3.644E+07 40.6807 1.00000
  6.310E+12 6.310E+12 5.409E+00 3.031E+04 5.385E+05 5.879E+06 6.448E+06 6.448E+06 3.655E+07 40.9109 1.00000
  7.079E+12 7.079E+12 5.434E+00 3.401E+04 6.042E+05 6.745E+06 7.384E+06 7.384E+06 3.667E+07 41.1412 1.00000
  7.943E+12 7.943E+12 5.460E+00 3.816E+04 6.779E+05 7.740E+06 8.456E+06 8.456E+06 3.678E+07 41.3714 1.00000
  8.913E+12 8.913E+12 5.486E+00 4.281E+04 7.606E+05 8.881E+06 9.684E+06 9.684E+06 3.688E+07 41.6017 1.00000
  1.000E+13 1.000E+13 5.512E+00 4.804E+04 8.534E+05 1.019E+07 1.109E+07 1.109E+07 3.699E+07 41.8320 1.00000
  1.122E+13 1.122E+13 5.539E+00 5.390E+04 9.574E+05 1.170E+07 1.271E+07 1.271E+07 3.709E+07 42.0622 1.00000
  1.259E+13 1.259E+13 5.565E+00 6.048E+04 1.074E+06 1.342E+07 1.456E+07 1.456E+07 3.719E+07 42.2925 1.00000
  1.413E+13 1.413E+13 5.591E+00 6.786E+04 1.205E+06 1.540E+07 1.668E+07 1.668E+07 3.729E+07 42.5227 1.00000
  1.585E+13 1.585E+13 5.618E+00 7.614E+04 1.352E+06 1.768E+07 1.911E+07 1.911E+07 3.739E+07 42.7530 1.00000
  1.778E+13 1.778E+13 5.645E+00 8.543E+04 1.517E+06 2.029E+07 2.190E+07 2.190E+07 3.748E+07 42.9832 1.00000
  1.995E+13 1.995E+13 5.672E+00 9.586E+04 1.702E+06 2.329E+07 2.509E+07 2.509E+07 3.758E+07 43.2135 1.00000
  2.239E+13 2.239E+13 5.699E+00 1.076E+05 1.910E+06 2.674E+07 2.876E+07 2.876E+07 3.767E+07 43.4438 1.00000
  2.512E+13 2.512E+13 5.726E+00 1.207E+05 2.143E+06 3.069E+07 3.296E+07 3.296E+07 3.776E+07 43.6740 1.00000
  2.818E+13 2.818E+13 5.754E+00 1.354E+05 2.404E+06 3.524E+07 3.778E+07 3.778E+07 3.784E+07 43.9043 1.00000
  3.162E+13 3.162E+13 5.781E+00 1.519E+05 2.697E+06 4.046E+07 4.330E+07 4.330E+07 3.793E+07 44.1345 1.00000
  3.548E+13 3.548E+13 5.809E+00 1.705E+05 3.026E+06 4.645E+07 4.964E+07 4.964E+07 3.801E+07 44.3648 1.00000
  3.981E+13 3.981E+13 5.837E+00 1.913E+05 3.395E+06 5.333E+07 5.692E+07 5.692E+07 3.809E+07 44.5951 1.00000
  4.467E+13 4.467E+13 5.865E+00 2.146E+05 3.809E+06 6.124E+07 6.526E+07 6.526E+07 3.817E+07 44.8253 1.00000
  5.012E+13 5.012E+13 5.893E+00 2.408E+05 4.274E+06 7.032E+07 7.483E+07 7.483E+07 3.825E+07 45.0556 1.00000
  5.623E+13 5.623E+13 5.921E+00 2.702E+05 4.795E+06 8.075E+07 8.581E+07 8.581E+07 3.833E+07 45.2858 1.00000
  6.310E+13 6.310E+13 5.949E+00 3.031E+05 5.380E+06 9.273E+07 9.841E+07 9.841E+07 3.840E+07 45.5161 1.00000
  7.079E+13 7.079E+13 5.978E+00 3.401E+05 6.036E+06 1.065E+08 1.129E+08 1.129E+08 3.847E+07 45.7463 1.00000
  7.943E+13 7.943E+13 6.007E+00 3.816E+05 6.772E+06 1.223E+08 1.295E+08 1.295E+08 3.855E+07 45.9766 1.00000
  8.913E+13 8.913E+13 6.036E+00 4.282E+05 7.598E+06 1.405E+08 1.485E+08 1.485E+08 3.862E+07 46.2069 1.00000
