 Incident particle is a Tau with M = 1776.82000 MeV
 Index = 0: Aniline
      Absorber with <Z/A> = 0.53684
 Sternheimer coef:  a     k=m_s   x_0    x_1    I[eV]   Cbar  delta0
                 0.1313  3.3434  0.1618  2.5805   66.2  3.2622 0.00

 *** Table generated with PUMAS v1.00 ***

      T         p     Ionization  brems     pair     photonuc  Radloss    dE/dx   CSDA Range  delta   beta
    [MeV]    [MeV/c]  -----------------------[MeV cm^2/g]------------------------  [g/cm^2]
  1.000E+05 1.018E+05 2.367E+00 1.175E-04 1.824E-03 8.416E-03 1.036E-02 2.378E+00 2.103E+04  4.9017 0.99985
  1.122E+05 1.140E+05 2.388E+00 1.357E-04 2.206E-03 9.510E-03 1.185E-02 2.399E+00 2.614E+04  5.1155 0.99988
  1.259E+05 1.277E+05 2.408E+00 1.567E-04 2.657E-03 1.069E-02 1.350E-02 2.421E+00 3.182E+04  5.3315 0.99990
  1.413E+05 1.430E+05 2.428E+00 1.808E-04 3.189E-03 1.202E-02 1.539E-02 2.443E+00 3.813E+04  5.5494 0.99992
  1.585E+05 1.603E+05 2.448E+00 2.085E-04 3.816E-03 1.350E-02 1.753E-02 2.465E+00 4.516E+04  5.7690 0.99994
  1.778E+05 1.796E+05 2.468E+00 2.403E-04 4.551E-03 1.517E-02 1.996E-02 2.488E+00 5.296E+04  5.9903 0.99995
  1.995E+05 2.013E+05 2.488E+00 2.769E-04 5.413E-03 1.706E-02 2.275E-02 2.511E+00 6.165E+04  6.2131 0.99996
  2.239E+05 2.256E+05 2.508E+00 3.190E-04 6.420E-03 1.914E-02 2.588E-02 2.534E+00 7.130E+04  6.4371 0.99997
  2.512E+05 2.530E+05 2.528E+00 3.672E-04 7.597E-03 2.147E-02 2.943E-02 2.557E+00 8.203E+04  6.6622 0.99998
  2.818E+05 2.836E+05 2.547E+00 4.226E-04 8.968E-03 2.409E-02 3.348E-02 2.581E+00 9.396E+04  6.8884 0.99998
  3.162E+05 3.180E+05 2.567E+00 4.862E-04 1.056E-02 2.706E-02 3.810E-02 2.605E+00 1.072E+05  7.1154 0.99998
  3.548E+05 3.566E+05 2.587E+00 5.591E-04 1.241E-02 3.039E-02 4.336E-02 2.630E+00 1.220E+05  7.3431 0.99999
  3.981E+05 3.999E+05 2.606E+00 6.427E-04 1.456E-02 3.411E-02 4.931E-02 2.655E+00 1.384E+05  7.5714 0.99999
  4.467E+05 4.485E+05 2.626E+00 7.385E-04 1.705E-02 3.828E-02 5.607E-02 2.682E+00 1.566E+05  7.8002 0.99999
  5.012E+05 5.030E+05 2.645E+00 8.483E-04 1.992E-02 4.298E-02 6.376E-02 2.709E+00 1.768E+05  8.0293 0.99999
  5.623E+05 5.641E+05 2.665E+00 9.741E-04 2.324E-02 4.808E-02 7.230E-02 2.737E+00 1.992E+05  8.2587 1.00000
  6.310E+05 6.327E+05 2.684E+00 1.118E-03 2.707E-02 5.383E-02 8.202E-02 2.766E+00 2.242E+05  8.4882 1.00000
  7.079E+05 7.097E+05 2.703E+00 1.283E-03 3.148E-02 6.032E-02 9.308E-02 2.796E+00 2.519E+05  8.7179 1.00000
  7.943E+05 7.961E+05 2.722E+00 1.472E-03 3.656E-02 6.765E-02 1.057E-01 2.828E+00 2.826E+05  8.9476 1.00000
  8.913E+05 8.930E+05 2.742E+00 1.688E-03 4.239E-02 7.594E-02 1.200E-01 2.862E+00 3.167E+05  9.1774 1.00000
  1.000E+06 1.002E+06 2.761E+00 1.935E-03 4.908E-02 8.531E-02 1.363E-01 2.897E+00 3.544E+05  9.4072 1.00000
  1.122E+06 1.124E+06 2.780E+00 2.218E-03 5.675E-02 9.593E-02 1.549E-01 2.934E+00 3.963E+05  9.6371 1.00000
  1.259E+06 1.261E+06 2.798E+00 2.542E-03 6.554E-02 1.080E-01 1.760E-01 2.974E+00 4.426E+05  9.8670 1.00000
  1.413E+06 1.414E+06 2.817E+00 2.912E-03 7.559E-02 1.216E-01 2.001E-01 3.017E+00 4.939E+05 10.0969 1.00000
  1.585E+06 1.587E+06 2.836E+00 3.336E-03 8.707E-02 1.370E-01 2.275E-01 3.063E+00 5.506E+05 10.3269 1.00000
  1.778E+06 1.780E+06 2.854E+00 3.819E-03 1.002E-01 1.546E-01 2.586E-01 3.113E+00 6.132E+05 10.5569 1.00000
  1.995E+06 1.997E+06 2.873E+00 4.372E-03 1.152E-01 1.745E-01 2.940E-01 3.167E+00 6.823E+05 10.7870 1.00000
  2.239E+06 2.240E+06 2.891E+00 5.004E-03 1.322E-01 1.971E-01 3.343E-01 3.225E+00 7.585E+05 11.0171 1.00000
  2.512E+06 2.514E+06 2.909E+00 5.726E-03 1.516E-01 2.229E-01 3.802E-01 3.289E+00 8.424E+05 11.2471 1.00000
  2.818E+06 2.820E+06 2.927E+00 6.550E-03 1.737E-01 2.521E-01 4.323E-01 3.359E+00 9.346E+05 11.4772 1.00000
  3.162E+06 3.164E+06 2.944E+00 7.491E-03 1.988E-01 2.853E-01 4.916E-01 3.436E+00 1.036E+06 11.7074 1.00000
  3.548E+06 3.550E+06 2.962E+00 8.565E-03 2.273E-01 3.231E-01 5.590E-01 3.521E+00 1.147E+06 11.9375 1.00000
  3.981E+06 3.983E+06 2.979E+00 9.791E-03 2.597E-01 3.661E-01 6.356E-01 3.615E+00 1.268E+06 12.1677 1.00000
  4.467E+06 4.469E+06 2.997E+00 1.119E-02 2.964E-01 4.151E-01 7.227E-01 3.719E+00 1.401E+06 12.3978 1.00000
  5.012E+06 5.014E+06 3.014E+00 1.278E-02 3.379E-01 4.709E-01 8.216E-01 3.835E+00 1.545E+06 12.6280 1.00000
  5.623E+06 5.625E+06 3.031E+00 1.460E-02 3.850E-01 5.343E-01 9.340E-01 3.964E+00 1.702E+06 12.8582 1.00000
  6.310E+06 6.311E+06 3.047E+00 1.668E-02 4.383E-01 6.066E-01 1.062E+00 4.109E+00 1.872E+06 13.0884 1.00000
  7.079E+06 7.081E+06 3.064E+00 1.904E-02 4.986E-01 6.890E-01 1.207E+00 4.270E+00 2.056E+06 13.3186 1.00000
  7.943E+06 7.945E+06 3.080E+00 2.174E-02 5.668E-01 7.829E-01 1.371E+00 4.452E+00 2.254E+06 13.5488 1.00000
  8.913E+06 8.914E+06 3.096E+00 2.480E-02 6.438E-01 8.898E-01 1.558E+00 4.655E+00 2.467E+06 13.7790 1.00000
  1.000E+07 1.000E+07 3.112E+00 2.830E-02 7.308E-01 1.012E+00 1.771E+00 4.883E+00 2.695E+06 14.0092 1.00000
  1.122E+07 1.122E+07 3.128E+00 3.228E-02 8.290E-01 1.151E+00 2.012E+00 5.140E+00 2.939E+06 14.2394 1.00000
  1.259E+07 1.259E+07 3.144E+00 3.680E-02 9.398E-01 1.309E+00 2.286E+00 5.430E+00 3.198E+06 14.4696 1.00000
  1.413E+07 1.413E+07 3.160E+00 4.196E-02 1.065E+00 1.490E+00 2.597E+00 5.756E+00 3.473E+06 14.6999 1.00000
  1.585E+07 1.585E+07 3.175E+00 4.782E-02 1.206E+00 1.696E+00 2.949E+00 6.125E+00 3.763E+06 14.9301 1.00000
  1.778E+07 1.778E+07 3.191E+00 5.448E-02 1.364E+00 1.931E+00 3.350E+00 6.541E+00 4.069E+06 15.1603 1.00000
  1.995E+07 1.995E+07 3.206E+00 6.205E-02 1.543E+00 2.199E+00 3.805E+00 7.011E+00 4.389E+06 15.3906 1.00000
  2.239E+07 2.239E+07 3.221E+00 7.066E-02 1.745E+00 2.505E+00 4.320E+00 7.542E+00 4.725E+06 15.6208 1.00000
  2.512E+07 2.512E+07 3.236E+00 8.044E-02 1.971E+00 2.854E+00 4.906E+00 8.142E+00 5.073E+06 15.8510 1.00000
  2.818E+07 2.819E+07 3.251E+00 9.155E-02 2.226E+00 3.253E+00 5.571E+00 8.822E+00 5.435E+06 16.0813 1.00000
  3.162E+07 3.162E+07 3.267E+00 1.042E-01 2.514E+00 3.707E+00 6.325E+00 9.591E+00 5.809E+06 16.3115 1.00000
  3.548E+07 3.548E+07 3.281E+00 1.185E-01 2.837E+00 4.226E+00 7.181E+00 1.046E+01 6.195E+06 16.5418 1.00000
  3.981E+07 3.981E+07 3.296E+00 1.347E-01 3.200E+00 4.818E+00 8.153E+00 1.145E+01 6.591E+06 16.7720 1.00000
  4.467E+07 4.467E+07 3.311E+00 1.532E-01 3.608E+00 5.494E+00 9.255E+00 1.257E+01 6.996E+06 17.0023 1.00000
  5.012E+07 5.012E+07 3.326E+00 1.740E-01 4.068E+00 6.265E+00 1.051E+01 1.383E+01 7.410E+06 17.2325 1.00000
  5.623E+07 5.624E+07 3.341E+00 1.977E-01 4.584E+00 7.146E+00 1.193E+01 1.527E+01 7.832E+06 17.4628 1.00000
  6.310E+07 6.310E+07 3.356E+00 2.246E-01 5.164E+00 8.151E+00 1.354E+01 1.690E+01 8.259E+06 17.6930 1.00000
  7.079E+07 7.080E+07 3.371E+00 2.550E-01 5.815E+00 9.299E+00 1.537E+01 1.874E+01 8.693E+06 17.9233 1.00000
  7.943E+07 7.943E+07 3.386E+00 2.895E-01 6.548E+00 1.061E+01 1.745E+01 2.083E+01 9.130E+06 18.1535 1.00000
  8.913E+07 8.913E+07 3.401E+00 3.285E-01 7.370E+00 1.211E+01 1.981E+01 2.321E+01 9.572E+06 18.3838 1.00000
  1.000E+08 1.000E+08 3.416E+00 3.727E-01 8.294E+00 1.382E+01 2.248E+01 2.590E+01 1.002E+07 18.6140 1.00000
  1.122E+08 1.122E+08 3.431E+00 4.227E-01 9.332E+00 1.577E+01 2.552E+01 2.895E+01 1.046E+07 18.8443 1.00000
  1.259E+08 1.259E+08 3.446E+00 4.792E-01 1.050E+01 1.800E+01 2.897E+01 3.242E+01 1.091E+07 19.0745 1.00000
  1.413E+08 1.413E+08 3.461E+00 5.432E-01 1.181E+01 2.054E+01 3.289E+01 3.635E+01 1.136E+07 19.3048 1.00000
  1.585E+08 1.585E+08 3.476E+00 6.155E-01 1.327E+01 2.345E+01 3.734E+01 4.082E+01 1.181E+07 19.5351 1.00000
  1.778E+08 1.778E+08 3.491E+00 6.973E-01 1.492E+01 2.677E+01 4.240E+01 4.589E+01 1.225E+07 19.7653 1.00000
  1.995E+08 1.995E+08 3.507E+00 7.897E-01 1.678E+01 3.057E+01 4.814E+01 5.164E+01 1.270E+07 19.9956 1.00000
  2.239E+08 2.239E+08 3.522E+00 8.940E-01 1.885E+01 3.491E+01 5.465E+01 5.818E+01 1.315E+07 20.2258 1.00000
  2.512E+08 2.512E+08 3.537E+00 1.012E+00 2.119E+01 3.986E+01 6.206E+01 6.560E+01 1.359E+07 20.4561 1.00000
  2.818E+08 2.818E+08 3.553E+00 1.145E+00 2.381E+01 4.552E+01 7.047E+01 7.402E+01 1.403E+07 20.6863 1.00000
  3.162E+08 3.162E+08 3.568E+00 1.295E+00 2.675E+01 5.199E+01 8.003E+01 8.360E+01 1.447E+07 20.9166 1.00000
  3.548E+08 3.548E+08 3.584E+00 1.465E+00 3.005E+01 5.938E+01 9.089E+01 9.447E+01 1.490E+07 21.1469 1.00000
  3.981E+08 3.981E+08 3.599E+00 1.656E+00 3.375E+01 6.782E+01 1.032E+02 1.068E+02 1.533E+07 21.3771 1.00000
  4.467E+08 4.467E+08 3.615E+00 1.872E+00 3.791E+01 7.747E+01 1.172E+02 1.209E+02 1.576E+07 21.6074 1.00000
  5.012E+08 5.012E+08 3.631E+00 2.115E+00 4.257E+01 8.850E+01 1.332E+02 1.368E+02 1.619E+07 21.8376 1.00000
  5.623E+08 5.623E+08 3.647E+00 2.389E+00 4.781E+01 1.011E+02 1.513E+02 1.549E+02 1.661E+07 22.0679 1.00000
  6.310E+08 6.310E+08 3.663E+00 2.699E+00 5.368E+01 1.155E+02 1.719E+02 1.756E+02 1.702E+07 22.2981 1.00000
  7.079E+08 7.079E+08 3.679E+00 3.047E+00 6.027E+01 1.320E+02 1.953E+02 1.990E+02 1.744E+07 22.5284 1.00000
  7.943E+08 7.943E+08 3.695E+00 3.440E+00 6.767E+01 1.508E+02 2.219E+02 2.256E+02 1.785E+07 22.7587 1.00000
  8.913E+08 8.913E+08 3.711E+00 3.882E+00 7.597E+01 1.723E+02 2.522E+02 2.559E+02 1.825E+07 22.9889 1.00000
  1.000E+09 1.000E+09 3.727E+00 4.380E+00 8.529E+01 1.969E+02 2.866E+02 2.903E+02 1.865E+07 23.2192 1.00000
  1.122E+09 1.122E+09 3.744E+00 4.941E+00 9.574E+01 2.251E+02 3.257E+02 3.295E+02 1.904E+07 23.4494 1.00000
  1.259E+09 1.259E+09 3.760E+00 5.572E+00 1.075E+02 2.572E+02 3.703E+02 3.740E+02 1.944E+07 23.6797 1.00000
  1.413E+09 1.413E+09 3.777E+00 6.283E+00 1.206E+02 2.940E+02 4.209E+02 4.247E+02 1.982E+07 23.9099 1.00000
  1.585E+09 1.585E+09 3.793E+00 7.082E+00 1.354E+02 3.360E+02 4.785E+02 4.823E+02 2.020E+07 24.1402 1.00000
  1.778E+09 1.778E+09 3.810E+00 7.982E+00 1.520E+02 3.841E+02 5.441E+02 5.479E+02 2.058E+07 24.3705 1.00000
  1.995E+09 1.995E+09 3.827E+00 8.994E+00 1.706E+02 4.391E+02 6.187E+02 6.225E+02 2.095E+07 24.6007 1.00000
  2.239E+09 2.239E+09 3.844E+00 1.013E+01 1.914E+02 5.020E+02 7.035E+02 7.074E+02 2.132E+07 24.8310 1.00000
  2.512E+09 2.512E+09 3.861E+00 1.141E+01 2.149E+02 5.739E+02 8.001E+02 8.040E+02 2.168E+07 25.0612 1.00000
  2.818E+09 2.818E+09 3.878E+00 1.285E+01 2.411E+02 6.561E+02 9.101E+02 9.140E+02 2.204E+07 25.2915 1.00000
  3.162E+09 3.162E+09 3.895E+00 1.447E+01 2.706E+02 7.502E+02 1.035E+03 1.039E+03 2.240E+07 25.5218 1.00000
  3.548E+09 3.548E+09 3.912E+00 1.629E+01 3.037E+02 8.578E+02 1.178E+03 1.182E+03 2.274E+07 25.7520 1.00000
  3.981E+09 3.981E+09 3.930E+00 1.833E+01 3.408E+02 9.809E+02 1.340E+03 1.344E+03 2.309E+07 25.9823 1.00000
  4.467E+09 4.467E+09 3.947E+00 2.063E+01 3.824E+02 1.122E+03 1.525E+03 1.529E+03 2.343E+07 26.2125 1.00000
  5.012E+09 5.012E+09 3.965E+00 2.321E+01 4.292E+02 1.283E+03 1.735E+03 1.739E+03 2.376E+07 26.4428 1.00000
  5.623E+09 5.623E+09 3.982E+00 2.612E+01 4.816E+02 1.467E+03 1.975E+03 1.979E+03 2.409E+07 26.6730 1.00000
  6.310E+09 6.310E+09 4.000E+00 2.938E+01 5.404E+02 1.678E+03 2.248E+03 2.252E+03 2.442E+07 26.9033 1.00000
  7.079E+09 7.079E+09 4.018E+00 3.304E+01 6.064E+02 1.919E+03 2.559E+03 2.563E+03 2.474E+07 27.1336 1.00000
  7.943E+09 7.943E+09 4.036E+00 3.715E+01 6.804E+02 2.196E+03 2.913E+03 2.917E+03 2.506E+07 27.3638 1.00000
  8.913E+09 8.913E+09 4.054E+00 4.177E+01 7.635E+02 2.512E+03 3.317E+03 3.321E+03 2.537E+07 27.5941 1.00000
  1.000E+10 1.000E+10 4.072E+00 4.696E+01 8.567E+02 2.873E+03 3.777E+03 3.781E+03 2.568E+07 27.8243 1.00000
  1.122E+10 1.122E+10 4.091E+00 5.279E+01 9.613E+02 3.287E+03 4.301E+03 4.305E+03 2.598E+07 28.0546 1.00000
  1.259E+10 1.259E+10 4.109E+00 5.933E+01 1.079E+03 3.761E+03 4.899E+03 4.903E+03 2.628E+07 28.2849 1.00000
  1.413E+10 1.413E+10 4.127E+00 6.668E+01 1.210E+03 4.303E+03 5.580E+03 5.584E+03 2.657E+07 28.5151 1.00000
  1.585E+10 1.585E+10 4.146E+00 7.493E+01 1.358E+03 4.924E+03 6.357E+03 6.361E+03 2.686E+07 28.7454 1.00000
  1.778E+10 1.778E+10 4.165E+00 8.419E+01 1.524E+03 5.634E+03 7.242E+03 7.246E+03 2.715E+07 28.9756 1.00000
  1.995E+10 1.995E+10 4.183E+00 9.459E+01 1.710E+03 6.447E+03 8.252E+03 8.256E+03 2.743E+07 29.2059 1.00000
  2.239E+10 2.239E+10 4.202E+00 1.063E+02 1.919E+03 7.378E+03 9.403E+03 9.407E+03 2.771E+07 29.4362 1.00000
  2.512E+10 2.512E+10 4.221E+00 1.194E+02 2.153E+03 8.444E+03 1.072E+04 1.072E+04 2.798E+07 29.6664 1.00000
  2.818E+10 2.818E+10 4.241E+00 1.341E+02 2.415E+03 9.665E+03 1.221E+04 1.222E+04 2.825E+07 29.8967 1.00000
  3.162E+10 3.162E+10 4.260E+00 1.506E+02 2.710E+03 1.106E+04 1.392E+04 1.393E+04 2.851E+07 30.1269 1.00000
  3.548E+10 3.548E+10 4.279E+00 1.691E+02 3.041E+03 1.266E+04 1.587E+04 1.588E+04 2.877E+07 30.3572 1.00000
  3.981E+10 3.981E+10 4.299E+00 1.899E+02 3.412E+03 1.449E+04 1.810E+04 1.810E+04 2.903E+07 30.5874 1.00000
  4.467E+10 4.467E+10 4.318E+00 2.133E+02 3.828E+03 1.659E+04 2.063E+04 2.064E+04 2.928E+07 30.8177 1.00000
  5.012E+10 5.012E+10 4.338E+00 2.395E+02 4.295E+03 1.900E+04 2.353E+04 2.354E+04 2.953E+07 31.0480 1.00000
  5.623E+10 5.623E+10 4.358E+00 2.689E+02 4.819E+03 2.175E+04 2.684E+04 2.684E+04 2.977E+07 31.2782 1.00000
  6.310E+10 6.310E+10 4.377E+00 3.019E+02 5.407E+03 2.490E+04 3.061E+04 3.061E+04 3.001E+07 31.5085 1.00000
  7.079E+10 7.079E+10 4.397E+00 3.389E+02 6.067E+03 2.851E+04 3.492E+04 3.492E+04 3.025E+07 31.7387 1.00000
  7.943E+10 7.943E+10 4.418E+00 3.805E+02 6.807E+03 3.265E+04 3.984E+04 3.984E+04 3.048E+07 31.9690 1.00000
  8.913E+10 8.913E+10 4.438E+00 4.271E+02 7.638E+03 3.739E+04 4.545E+04 4.545E+04 3.071E+07 32.1993 1.00000
  1.000E+11 1.000E+11 4.458E+00 4.795E+02 8.570E+03 4.281E+04 5.186E+04 5.187E+04 3.093E+07 32.4295 1.00000
  1.122E+11 1.122E+11 4.479E+00 5.382E+02 9.615E+03 4.903E+04 5.918E+04 5.919E+04 3.115E+07 32.6598 1.00000
  1.259E+11 1.259E+11 4.499E+00 6.041E+02 1.079E+04 5.616E+04 6.755E+04 6.755E+04 3.137E+07 32.8900 1.00000
  1.413E+11 1.413E+11 4.520E+00 6.781E+02 1.210E+04 6.432E+04 7.710E+04 7.711E+04 3.158E+07 33.1203 1.00000
  1.585E+11 1.585E+11 4.541E+00 7.611E+02 1.358E+04 7.367E+04 8.801E+04 8.802E+04 3.179E+07 33.3505 1.00000
  1.778E+11 1.778E+11 4.562E+00 8.542E+02 1.524E+04 8.439E+04 1.005E+05 1.005E+05 3.200E+07 33.5808 1.00000
  1.995E+11 1.995E+11 4.583E+00 9.587E+02 1.710E+04 9.667E+04 1.147E+05 1.147E+05 3.220E+07 33.8111 1.00000
  2.239E+11 2.239E+11 4.604E+00 1.076E+03 1.918E+04 1.107E+05 1.310E+05 1.310E+05 3.240E+07 34.0413 1.00000
  2.512E+11 2.512E+11 4.625E+00 1.208E+03 2.152E+04 1.269E+05 1.496E+05 1.496E+05 3.259E+07 34.2716 1.00000
  2.818E+11 2.818E+11 4.646E+00 1.355E+03 2.415E+04 1.454E+05 1.709E+05 1.709E+05 3.279E+07 34.5018 1.00000
  3.162E+11 3.162E+11 4.668E+00 1.521E+03 2.709E+04 1.666E+05 1.952E+05 1.952E+05 3.298E+07 34.7321 1.00000
  3.548E+11 3.548E+11 4.690E+00 1.707E+03 3.040E+04 1.909E+05 2.230E+05 2.230E+05 3.316E+07 34.9624 1.00000
  3.981E+11 3.981E+11 4.711E+00 1.915E+03 3.411E+04 2.187E+05 2.547E+05 2.547E+05 3.334E+07 35.1926 1.00000
  4.467E+11 4.467E+11 4.733E+00 2.149E+03 3.827E+04 2.506E+05 2.910E+05 2.910E+05 3.352E+07 35.4229 1.00000
  5.012E+11 5.012E+11 4.755E+00 2.412E+03 4.293E+04 2.872E+05 3.326E+05 3.326E+05 3.370E+07 35.6531 1.00000
  5.623E+11 5.623E+11 4.777E+00 2.707E+03 4.817E+04 3.292E+05 3.800E+05 3.801E+05 3.387E+07 35.8834 1.00000
  6.310E+11 6.310E+11 4.800E+00 3.037E+03 5.405E+04 3.773E+05 4.344E+05 4.344E+05 3.404E+07 36.1136 1.00000
  7.079E+11 7.079E+11 4.822E+00 3.408E+03 6.064E+04 4.324E+05 4.965E+05 4.965E+05 3.421E+07 36.3439 1.00000
  7.943E+11 7.943E+11 4.844E+00 3.825E+03 6.804E+04 4.957E+05 5.675E+05 5.675E+05 3.437E+07 36.5742 1.00000
  8.913E+11 8.913E+11 4.867E+00 4.292E+03 7.634E+04 5.682E+05 6.488E+05 6.488E+05 3.453E+07 36.8044 1.00000
  1.000E+12 1.000E+12 4.890E+00 4.816E+03 8.565E+04 6.514E+05 7.418E+05 7.418E+05 3.469E+07 37.0347 1.00000
  1.122E+12 1.122E+12 4.913E+00 5.404E+03 9.609E+04 7.467E+05 8.482E+05 8.482E+05 3.484E+07 37.2649 1.00000
  1.259E+12 1.259E+12 4.936E+00 6.063E+03 1.078E+05 8.561E+05 9.700E+05 9.700E+05 3.499E+07 37.4952 1.00000
  1.413E+12 1.413E+12 4.959E+00 6.804E+03 1.210E+05 9.816E+05 1.109E+06 1.109E+06 3.514E+07 37.7255 1.00000
  1.585E+12 1.585E+12 4.982E+00 7.634E+03 1.357E+05 1.125E+06 1.269E+06 1.269E+06 3.528E+07 37.9557 1.00000
  1.778E+12 1.778E+12 5.005E+00 8.566E+03 1.523E+05 1.291E+06 1.451E+06 1.451E+06 3.543E+07 38.1860 1.00000
  1.995E+12 1.995E+12 5.029E+00 9.612E+03 1.708E+05 1.480E+06 1.660E+06 1.660E+06 3.557E+07 38.4162 1.00000
  2.239E+12 2.239E+12 5.053E+00 1.079E+04 1.917E+05 1.697E+06 1.900E+06 1.900E+06 3.571E+07 38.6465 1.00000
  2.512E+12 2.512E+12 5.076E+00 1.210E+04 2.151E+05 1.946E+06 2.173E+06 2.173E+06 3.584E+07 38.8767 1.00000
  2.818E+12 2.818E+12 5.100E+00 1.358E+04 2.413E+05 2.232E+06 2.487E+06 2.487E+06 3.597E+07 39.1070 1.00000
  3.162E+12 3.162E+12 5.124E+00 1.524E+04 2.707E+05 2.560E+06 2.846E+06 2.846E+06 3.610E+07 39.3373 1.00000
  3.548E+12 3.548E+12 5.148E+00 1.710E+04 3.038E+05 2.937E+06 3.257E+06 3.257E+06 3.623E+07 39.5675 1.00000
  3.981E+12 3.981E+12 5.173E+00 1.918E+04 3.408E+05 3.368E+06 3.728E+06 3.728E+06 3.635E+07 39.7978 1.00000
  4.467E+12 4.467E+12 5.197E+00 2.152E+04 3.824E+05 3.864E+06 4.268E+06 4.268E+06 3.648E+07 40.0280 1.00000
  5.012E+12 5.012E+12 5.222E+00 2.415E+04 4.290E+05 4.433E+06 4.886E+06 4.886E+06 3.659E+07 40.2583 1.00000
  5.623E+12 5.623E+12 5.246E+00 2.710E+04 4.813E+05 5.085E+06 5.594E+06 5.594E+06 3.671E+07 40.4886 1.00000
  6.310E+12 6.310E+12 5.271E+00 3.040E+04 5.400E+05 5.834E+06 6.405E+06 6.405E+06 3.683E+07 40.7188 1.00000
  7.079E+12 7.079E+12 5.296E+00 3.411E+04 6.059E+05 6.694E+06 7.334E+06 7.334E+06 3.694E+07 40.9491 1.00000
  7.943E+12 7.943E+12 5.321E+00 3.828E+04 6.798E+05 7.681E+06 8.399E+06 8.399E+06 3.705E+07 41.1793 1.00000
  8.913E+12 8.913E+12 5.347E+00 4.295E+04 7.627E+05 8.814E+06 9.619E+06 9.619E+06 3.716E+07 41.4096 1.00000
  1.000E+13 1.000E+13 5.372E+00 4.819E+04 8.557E+05 1.011E+07 1.102E+07 1.102E+07 3.726E+07 41.6399 1.00000
  1.122E+13 1.122E+13 5.398E+00 5.407E+04 9.601E+05 1.161E+07 1.262E+07 1.262E+07 3.737E+07 41.8701 1.00000
  1.259E+13 1.259E+13 5.423E+00 6.067E+04 1.077E+06 1.332E+07 1.446E+07 1.446E+07 3.747E+07 42.1004 1.00000
  1.413E+13 1.413E+13 5.449E+00 6.807E+04 1.209E+06 1.529E+07 1.656E+07 1.656E+07 3.757E+07 42.3306 1.00000
  1.585E+13 1.585E+13 5.475E+00 7.637E+04 1.356E+06 1.755E+07 1.898E+07 1.898E+07 3.767E+07 42.5609 1.00000
  1.778E+13 1.778E+13 5.501E+00 8.569E+04 1.521E+06 2.014E+07 2.175E+07 2.175E+07 3.776E+07 42.7911 1.00000
  1.995E+13 1.995E+13 5.527E+00 9.615E+04 1.707E+06 2.312E+07 2.492E+07 2.492E+07 3.785E+07 43.0214 1.00000
  2.239E+13 2.239E+13 5.554E+00 1.079E+05 1.915E+06 2.653E+07 2.856E+07 2.856E+07 3.795E+07 43.2517 1.00000
  2.512E+13 2.512E+13 5.580E+00 1.210E+05 2.149E+06 3.046E+07 3.273E+07 3.273E+07 3.804E+07 43.4819 1.00000
  2.818E+13 2.818E+13 5.607E+00 1.358E+05 2.411E+06 3.497E+07 3.752E+07 3.752E+07 3.812E+07 43.7122 1.00000
  3.162E+13 3.162E+13 5.634E+00 1.524E+05 2.705E+06 4.015E+07 4.300E+07 4.300E+07 3.821E+07 43.9424 1.00000
  3.548E+13 3.548E+13 5.661E+00 1.710E+05 3.035E+06 4.609E+07 4.930E+07 4.930E+07 3.829E+07 44.1727 1.00000
  3.981E+13 3.981E+13 5.688E+00 1.919E+05 3.405E+06 5.293E+07 5.652E+07 5.652E+07 3.838E+07 44.4030 1.00000
  4.467E+13 4.467E+13 5.715E+00 2.153E+05 3.820E+06 6.077E+07 6.481E+07 6.481E+07 3.846E+07 44.6332 1.00000
  5.012E+13 5.012E+13 5.742E+00 2.415E+05 4.286E+06 6.978E+07 7.431E+07 7.431E+07 3.853E+07 44.8635 1.00000
  5.623E+13 5.623E+13 5.770E+00 2.710E+05 4.808E+06 8.013E+07 8.521E+07 8.521E+07 3.861E+07 45.0937 1.00000
  6.310E+13 6.310E+13 5.797E+00 3.041E+05 5.395E+06 9.203E+07 9.772E+07 9.772E+07 3.869E+07 45.3240 1.00000
  7.079E+13 7.079E+13 5.825E+00 3.412E+05 6.053E+06 1.057E+08 1.121E+08 1.121E+08 3.876E+07 45.5542 1.00000
  7.943E+13 7.943E+13 5.853E+00 3.828E+05 6.791E+06 1.214E+08 1.286E+08 1.286E+08 3.883E+07 45.7845 1.00000
  8.913E+13 8.913E+13 5.881E+00 4.295E+05 7.619E+06 1.394E+08 1.475E+08 1.475E+08 3.890E+07 46.0148 1.00000
