 Incident particle is a Tau with M = 1776.82000 MeV
 Index = 0: Anthracene
      Absorber with <Z/A> = 0.52736
 Sternheimer coef:  a     k=m_s   x_0    x_1    I[eV]   Cbar  delta0
                 0.1468  3.2831  0.1146  2.5213   69.5  3.1514 0.00

 *** Table generated with PUMAS v1.00 ***

      T         p     Ionization  brems     pair     photonuc  Radloss    dE/dx   CSDA Range  delta   beta
    [MeV]    [MeV/c]  -----------------------[MeV cm^2/g]------------------------  [g/cm^2]
  1.000E+05 1.018E+05 2.309E+00 1.161E-04 1.801E-03 8.407E-03 1.032E-02 2.320E+00 2.156E+04  5.0047 0.99985
  1.122E+05 1.140E+05 2.329E+00 1.341E-04 2.178E-03 9.499E-03 1.181E-02 2.341E+00 2.679E+04  5.2193 0.99988
  1.259E+05 1.277E+05 2.349E+00 1.548E-04 2.623E-03 1.068E-02 1.345E-02 2.362E+00 3.261E+04  5.4361 0.99990
  1.413E+05 1.430E+05 2.369E+00 1.786E-04 3.148E-03 1.200E-02 1.533E-02 2.384E+00 3.909E+04  5.6548 0.99992
  1.585E+05 1.603E+05 2.388E+00 2.060E-04 3.766E-03 1.349E-02 1.746E-02 2.406E+00 4.628E+04  5.8752 0.99994
  1.778E+05 1.796E+05 2.408E+00 2.375E-04 4.492E-03 1.515E-02 1.987E-02 2.428E+00 5.429E+04  6.0972 0.99995
  1.995E+05 2.013E+05 2.427E+00 2.736E-04 5.342E-03 1.704E-02 2.265E-02 2.450E+00 6.318E+04  6.3206 0.99996
  2.239E+05 2.256E+05 2.447E+00 3.152E-04 6.337E-03 1.911E-02 2.576E-02 2.473E+00 7.307E+04  6.5452 0.99997
  2.512E+05 2.530E+05 2.466E+00 3.628E-04 7.498E-03 2.143E-02 2.929E-02 2.496E+00 8.407E+04  6.7709 0.99998
  2.818E+05 2.836E+05 2.486E+00 4.176E-04 8.851E-03 2.405E-02 3.332E-02 2.519E+00 9.630E+04  6.9976 0.99998
  3.162E+05 3.180E+05 2.505E+00 4.804E-04 1.042E-02 2.701E-02 3.791E-02 2.543E+00 1.099E+05  7.2250 0.99998
  3.548E+05 3.566E+05 2.524E+00 5.524E-04 1.225E-02 3.033E-02 4.314E-02 2.567E+00 1.250E+05  7.4531 0.99999
  3.981E+05 3.999E+05 2.543E+00 6.349E-04 1.437E-02 3.404E-02 4.905E-02 2.592E+00 1.418E+05  7.6817 0.99999
  4.467E+05 4.485E+05 2.562E+00 7.296E-04 1.683E-02 3.821E-02 5.576E-02 2.618E+00 1.604E+05  7.9107 0.99999
  5.012E+05 5.030E+05 2.582E+00 8.381E-04 1.966E-02 4.290E-02 6.340E-02 2.645E+00 1.811E+05  8.1400 0.99999
  5.623E+05 5.641E+05 2.601E+00 9.623E-04 2.294E-02 4.798E-02 7.188E-02 2.673E+00 2.041E+05  8.3695 1.00000
  6.310E+05 6.327E+05 2.620E+00 1.105E-03 2.672E-02 5.371E-02 8.154E-02 2.701E+00 2.297E+05  8.5990 1.00000
  7.079E+05 7.097E+05 2.639E+00 1.268E-03 3.107E-02 6.019E-02 9.252E-02 2.731E+00 2.580E+05  8.8287 1.00000
  7.943E+05 7.961E+05 2.657E+00 1.454E-03 3.608E-02 6.750E-02 1.050E-01 2.763E+00 2.895E+05  9.0584 1.00000
  8.913E+05 8.930E+05 2.676E+00 1.668E-03 4.183E-02 7.576E-02 1.193E-01 2.796E+00 3.243E+05  9.2882 1.00000
  1.000E+06 1.002E+06 2.695E+00 1.912E-03 4.844E-02 8.511E-02 1.355E-01 2.830E+00 3.630E+05  9.5180 1.00000
  1.122E+06 1.124E+06 2.714E+00 2.191E-03 5.601E-02 9.570E-02 1.539E-01 2.868E+00 4.058E+05  9.7479 1.00000
  1.259E+06 1.261E+06 2.732E+00 2.511E-03 6.468E-02 1.077E-01 1.749E-01 2.907E+00 4.533E+05  9.9778 1.00000
  1.413E+06 1.414E+06 2.751E+00 2.877E-03 7.460E-02 1.213E-01 1.988E-01 2.949E+00 5.057E+05 10.2077 1.00000
  1.585E+06 1.587E+06 2.769E+00 3.295E-03 8.594E-02 1.367E-01 2.259E-01 2.995E+00 5.637E+05 10.4377 1.00000
  1.778E+06 1.780E+06 2.787E+00 3.773E-03 9.888E-02 1.542E-01 2.569E-01 3.044E+00 6.278E+05 10.6677 1.00000
  1.995E+06 1.997E+06 2.805E+00 4.319E-03 1.136E-01 1.741E-01 2.920E-01 3.097E+00 6.984E+05 10.8978 1.00000
  2.239E+06 2.240E+06 2.823E+00 4.942E-03 1.305E-01 1.966E-01 3.320E-01 3.155E+00 7.763E+05 11.1279 1.00000
  2.512E+06 2.514E+06 2.841E+00 5.655E-03 1.496E-01 2.223E-01 3.775E-01 3.218E+00 8.621E+05 11.3579 1.00000
  2.818E+06 2.820E+06 2.858E+00 6.469E-03 1.714E-01 2.514E-01 4.293E-01 3.287E+00 9.563E+05 11.5880 1.00000
  3.162E+06 3.164E+06 2.876E+00 7.398E-03 1.962E-01 2.845E-01 4.881E-01 3.364E+00 1.060E+06 11.8182 1.00000
  3.548E+06 3.550E+06 2.893E+00 8.459E-03 2.243E-01 3.222E-01 5.550E-01 3.448E+00 1.173E+06 12.0483 1.00000
  3.981E+06 3.983E+06 2.910E+00 9.669E-03 2.563E-01 3.651E-01 6.311E-01 3.541E+00 1.297E+06 12.2785 1.00000
  4.467E+06 4.469E+06 2.927E+00 1.105E-02 2.925E-01 4.139E-01 7.175E-01 3.644E+00 1.432E+06 12.5086 1.00000
  5.012E+06 5.014E+06 2.944E+00 1.263E-02 3.335E-01 4.695E-01 8.157E-01 3.759E+00 1.579E+06 12.7388 1.00000
  5.623E+06 5.625E+06 2.960E+00 1.442E-02 3.800E-01 5.328E-01 9.273E-01 3.887E+00 1.739E+06 12.9690 1.00000
  6.310E+06 6.311E+06 2.977E+00 1.647E-02 4.327E-01 6.049E-01 1.054E+00 4.031E+00 1.913E+06 13.1992 1.00000
  7.079E+06 7.081E+06 2.993E+00 1.880E-02 4.922E-01 6.870E-01 1.198E+00 4.191E+00 2.100E+06 13.4294 1.00000
  7.943E+06 7.945E+06 3.009E+00 2.146E-02 5.595E-01 7.806E-01 1.362E+00 4.370E+00 2.302E+06 13.6596 1.00000
  8.913E+06 8.914E+06 3.025E+00 2.449E-02 6.355E-01 8.872E-01 1.547E+00 4.572E+00 2.519E+06 13.8898 1.00000
  1.000E+07 1.000E+07 3.041E+00 2.794E-02 7.214E-01 1.009E+00 1.758E+00 4.799E+00 2.751E+06 14.1200 1.00000
  1.122E+07 1.122E+07 3.056E+00 3.187E-02 8.183E-01 1.147E+00 1.997E+00 5.054E+00 2.999E+06 14.3502 1.00000
  1.259E+07 1.259E+07 3.072E+00 3.634E-02 9.276E-01 1.305E+00 2.269E+00 5.341E+00 3.263E+06 14.5804 1.00000
  1.413E+07 1.413E+07 3.087E+00 4.143E-02 1.051E+00 1.486E+00 2.578E+00 5.665E+00 3.542E+06 14.8107 1.00000
  1.585E+07 1.585E+07 3.102E+00 4.721E-02 1.190E+00 1.691E+00 2.928E+00 6.031E+00 3.837E+06 15.0409 1.00000
  1.778E+07 1.778E+07 3.118E+00 5.379E-02 1.347E+00 1.925E+00 3.326E+00 6.443E+00 4.147E+06 15.2711 1.00000
  1.995E+07 1.995E+07 3.133E+00 6.127E-02 1.523E+00 2.193E+00 3.777E+00 6.910E+00 4.473E+06 15.5014 1.00000
  2.239E+07 2.239E+07 3.148E+00 6.977E-02 1.722E+00 2.498E+00 4.290E+00 7.437E+00 4.813E+06 15.7316 1.00000
  2.512E+07 2.512E+07 3.162E+00 7.943E-02 1.946E+00 2.846E+00 4.871E+00 8.033E+00 5.166E+06 15.9618 1.00000
  2.818E+07 2.819E+07 3.177E+00 9.039E-02 2.198E+00 3.243E+00 5.531E+00 8.708E+00 5.533E+06 16.1921 1.00000
  3.162E+07 3.162E+07 3.192E+00 1.028E-01 2.481E+00 3.696E+00 6.280E+00 9.472E+00 5.912E+06 16.4223 1.00000
  3.548E+07 3.548E+07 3.207E+00 1.170E-01 2.800E+00 4.213E+00 7.130E+00 1.034E+01 6.302E+06 16.6526 1.00000
  3.981E+07 3.981E+07 3.221E+00 1.330E-01 3.159E+00 4.803E+00 8.095E+00 1.132E+01 6.703E+06 16.8828 1.00000
  4.467E+07 4.467E+07 3.236E+00 1.512E-01 3.562E+00 5.477E+00 9.190E+00 1.243E+01 7.113E+06 17.1131 1.00000
  5.012E+07 5.012E+07 3.251E+00 1.718E-01 4.015E+00 6.246E+00 1.043E+01 1.368E+01 7.532E+06 17.3433 1.00000
  5.623E+07 5.624E+07 3.265E+00 1.952E-01 4.525E+00 7.124E+00 1.184E+01 1.511E+01 7.957E+06 17.5736 1.00000
  6.310E+07 6.310E+07 3.280E+00 2.217E-01 5.097E+00 8.127E+00 1.345E+01 1.673E+01 8.390E+06 17.8038 1.00000
  7.079E+07 7.080E+07 3.295E+00 2.518E-01 5.741E+00 9.271E+00 1.526E+01 1.856E+01 8.827E+06 18.0341 1.00000
  7.943E+07 7.943E+07 3.309E+00 2.858E-01 6.464E+00 1.058E+01 1.733E+01 2.064E+01 9.269E+06 18.2643 1.00000
  8.913E+07 8.913E+07 3.324E+00 3.243E-01 7.276E+00 1.207E+01 1.967E+01 2.299E+01 9.715E+06 18.4946 1.00000
  1.000E+08 1.000E+08 3.339E+00 3.679E-01 8.188E+00 1.377E+01 2.233E+01 2.567E+01 1.016E+07 18.7248 1.00000
  1.122E+08 1.122E+08 3.353E+00 4.173E-01 9.212E+00 1.572E+01 2.535E+01 2.870E+01 1.061E+07 18.9551 1.00000
  1.259E+08 1.259E+08 3.368E+00 4.731E-01 1.036E+01 1.794E+01 2.878E+01 3.215E+01 1.106E+07 19.1853 1.00000
  1.413E+08 1.413E+08 3.383E+00 5.362E-01 1.165E+01 2.048E+01 3.267E+01 3.605E+01 1.152E+07 19.4156 1.00000
  1.585E+08 1.585E+08 3.398E+00 6.076E-01 1.310E+01 2.338E+01 3.709E+01 4.049E+01 1.197E+07 19.6459 1.00000
  1.778E+08 1.778E+08 3.413E+00 6.884E-01 1.473E+01 2.669E+01 4.211E+01 4.553E+01 1.242E+07 19.8761 1.00000
  1.995E+08 1.995E+08 3.428E+00 7.796E-01 1.656E+01 3.048E+01 4.782E+01 5.125E+01 1.287E+07 20.1064 1.00000
  2.239E+08 2.239E+08 3.443E+00 8.826E-01 1.861E+01 3.480E+01 5.430E+01 5.774E+01 1.332E+07 20.3366 1.00000
  2.512E+08 2.512E+08 3.458E+00 9.990E-01 2.092E+01 3.974E+01 6.165E+01 6.511E+01 1.376E+07 20.5669 1.00000
  2.818E+08 2.818E+08 3.473E+00 1.130E+00 2.350E+01 4.538E+01 7.001E+01 7.349E+01 1.421E+07 20.7971 1.00000
  3.162E+08 3.162E+08 3.488E+00 1.279E+00 2.640E+01 5.183E+01 7.951E+01 8.300E+01 1.465E+07 21.0274 1.00000
  3.548E+08 3.548E+08 3.504E+00 1.446E+00 2.966E+01 5.920E+01 9.030E+01 9.381E+01 1.509E+07 21.2577 1.00000
  3.981E+08 3.981E+08 3.519E+00 1.635E+00 3.332E+01 6.762E+01 1.026E+02 1.061E+02 1.552E+07 21.4879 1.00000
  4.467E+08 4.467E+08 3.534E+00 1.848E+00 3.742E+01 7.724E+01 1.165E+02 1.200E+02 1.595E+07 21.7182 1.00000
  5.012E+08 5.012E+08 3.550E+00 2.088E+00 4.203E+01 8.823E+01 1.323E+02 1.359E+02 1.638E+07 21.9484 1.00000
  5.623E+08 5.623E+08 3.566E+00 2.359E+00 4.719E+01 1.008E+02 1.504E+02 1.539E+02 1.680E+07 22.1787 1.00000
  6.310E+08 6.310E+08 3.581E+00 2.664E+00 5.299E+01 1.152E+02 1.708E+02 1.744E+02 1.722E+07 22.4089 1.00000
  7.079E+08 7.079E+08 3.597E+00 3.008E+00 5.950E+01 1.316E+02 1.941E+02 1.977E+02 1.764E+07 22.6392 1.00000
  7.943E+08 7.943E+08 3.613E+00 3.396E+00 6.681E+01 1.503E+02 2.205E+02 2.242E+02 1.805E+07 22.8695 1.00000
  8.913E+08 8.913E+08 3.629E+00 3.832E+00 7.500E+01 1.718E+02 2.506E+02 2.543E+02 1.846E+07 23.0997 1.00000
  1.000E+09 1.000E+09 3.645E+00 4.324E+00 8.420E+01 1.963E+02 2.849E+02 2.885E+02 1.886E+07 23.3300 1.00000
  1.122E+09 1.122E+09 3.661E+00 4.878E+00 9.452E+01 2.244E+02 3.238E+02 3.274E+02 1.926E+07 23.5602 1.00000
  1.259E+09 1.259E+09 3.677E+00 5.501E+00 1.061E+02 2.564E+02 3.680E+02 3.717E+02 1.965E+07 23.7905 1.00000
  1.413E+09 1.413E+09 3.693E+00 6.202E+00 1.191E+02 2.931E+02 4.184E+02 4.221E+02 2.004E+07 24.0207 1.00000
  1.585E+09 1.585E+09 3.710E+00 6.992E+00 1.337E+02 3.350E+02 4.757E+02 4.794E+02 2.042E+07 24.2510 1.00000
  1.778E+09 1.778E+09 3.726E+00 7.880E+00 1.500E+02 3.829E+02 5.409E+02 5.446E+02 2.080E+07 24.4813 1.00000
  1.995E+09 1.995E+09 3.742E+00 8.879E+00 1.684E+02 4.378E+02 6.150E+02 6.188E+02 2.118E+07 24.7115 1.00000
  2.239E+09 2.239E+09 3.759E+00 1.000E+01 1.890E+02 5.004E+02 6.994E+02 7.032E+02 2.155E+07 24.9418 1.00000
  2.512E+09 2.512E+09 3.776E+00 1.127E+01 2.121E+02 5.721E+02 7.955E+02 7.993E+02 2.191E+07 25.1720 1.00000
  2.818E+09 2.818E+09 3.793E+00 1.269E+01 2.380E+02 6.541E+02 9.049E+02 9.087E+02 2.227E+07 25.4023 1.00000
  3.162E+09 3.162E+09 3.809E+00 1.429E+01 2.671E+02 7.479E+02 1.029E+03 1.033E+03 2.263E+07 25.6326 1.00000
  3.548E+09 3.548E+09 3.826E+00 1.608E+01 2.998E+02 8.552E+02 1.171E+03 1.175E+03 2.298E+07 25.8628 1.00000
  3.981E+09 3.981E+09 3.843E+00 1.810E+01 3.364E+02 9.779E+02 1.332E+03 1.336E+03 2.333E+07 26.0931 1.00000
  4.467E+09 4.467E+09 3.861E+00 2.037E+01 3.775E+02 1.118E+03 1.516E+03 1.520E+03 2.367E+07 26.3233 1.00000
  5.012E+09 5.012E+09 3.878E+00 2.292E+01 4.237E+02 1.279E+03 1.726E+03 1.729E+03 2.400E+07 26.5536 1.00000
  5.623E+09 5.623E+09 3.895E+00 2.578E+01 4.754E+02 1.463E+03 1.964E+03 1.968E+03 2.434E+07 26.7838 1.00000
  6.310E+09 6.310E+09 3.913E+00 2.900E+01 5.335E+02 1.673E+03 2.235E+03 2.239E+03 2.466E+07 27.0141 1.00000
  7.079E+09 7.079E+09 3.930E+00 3.262E+01 5.986E+02 1.914E+03 2.545E+03 2.549E+03 2.499E+07 27.2444 1.00000
  7.943E+09 7.943E+09 3.948E+00 3.668E+01 6.717E+02 2.189E+03 2.897E+03 2.901E+03 2.531E+07 27.4746 1.00000
  8.913E+09 8.913E+09 3.966E+00 4.124E+01 7.538E+02 2.504E+03 3.299E+03 3.303E+03 2.562E+07 27.7049 1.00000
  1.000E+10 1.000E+10 3.984E+00 4.636E+01 8.458E+02 2.865E+03 3.757E+03 3.761E+03 2.593E+07 27.9351 1.00000
  1.122E+10 1.122E+10 4.001E+00 5.211E+01 9.490E+02 3.277E+03 4.278E+03 4.282E+03 2.623E+07 28.1654 1.00000
  1.259E+10 1.259E+10 4.020E+00 5.857E+01 1.065E+03 3.749E+03 4.873E+03 4.877E+03 2.653E+07 28.3957 1.00000
  1.413E+10 1.413E+10 4.038E+00 6.583E+01 1.195E+03 4.290E+03 5.551E+03 5.555E+03 2.683E+07 28.6259 1.00000
  1.585E+10 1.585E+10 4.056E+00 7.397E+01 1.341E+03 4.909E+03 6.323E+03 6.327E+03 2.712E+07 28.8562 1.00000
  1.778E+10 1.778E+10 4.074E+00 8.311E+01 1.504E+03 5.617E+03 7.204E+03 7.208E+03 2.741E+07 29.0864 1.00000
  1.995E+10 1.995E+10 4.093E+00 9.338E+01 1.688E+03 6.428E+03 8.209E+03 8.213E+03 2.769E+07 29.3167 1.00000
  2.239E+10 2.239E+10 4.111E+00 1.049E+02 1.894E+03 7.356E+03 9.355E+03 9.359E+03 2.797E+07 29.5470 1.00000
  2.512E+10 2.512E+10 4.130E+00 1.178E+02 2.125E+03 8.419E+03 1.066E+04 1.067E+04 2.824E+07 29.7772 1.00000
  2.818E+10 2.818E+10 4.149E+00 1.324E+02 2.384E+03 9.635E+03 1.215E+04 1.216E+04 2.851E+07 30.0075 1.00000
  3.162E+10 3.162E+10 4.168E+00 1.487E+02 2.675E+03 1.103E+04 1.385E+04 1.386E+04 2.878E+07 30.2377 1.00000
  3.548E+10 3.548E+10 4.187E+00 1.670E+02 3.002E+03 1.262E+04 1.579E+04 1.580E+04 2.904E+07 30.4680 1.00000
  3.981E+10 3.981E+10 4.206E+00 1.875E+02 3.368E+03 1.445E+04 1.801E+04 1.801E+04 2.930E+07 30.6982 1.00000
  4.467E+10 4.467E+10 4.225E+00 2.105E+02 3.779E+03 1.654E+04 2.053E+04 2.054E+04 2.955E+07 30.9285 1.00000
  5.012E+10 5.012E+10 4.244E+00 2.364E+02 4.240E+03 1.894E+04 2.341E+04 2.342E+04 2.980E+07 31.1588 1.00000
  5.623E+10 5.623E+10 4.264E+00 2.654E+02 4.758E+03 2.168E+04 2.671E+04 2.671E+04 3.004E+07 31.3890 1.00000
  6.310E+10 6.310E+10 4.283E+00 2.980E+02 5.338E+03 2.482E+04 3.046E+04 3.047E+04 3.028E+07 31.6193 1.00000
  7.079E+10 7.079E+10 4.303E+00 3.346E+02 5.989E+03 2.842E+04 3.475E+04 3.475E+04 3.052E+07 31.8495 1.00000
  7.943E+10 7.943E+10 4.323E+00 3.756E+02 6.720E+03 3.255E+04 3.964E+04 3.965E+04 3.075E+07 32.0798 1.00000
  8.913E+10 8.913E+10 4.343E+00 4.217E+02 7.540E+03 3.727E+04 4.523E+04 4.524E+04 3.098E+07 32.3101 1.00000
  1.000E+11 1.000E+11 4.363E+00 4.733E+02 8.460E+03 4.268E+04 5.162E+04 5.162E+04 3.121E+07 32.5403 1.00000
  1.122E+11 1.122E+11 4.383E+00 5.313E+02 9.492E+03 4.888E+04 5.891E+04 5.891E+04 3.143E+07 32.7706 1.00000
  1.259E+11 1.259E+11 4.403E+00 5.964E+02 1.065E+04 5.598E+04 6.723E+04 6.724E+04 3.165E+07 33.0008 1.00000
  1.413E+11 1.413E+11 4.423E+00 6.694E+02 1.195E+04 6.412E+04 7.674E+04 7.675E+04 3.186E+07 33.2311 1.00000
  1.585E+11 1.585E+11 4.444E+00 7.514E+02 1.341E+04 7.345E+04 8.761E+04 8.761E+04 3.207E+07 33.4613 1.00000
  1.778E+11 1.778E+11 4.464E+00 8.433E+02 1.504E+04 8.413E+04 1.000E+05 1.000E+05 3.228E+07 33.6916 1.00000
  1.995E+11 1.995E+11 4.485E+00 9.465E+02 1.688E+04 9.638E+04 1.142E+05 1.142E+05 3.248E+07 33.9219 1.00000
  2.239E+11 2.239E+11 4.506E+00 1.062E+03 1.894E+04 1.104E+05 1.304E+05 1.304E+05 3.268E+07 34.1521 1.00000
  2.512E+11 2.512E+11 4.526E+00 1.192E+03 2.125E+04 1.265E+05 1.489E+05 1.489E+05 3.288E+07 34.3824 1.00000
  2.818E+11 2.818E+11 4.548E+00 1.338E+03 2.384E+04 1.449E+05 1.701E+05 1.701E+05 3.307E+07 34.6126 1.00000
  3.162E+11 3.162E+11 4.569E+00 1.501E+03 2.675E+04 1.661E+05 1.943E+05 1.943E+05 3.326E+07 34.8429 1.00000
  3.548E+11 3.548E+11 4.590E+00 1.685E+03 3.001E+04 1.903E+05 2.220E+05 2.220E+05 3.345E+07 35.0732 1.00000
  3.981E+11 3.981E+11 4.611E+00 1.891E+03 3.367E+04 2.180E+05 2.536E+05 2.536E+05 3.363E+07 35.3034 1.00000
  4.467E+11 4.467E+11 4.633E+00 2.122E+03 3.778E+04 2.499E+05 2.898E+05 2.898E+05 3.381E+07 35.5337 1.00000
  5.012E+11 5.012E+11 4.654E+00 2.381E+03 4.239E+04 2.863E+05 3.311E+05 3.311E+05 3.399E+07 35.7639 1.00000
  5.623E+11 5.623E+11 4.676E+00 2.672E+03 4.756E+04 3.282E+05 3.784E+05 3.784E+05 3.416E+07 35.9942 1.00000
  6.310E+11 6.310E+11 4.698E+00 2.998E+03 5.336E+04 3.761E+05 4.325E+05 4.325E+05 3.433E+07 36.2244 1.00000
  7.079E+11 7.079E+11 4.720E+00 3.365E+03 5.986E+04 4.311E+05 4.943E+05 4.943E+05 3.450E+07 36.4547 1.00000
  7.943E+11 7.943E+11 4.742E+00 3.776E+03 6.717E+04 4.942E+05 5.651E+05 5.651E+05 3.466E+07 36.6850 1.00000
  8.913E+11 8.913E+11 4.764E+00 4.237E+03 7.536E+04 5.665E+05 6.461E+05 6.461E+05 3.482E+07 36.9152 1.00000
  1.000E+12 1.000E+12 4.787E+00 4.754E+03 8.455E+04 6.494E+05 7.387E+05 7.387E+05 3.498E+07 37.1455 1.00000
  1.122E+12 1.122E+12 4.809E+00 5.335E+03 9.487E+04 7.445E+05 8.447E+05 8.447E+05 3.514E+07 37.3757 1.00000
  1.259E+12 1.259E+12 4.832E+00 5.986E+03 1.064E+05 8.535E+05 9.659E+05 9.659E+05 3.529E+07 37.6060 1.00000
  1.413E+12 1.413E+12 4.854E+00 6.717E+03 1.194E+05 9.786E+05 1.105E+06 1.105E+06 3.544E+07 37.8363 1.00000
  1.585E+12 1.585E+12 4.877E+00 7.537E+03 1.340E+05 1.122E+06 1.264E+06 1.264E+06 3.558E+07 38.0665 1.00000
  1.778E+12 1.778E+12 4.900E+00 8.457E+03 1.503E+05 1.287E+06 1.445E+06 1.445E+06 3.573E+07 38.2968 1.00000
  1.995E+12 1.995E+12 4.923E+00 9.489E+03 1.687E+05 1.475E+06 1.654E+06 1.654E+06 3.587E+07 38.5270 1.00000
  2.239E+12 2.239E+12 4.947E+00 1.065E+04 1.892E+05 1.692E+06 1.892E+06 1.892E+06 3.601E+07 38.7573 1.00000
  2.512E+12 2.512E+12 4.970E+00 1.195E+04 2.123E+05 1.940E+06 2.165E+06 2.165E+06 3.614E+07 38.9875 1.00000
  2.818E+12 2.818E+12 4.993E+00 1.340E+04 2.382E+05 2.225E+06 2.477E+06 2.477E+06 3.627E+07 39.2178 1.00000
  3.162E+12 3.162E+12 5.017E+00 1.504E+04 2.673E+05 2.552E+06 2.835E+06 2.835E+06 3.640E+07 39.4481 1.00000
  3.548E+12 3.548E+12 5.041E+00 1.688E+04 2.999E+05 2.928E+06 3.244E+06 3.244E+06 3.653E+07 39.6783 1.00000
  3.981E+12 3.981E+12 5.065E+00 1.894E+04 3.364E+05 3.358E+06 3.714E+06 3.714E+06 3.666E+07 39.9086 1.00000
  4.467E+12 4.467E+12 5.089E+00 2.125E+04 3.775E+05 3.852E+06 4.251E+06 4.251E+06 3.678E+07 40.1388 1.00000
  5.012E+12 5.012E+12 5.113E+00 2.384E+04 4.235E+05 4.419E+06 4.867E+06 4.867E+06 3.690E+07 40.3691 1.00000
  5.623E+12 5.623E+12 5.137E+00 2.675E+04 4.752E+05 5.070E+06 5.572E+06 5.572E+06 3.702E+07 40.5994 1.00000
  6.310E+12 6.310E+12 5.161E+00 3.001E+04 5.331E+05 5.817E+06 6.380E+06 6.380E+06 3.713E+07 40.8296 1.00000
  7.079E+12 7.079E+12 5.186E+00 3.368E+04 5.982E+05 6.674E+06 7.306E+06 7.306E+06 3.724E+07 41.0599 1.00000
  7.943E+12 7.943E+12 5.211E+00 3.779E+04 6.711E+05 7.657E+06 8.366E+06 8.366E+06 3.736E+07 41.2901 1.00000
  8.913E+12 8.913E+12 5.235E+00 4.240E+04 7.530E+05 8.787E+06 9.582E+06 9.582E+06 3.746E+07 41.5204 1.00000
  1.000E+13 1.000E+13 5.260E+00 4.757E+04 8.448E+05 1.008E+07 1.098E+07 1.098E+07 3.757E+07 41.7507 1.00000
  1.122E+13 1.122E+13 5.285E+00 5.338E+04 9.478E+05 1.157E+07 1.257E+07 1.257E+07 3.767E+07 41.9809 1.00000
  1.259E+13 1.259E+13 5.311E+00 5.989E+04 1.063E+06 1.328E+07 1.440E+07 1.440E+07 3.778E+07 42.2112 1.00000
  1.413E+13 1.413E+13 5.336E+00 6.720E+04 1.193E+06 1.524E+07 1.650E+07 1.650E+07 3.788E+07 42.4414 1.00000
  1.585E+13 1.585E+13 5.361E+00 7.540E+04 1.339E+06 1.749E+07 1.891E+07 1.891E+07 3.797E+07 42.6717 1.00000
  1.778E+13 1.778E+13 5.387E+00 8.460E+04 1.502E+06 2.008E+07 2.166E+07 2.166E+07 3.807E+07 42.9019 1.00000
  1.995E+13 1.995E+13 5.413E+00 9.492E+04 1.685E+06 2.305E+07 2.483E+07 2.483E+07 3.816E+07 43.1322 1.00000
  2.239E+13 2.239E+13 5.439E+00 1.065E+05 1.891E+06 2.645E+07 2.845E+07 2.845E+07 3.826E+07 43.3625 1.00000
  2.512E+13 2.512E+13 5.465E+00 1.195E+05 2.121E+06 3.037E+07 3.261E+07 3.261E+07 3.834E+07 43.5927 1.00000
  2.818E+13 2.818E+13 5.491E+00 1.341E+05 2.380E+06 3.486E+07 3.738E+07 3.738E+07 3.843E+07 43.8230 1.00000
  3.162E+13 3.162E+13 5.517E+00 1.504E+05 2.670E+06 4.003E+07 4.285E+07 4.285E+07 3.852E+07 44.0532 1.00000
  3.548E+13 3.548E+13 5.544E+00 1.688E+05 2.996E+06 4.595E+07 4.912E+07 4.912E+07 3.860E+07 44.2835 1.00000
  3.981E+13 3.981E+13 5.570E+00 1.894E+05 3.361E+06 5.276E+07 5.631E+07 5.631E+07 3.869E+07 44.5138 1.00000
  4.467E+13 4.467E+13 5.597E+00 2.125E+05 3.771E+06 6.059E+07 6.457E+07 6.457E+07 3.877E+07 44.7440 1.00000
  5.012E+13 5.012E+13 5.624E+00 2.384E+05 4.231E+06 6.957E+07 7.404E+07 7.404E+07 3.885E+07 44.9743 1.00000
  5.623E+13 5.623E+13 5.651E+00 2.675E+05 4.747E+06 7.989E+07 8.490E+07 8.490E+07 3.892E+07 45.2045 1.00000
  6.310E+13 6.310E+13 5.678E+00 3.002E+05 5.326E+06 9.174E+07 9.737E+07 9.737E+07 3.900E+07 45.4348 1.00000
  7.079E+13 7.079E+13 5.706E+00 3.368E+05 5.975E+06 1.054E+08 1.117E+08 1.117E+08 3.907E+07 45.6650 1.00000
  7.943E+13 7.943E+13 5.733E+00 3.779E+05 6.704E+06 1.210E+08 1.281E+08 1.281E+08 3.914E+07 45.8953 1.00000
  8.913E+13 8.913E+13 5.761E+00 4.240E+05 7.521E+06 1.390E+08 1.469E+08 1.469E+08 3.922E+07 46.1256 1.00000
