 Incident particle is a Tau with M = 1776.82000 MeV
 Index = 0: Arsenic
      Absorber with <Z/A> = 0.44046
 Sternheimer coef:  a     k=m_s   x_0    x_1    I[eV]   Cbar  delta0
                 0.0663  3.4176  0.1767  3.5702  347.0  5.0510 0.08

 *** Table generated with PUMAS v1.00 ***

      T         p     Ionization  brems     pair     photonuc  Radloss    dE/dx   CSDA Range  delta   beta
    [MeV]    [MeV/c]  -----------------------[MeV cm^2/g]------------------------  [g/cm^2]
  1.000E+05 1.018E+05 1.810E+00 5.073E-04 8.475E-03 7.820E-03 1.680E-02 1.826E+00 2.738E+04  3.5504 0.99985
  1.122E+05 1.140E+05 1.828E+00 5.874E-04 1.016E-02 8.796E-03 1.954E-02 1.848E+00 3.402E+04  3.7316 0.99988
  1.259E+05 1.277E+05 1.847E+00 6.797E-04 1.215E-02 9.842E-03 2.267E-02 1.870E+00 4.138E+04  3.9160 0.99990
  1.413E+05 1.430E+05 1.866E+00 7.861E-04 1.448E-02 1.101E-02 2.628E-02 1.892E+00 4.955E+04  4.1035 0.99992
  1.585E+05 1.603E+05 1.884E+00 9.087E-04 1.721E-02 1.232E-02 3.044E-02 1.915E+00 5.861E+04  4.2941 0.99994
  1.778E+05 1.796E+05 1.902E+00 1.050E-03 2.041E-02 1.378E-02 3.523E-02 1.938E+00 6.865E+04  4.4875 0.99995
  1.995E+05 2.013E+05 1.921E+00 1.212E-03 2.414E-02 1.543E-02 4.078E-02 1.961E+00 7.978E+04  4.6837 0.99996
  2.239E+05 2.256E+05 1.939E+00 1.399E-03 2.850E-02 1.723E-02 4.712E-02 1.986E+00 9.212E+04  4.8826 0.99997
  2.512E+05 2.530E+05 1.956E+00 1.614E-03 3.356E-02 1.924E-02 5.441E-02 2.011E+00 1.058E+05  5.0839 0.99998
  2.818E+05 2.836E+05 1.974E+00 1.860E-03 3.945E-02 2.149E-02 6.280E-02 2.037E+00 1.209E+05  5.2876 0.99998
  3.162E+05 3.180E+05 1.992E+00 2.144E-03 4.627E-02 2.403E-02 7.244E-02 2.064E+00 1.377E+05  5.4935 0.99998
  3.548E+05 3.566E+05 2.009E+00 2.469E-03 5.416E-02 2.688E-02 8.350E-02 2.093E+00 1.563E+05  5.7016 0.99999
  3.981E+05 3.999E+05 2.026E+00 2.842E-03 6.328E-02 3.004E-02 9.616E-02 2.123E+00 1.768E+05  5.9117 0.99999
  4.467E+05 4.485E+05 2.044E+00 3.269E-03 7.380E-02 3.358E-02 1.106E-01 2.154E+00 1.995E+05  6.1237 0.99999
  5.012E+05 5.030E+05 2.061E+00 3.759E-03 8.593E-02 3.755E-02 1.272E-01 2.188E+00 2.246E+05  6.3375 0.99999
  5.623E+05 5.641E+05 2.077E+00 4.321E-03 9.988E-02 4.184E-02 1.460E-01 2.223E+00 2.524E+05  6.5530 1.00000
  6.310E+05 6.327E+05 2.094E+00 4.964E-03 1.159E-01 4.666E-02 1.675E-01 2.262E+00 2.830E+05  6.7701 1.00000
  7.079E+05 7.097E+05 2.111E+00 5.701E-03 1.343E-01 5.209E-02 1.921E-01 2.303E+00 3.167E+05  6.9886 1.00000
  7.943E+05 7.961E+05 2.127E+00 6.543E-03 1.554E-01 5.821E-02 2.202E-01 2.347E+00 3.539E+05  7.2085 1.00000
  8.913E+05 8.930E+05 2.143E+00 7.507E-03 1.796E-01 6.511E-02 2.522E-01 2.396E+00 3.947E+05  7.4296 1.00000
  1.000E+06 1.002E+06 2.160E+00 8.610E-03 2.072E-01 7.291E-02 2.887E-01 2.448E+00 4.396E+05  7.6519 1.00000
  1.122E+06 1.124E+06 2.176E+00 9.870E-03 2.387E-01 8.172E-02 3.303E-01 2.506E+00 4.889E+05  7.8753 1.00000
  1.259E+06 1.261E+06 2.191E+00 1.131E-02 2.747E-01 9.169E-02 3.777E-01 2.569E+00 5.429E+05  8.0997 1.00000
  1.413E+06 1.414E+06 2.207E+00 1.295E-02 3.158E-01 1.030E-01 4.317E-01 2.639E+00 6.019E+05  8.3250 1.00000
  1.585E+06 1.587E+06 2.223E+00 1.483E-02 3.625E-01 1.158E-01 4.931E-01 2.716E+00 6.663E+05  8.5510 1.00000
  1.778E+06 1.780E+06 2.238E+00 1.698E-02 4.157E-01 1.302E-01 5.629E-01 2.801E+00 7.364E+05  8.7778 1.00000
  1.995E+06 1.997E+06 2.253E+00 1.942E-02 4.761E-01 1.467E-01 6.422E-01 2.895E+00 8.126E+05  9.0053 1.00000
  2.239E+06 2.240E+06 2.268E+00 2.222E-02 5.447E-01 1.653E-01 7.322E-01 3.001E+00 8.952E+05  9.2333 1.00000
  2.512E+06 2.514E+06 2.283E+00 2.540E-02 6.226E-01 1.865E-01 8.345E-01 3.118E+00 9.845E+05  9.4617 1.00000
  2.818E+06 2.820E+06 2.298E+00 2.903E-02 7.109E-01 2.105E-01 9.504E-01 3.248E+00 1.081E+06  9.6907 1.00000
  3.162E+06 3.164E+06 2.313E+00 3.317E-02 8.110E-01 2.378E-01 1.082E+00 3.395E+00 1.184E+06  9.9199 1.00000
  3.548E+06 3.550E+06 2.327E+00 3.788E-02 9.243E-01 2.689E-01 1.231E+00 3.558E+00 1.295E+06 10.1495 1.00000
  3.981E+06 3.983E+06 2.341E+00 4.325E-02 1.052E+00 3.042E-01 1.400E+00 3.741E+00 1.414E+06 10.3792 1.00000
  4.467E+06 4.469E+06 2.355E+00 4.936E-02 1.197E+00 3.444E-01 1.591E+00 3.947E+00 1.541E+06 10.6092 1.00000
  5.012E+06 5.014E+06 2.369E+00 5.632E-02 1.361E+00 3.901E-01 1.808E+00 4.177E+00 1.675E+06 10.8392 1.00000
  5.623E+06 5.625E+06 2.383E+00 6.423E-02 1.546E+00 4.421E-01 2.053E+00 4.436E+00 1.817E+06 11.0694 1.00000
  6.310E+06 6.311E+06 2.397E+00 7.324E-02 1.755E+00 5.014E-01 2.330E+00 4.727E+00 1.967E+06 11.2996 1.00000
  7.079E+06 7.081E+06 2.411E+00 8.348E-02 1.991E+00 5.688E-01 2.643E+00 5.054E+00 2.125E+06 11.5298 1.00000
  7.943E+06 7.945E+06 2.424E+00 9.513E-02 2.257E+00 6.457E-01 2.997E+00 5.421E+00 2.290E+06 11.7600 1.00000
  8.913E+06 8.914E+06 2.437E+00 1.084E-01 2.556E+00 7.333E-01 3.398E+00 5.835E+00 2.462E+06 11.9902 1.00000
  1.000E+07 1.000E+07 2.451E+00 1.234E-01 2.894E+00 8.331E-01 3.850E+00 6.301E+00 2.642E+06 12.2204 1.00000
  1.122E+07 1.122E+07 2.464E+00 1.405E-01 3.274E+00 9.468E-01 4.361E+00 6.825E+00 2.828E+06 12.4506 1.00000
  1.259E+07 1.259E+07 2.477E+00 1.599E-01 3.702E+00 1.077E+00 4.939E+00 7.415E+00 3.021E+06 12.6808 1.00000
  1.413E+07 1.413E+07 2.489E+00 1.819E-01 4.185E+00 1.224E+00 5.591E+00 8.080E+00 3.219E+06 12.9111 1.00000
  1.585E+07 1.585E+07 2.502E+00 2.069E-01 4.727E+00 1.393E+00 6.327E+00 8.829E+00 3.423E+06 13.1413 1.00000
  1.778E+07 1.778E+07 2.515E+00 2.352E-01 5.338E+00 1.585E+00 7.158E+00 9.673E+00 3.633E+06 13.3715 1.00000
  1.995E+07 1.995E+07 2.527E+00 2.674E-01 6.025E+00 1.805E+00 8.097E+00 1.062E+01 3.847E+06 13.6018 1.00000
  2.239E+07 2.239E+07 2.540E+00 3.038E-01 6.797E+00 2.055E+00 9.156E+00 1.170E+01 4.066E+06 13.8320 1.00000
  2.512E+07 2.512E+07 2.552E+00 3.451E-01 7.666E+00 2.340E+00 1.035E+01 1.290E+01 4.288E+06 14.0622 1.00000
  2.818E+07 2.819E+07 2.565E+00 3.919E-01 8.642E+00 2.666E+00 1.170E+01 1.426E+01 4.515E+06 14.2925 1.00000
  3.162E+07 3.162E+07 2.577E+00 4.449E-01 9.740E+00 3.037E+00 1.322E+01 1.580E+01 4.744E+06 14.5227 1.00000
  3.548E+07 3.548E+07 2.589E+00 5.049E-01 1.097E+01 3.462E+00 1.494E+01 1.753E+01 4.976E+06 14.7530 1.00000
  3.981E+07 3.981E+07 2.602E+00 5.729E-01 1.236E+01 3.946E+00 1.688E+01 1.948E+01 5.211E+06 14.9832 1.00000
  4.467E+07 4.467E+07 2.614E+00 6.498E-01 1.392E+01 4.498E+00 1.906E+01 2.168E+01 5.448E+06 15.2135 1.00000
  5.012E+07 5.012E+07 2.626E+00 7.368E-01 1.566E+01 5.129E+00 2.153E+01 2.416E+01 5.686E+06 15.4437 1.00000
  5.623E+07 5.624E+07 2.638E+00 8.351E-01 1.763E+01 5.848E+00 2.431E+01 2.695E+01 5.926E+06 15.6740 1.00000
  6.310E+07 6.310E+07 2.650E+00 9.464E-01 1.983E+01 6.670E+00 2.745E+01 3.010E+01 6.167E+06 15.9042 1.00000
  7.079E+07 7.080E+07 2.663E+00 1.072E+00 2.231E+01 7.609E+00 3.099E+01 3.366E+01 6.410E+06 16.1345 1.00000
  7.943E+07 7.943E+07 2.675E+00 1.214E+00 2.509E+01 8.680E+00 3.499E+01 3.766E+01 6.653E+06 16.3647 1.00000
  8.913E+07 8.913E+07 2.687E+00 1.375E+00 2.822E+01 9.903E+00 3.950E+01 4.218E+01 6.896E+06 16.5950 1.00000
  1.000E+08 1.000E+08 2.700E+00 1.556E+00 3.173E+01 1.130E+01 4.458E+01 4.728E+01 7.140E+06 16.8252 1.00000
  1.122E+08 1.122E+08 2.712E+00 1.760E+00 3.566E+01 1.290E+01 5.032E+01 5.303E+01 7.384E+06 17.0555 1.00000
  1.259E+08 1.259E+08 2.724E+00 1.991E+00 4.008E+01 1.472E+01 5.679E+01 5.952E+01 7.628E+06 17.2857 1.00000
  1.413E+08 1.413E+08 2.737E+00 2.252E+00 4.505E+01 1.680E+01 6.410E+01 6.683E+01 7.872E+06 17.5160 1.00000
  1.585E+08 1.585E+08 2.749E+00 2.546E+00 5.062E+01 1.918E+01 7.234E+01 7.509E+01 8.116E+06 17.7463 1.00000
  1.778E+08 1.778E+08 2.761E+00 2.878E+00 5.687E+01 2.189E+01 8.164E+01 8.440E+01 8.359E+06 17.9765 1.00000
  1.995E+08 1.995E+08 2.774E+00 3.251E+00 6.389E+01 2.499E+01 9.213E+01 9.490E+01 8.602E+06 18.2068 1.00000
  2.239E+08 2.239E+08 2.787E+00 3.673E+00 7.176E+01 2.854E+01 1.040E+02 1.068E+02 8.844E+06 18.4370 1.00000
  2.512E+08 2.512E+08 2.799E+00 4.148E+00 8.060E+01 3.258E+01 1.173E+02 1.201E+02 9.086E+06 18.6673 1.00000
  2.818E+08 2.818E+08 2.812E+00 4.683E+00 9.052E+01 3.721E+01 1.324E+02 1.352E+02 9.327E+06 18.8975 1.00000
  3.162E+08 3.162E+08 2.825E+00 5.285E+00 1.017E+02 4.250E+01 1.494E+02 1.523E+02 9.567E+06 19.1278 1.00000
  3.548E+08 3.548E+08 2.837E+00 5.964E+00 1.142E+02 4.853E+01 1.687E+02 1.715E+02 9.806E+06 19.3581 1.00000
  3.981E+08 3.981E+08 2.850E+00 6.728E+00 1.282E+02 5.544E+01 1.903E+02 1.932E+02 1.004E+07 19.5883 1.00000
  4.467E+08 4.467E+08 2.863E+00 7.588E+00 1.439E+02 6.332E+01 2.148E+02 2.177E+02 1.028E+07 19.8186 1.00000
  5.012E+08 5.012E+08 2.876E+00 8.556E+00 1.616E+02 7.234E+01 2.425E+02 2.453E+02 1.052E+07 20.0488 1.00000
  5.623E+08 5.623E+08 2.889E+00 9.646E+00 1.814E+02 8.264E+01 2.737E+02 2.766E+02 1.075E+07 20.2791 1.00000
  6.310E+08 6.310E+08 2.902E+00 1.087E+01 2.036E+02 9.441E+01 3.089E+02 3.118E+02 1.099E+07 20.5093 1.00000
  7.079E+08 7.079E+08 2.915E+00 1.225E+01 2.286E+02 1.079E+02 3.487E+02 3.516E+02 1.122E+07 20.7396 1.00000
  7.943E+08 7.943E+08 2.928E+00 1.380E+01 2.566E+02 1.233E+02 3.936E+02 3.966E+02 1.145E+07 20.9699 1.00000
  8.913E+08 8.913E+08 2.942E+00 1.554E+01 2.880E+02 1.408E+02 4.444E+02 4.473E+02 1.168E+07 21.2001 1.00000
  1.000E+09 1.000E+09 2.955E+00 1.750E+01 3.232E+02 1.609E+02 5.017E+02 5.046E+02 1.191E+07 21.4304 1.00000
  1.122E+09 1.122E+09 2.969E+00 1.971E+01 3.628E+02 1.839E+02 5.664E+02 5.694E+02 1.214E+07 21.6606 1.00000
  1.259E+09 1.259E+09 2.982E+00 2.218E+01 4.072E+02 2.102E+02 6.396E+02 6.426E+02 1.237E+07 21.8909 1.00000
  1.413E+09 1.413E+09 2.996E+00 2.497E+01 4.570E+02 2.403E+02 7.222E+02 7.252E+02 1.259E+07 22.1211 1.00000
  1.585E+09 1.585E+09 3.009E+00 2.810E+01 5.129E+02 2.746E+02 8.156E+02 8.186E+02 1.282E+07 22.3514 1.00000
  1.778E+09 1.778E+09 3.023E+00 3.161E+01 5.756E+02 3.139E+02 9.211E+02 9.241E+02 1.304E+07 22.5817 1.00000
  1.995E+09 1.995E+09 3.037E+00 3.556E+01 6.459E+02 3.588E+02 1.040E+03 1.043E+03 1.326E+07 22.8119 1.00000
  2.239E+09 2.239E+09 3.051E+00 4.000E+01 7.249E+02 4.102E+02 1.175E+03 1.178E+03 1.348E+07 23.0422 1.00000
  2.512E+09 2.512E+09 3.065E+00 4.498E+01 8.135E+02 4.690E+02 1.327E+03 1.330E+03 1.370E+07 23.2724 1.00000
  2.818E+09 2.818E+09 3.079E+00 5.057E+01 9.129E+02 5.362E+02 1.500E+03 1.503E+03 1.392E+07 23.5027 1.00000
  3.162E+09 3.162E+09 3.093E+00 5.686E+01 1.024E+03 6.131E+02 1.694E+03 1.697E+03 1.413E+07 23.7330 1.00000
  3.548E+09 3.548E+09 3.107E+00 6.392E+01 1.150E+03 7.010E+02 1.914E+03 1.918E+03 1.435E+07 23.9632 1.00000
  3.981E+09 3.981E+09 3.121E+00 7.184E+01 1.290E+03 8.016E+02 2.163E+03 2.166E+03 1.456E+07 24.1935 1.00000
  4.467E+09 4.467E+09 3.135E+00 8.074E+01 1.447E+03 9.167E+02 2.445E+03 2.448E+03 1.477E+07 24.4237 1.00000
  5.012E+09 5.012E+09 3.150E+00 9.073E+01 1.624E+03 1.048E+03 2.763E+03 2.766E+03 1.498E+07 24.6540 1.00000
  5.623E+09 5.623E+09 3.164E+00 1.020E+02 1.822E+03 1.199E+03 3.123E+03 3.127E+03 1.519E+07 24.8842 1.00000
  6.310E+09 6.310E+09 3.179E+00 1.145E+02 2.045E+03 1.371E+03 3.531E+03 3.534E+03 1.540E+07 25.1145 1.00000
  7.079E+09 7.079E+09 3.194E+00 1.287E+02 2.295E+03 1.569E+03 3.992E+03 3.995E+03 1.560E+07 25.3448 1.00000
  7.943E+09 7.943E+09 3.208E+00 1.446E+02 2.575E+03 1.794E+03 4.514E+03 4.517E+03 1.580E+07 25.5750 1.00000
  8.913E+09 8.913E+09 3.223E+00 1.624E+02 2.889E+03 2.052E+03 5.104E+03 5.107E+03 1.601E+07 25.8053 1.00000
  1.000E+10 1.000E+10 3.238E+00 1.824E+02 3.242E+03 2.348E+03 5.772E+03 5.775E+03 1.621E+07 26.0355 1.00000
  1.122E+10 1.122E+10 3.253E+00 2.048E+02 3.637E+03 2.686E+03 6.528E+03 6.532E+03 1.641E+07 26.2658 1.00000
  1.259E+10 1.259E+10 3.268E+00 2.300E+02 4.081E+03 3.073E+03 7.385E+03 7.388E+03 1.660E+07 26.4961 1.00000
  1.413E+10 1.413E+10 3.283E+00 2.583E+02 4.579E+03 3.516E+03 8.354E+03 8.357E+03 1.680E+07 26.7263 1.00000
  1.585E+10 1.585E+10 3.299E+00 2.900E+02 5.138E+03 4.024E+03 9.452E+03 9.455E+03 1.699E+07 26.9566 1.00000
  1.778E+10 1.778E+10 3.314E+00 3.256E+02 5.765E+03 4.604E+03 1.070E+04 1.070E+04 1.719E+07 27.1868 1.00000
  1.995E+10 1.995E+10 3.329E+00 3.656E+02 6.469E+03 5.269E+03 1.210E+04 1.211E+04 1.738E+07 27.4171 1.00000
  2.239E+10 2.239E+10 3.345E+00 4.104E+02 7.258E+03 6.030E+03 1.370E+04 1.370E+04 1.757E+07 27.6474 1.00000
  2.512E+10 2.512E+10 3.360E+00 4.607E+02 8.144E+03 6.901E+03 1.551E+04 1.551E+04 1.775E+07 27.8776 1.00000
  2.818E+10 2.818E+10 3.376E+00 5.172E+02 9.138E+03 7.898E+03 1.755E+04 1.756E+04 1.794E+07 28.1079 1.00000
  3.162E+10 3.162E+10 3.392E+00 5.806E+02 1.025E+04 9.040E+03 1.987E+04 1.988E+04 1.813E+07 28.3381 1.00000
  3.548E+10 3.548E+10 3.408E+00 6.517E+02 1.150E+04 1.035E+04 2.250E+04 2.251E+04 1.831E+07 28.5684 1.00000
  3.981E+10 3.981E+10 3.424E+00 7.315E+02 1.291E+04 1.184E+04 2.548E+04 2.549E+04 1.849E+07 28.7986 1.00000
  4.467E+10 4.467E+10 3.440E+00 8.211E+02 1.448E+04 1.356E+04 2.886E+04 2.887E+04 1.867E+07 29.0289 1.00000
  5.012E+10 5.012E+10 3.456E+00 9.216E+02 1.625E+04 1.552E+04 3.269E+04 3.270E+04 1.885E+07 29.2592 1.00000
  5.623E+10 5.623E+10 3.472E+00 1.034E+03 1.823E+04 1.777E+04 3.704E+04 3.704E+04 1.902E+07 29.4894 1.00000
  6.310E+10 6.310E+10 3.488E+00 1.161E+03 2.046E+04 2.035E+04 4.196E+04 4.197E+04 1.920E+07 29.7197 1.00000
  7.079E+10 7.079E+10 3.505E+00 1.303E+03 2.295E+04 2.330E+04 4.755E+04 4.756E+04 1.937E+07 29.9499 1.00000
  7.943E+10 7.943E+10 3.521E+00 1.462E+03 2.575E+04 2.668E+04 5.389E+04 5.390E+04 1.954E+07 30.1802 1.00000
  8.913E+10 8.913E+10 3.538E+00 1.641E+03 2.889E+04 3.055E+04 6.108E+04 6.109E+04 1.971E+07 30.4105 1.00000
  1.000E+11 1.000E+11 3.555E+00 1.842E+03 3.242E+04 3.499E+04 6.924E+04 6.925E+04 1.988E+07 30.6407 1.00000
  1.122E+11 1.122E+11 3.571E+00 2.067E+03 3.637E+04 4.007E+04 7.851E+04 7.851E+04 2.004E+07 30.8710 1.00000
  1.259E+11 1.259E+11 3.588E+00 2.319E+03 4.081E+04 4.589E+04 8.902E+04 8.902E+04 2.021E+07 31.1012 1.00000
  1.413E+11 1.413E+11 3.605E+00 2.603E+03 4.579E+04 5.256E+04 1.010E+05 1.010E+05 2.037E+07 31.3315 1.00000
  1.585E+11 1.585E+11 3.622E+00 2.921E+03 5.137E+04 6.020E+04 1.145E+05 1.145E+05 2.053E+07 31.5617 1.00000
  1.778E+11 1.778E+11 3.639E+00 3.277E+03 5.764E+04 6.896E+04 1.299E+05 1.299E+05 2.069E+07 31.7920 1.00000
  1.995E+11 1.995E+11 3.657E+00 3.678E+03 6.467E+04 7.900E+04 1.473E+05 1.474E+05 2.085E+07 32.0223 1.00000
  2.239E+11 2.239E+11 3.674E+00 4.127E+03 7.256E+04 9.050E+04 1.672E+05 1.672E+05 2.100E+07 32.2525 1.00000
  2.512E+11 2.512E+11 3.692E+00 4.631E+03 8.141E+04 1.037E+05 1.897E+05 1.897E+05 2.116E+07 32.4828 1.00000
  2.818E+11 2.818E+11 3.709E+00 5.196E+03 9.134E+04 1.188E+05 2.153E+05 2.153E+05 2.131E+07 32.7130 1.00000
  3.162E+11 3.162E+11 3.727E+00 5.831E+03 1.025E+05 1.361E+05 2.444E+05 2.444E+05 2.146E+07 32.9433 1.00000
  3.548E+11 3.548E+11 3.745E+00 6.543E+03 1.150E+05 1.560E+05 2.775E+05 2.775E+05 2.161E+07 33.1736 1.00000
  3.981E+11 3.981E+11 3.762E+00 7.341E+03 1.290E+05 1.787E+05 3.151E+05 3.151E+05 2.175E+07 33.4038 1.00000
  4.467E+11 4.467E+11 3.780E+00 8.238E+03 1.448E+05 2.048E+05 3.578E+05 3.578E+05 2.190E+07 33.6341 1.00000
  5.012E+11 5.012E+11 3.798E+00 9.243E+03 1.624E+05 2.347E+05 4.064E+05 4.064E+05 2.204E+07 33.8643 1.00000
  5.623E+11 5.623E+11 3.817E+00 1.037E+04 1.822E+05 2.690E+05 4.616E+05 4.616E+05 2.218E+07 34.0946 1.00000
  6.310E+11 6.310E+11 3.835E+00 1.164E+04 2.044E+05 3.083E+05 5.244E+05 5.244E+05 2.232E+07 34.3248 1.00000
  7.079E+11 7.079E+11 3.853E+00 1.306E+04 2.294E+05 3.534E+05 5.958E+05 5.958E+05 2.246E+07 34.5551 1.00000
  7.943E+11 7.943E+11 3.872E+00 1.465E+04 2.574E+05 4.051E+05 6.771E+05 6.771E+05 2.260E+07 34.7854 1.00000
  8.913E+11 8.913E+11 3.890E+00 1.644E+04 2.888E+05 4.643E+05 7.695E+05 7.695E+05 2.273E+07 35.0156 1.00000
  1.000E+12 1.000E+12 3.909E+00 1.845E+04 3.240E+05 5.323E+05 8.747E+05 8.747E+05 2.286E+07 35.2459 1.00000
  1.122E+12 1.122E+12 3.928E+00 2.070E+04 3.635E+05 6.102E+05 9.944E+05 9.944E+05 2.299E+07 35.4761 1.00000
  1.259E+12 1.259E+12 3.946E+00 2.322E+04 4.078E+05 6.996E+05 1.131E+06 1.131E+06 2.312E+07 35.7064 1.00000
  1.413E+12 1.413E+12 3.965E+00 2.606E+04 4.576E+05 8.021E+05 1.286E+06 1.286E+06 2.325E+07 35.9367 1.00000
  1.585E+12 1.585E+12 3.984E+00 2.924E+04 5.134E+05 9.197E+05 1.462E+06 1.462E+06 2.338E+07 36.1669 1.00000
  1.778E+12 1.778E+12 4.004E+00 3.281E+04 5.760E+05 1.055E+06 1.663E+06 1.663E+06 2.350E+07 36.3972 1.00000
  1.995E+12 1.995E+12 4.023E+00 3.681E+04 6.463E+05 1.209E+06 1.892E+06 1.892E+06 2.362E+07 36.6274 1.00000
  2.239E+12 2.239E+12 4.042E+00 4.130E+04 7.251E+05 1.387E+06 2.153E+06 2.153E+06 2.375E+07 36.8577 1.00000
  2.512E+12 2.512E+12 4.062E+00 4.634E+04 8.135E+05 1.590E+06 2.450E+06 2.450E+06 2.386E+07 37.0879 1.00000
  2.818E+12 2.818E+12 4.082E+00 5.200E+04 9.128E+05 1.824E+06 2.789E+06 2.789E+06 2.398E+07 37.3182 1.00000
  3.162E+12 3.162E+12 4.101E+00 5.834E+04 1.024E+06 2.092E+06 3.175E+06 3.175E+06 2.410E+07 37.5485 1.00000
  3.548E+12 3.548E+12 4.121E+00 6.546E+04 1.149E+06 2.400E+06 3.614E+06 3.614E+06 2.421E+07 37.7787 1.00000
  3.981E+12 3.981E+12 4.141E+00 7.345E+04 1.289E+06 2.753E+06 4.115E+06 4.115E+06 2.432E+07 38.0090 1.00000
  4.467E+12 4.467E+12 4.161E+00 8.241E+04 1.446E+06 3.158E+06 4.686E+06 4.686E+06 2.444E+07 38.2392 1.00000
  5.012E+12 5.012E+12 4.181E+00 9.247E+04 1.623E+06 3.622E+06 5.338E+06 5.338E+06 2.454E+07 38.4695 1.00000
  5.623E+12 5.623E+12 4.201E+00 1.038E+05 1.821E+06 4.156E+06 6.080E+06 6.080E+06 2.465E+07 38.6998 1.00000
  6.310E+12 6.310E+12 4.222E+00 1.164E+05 2.043E+06 4.768E+06 6.927E+06 6.927E+06 2.476E+07 38.9300 1.00000
  7.079E+12 7.079E+12 4.242E+00 1.306E+05 2.292E+06 5.470E+06 7.893E+06 7.893E+06 2.486E+07 39.1603 1.00000
  7.943E+12 7.943E+12 4.263E+00 1.466E+05 2.571E+06 6.277E+06 8.995E+06 8.995E+06 2.496E+07 39.3905 1.00000
  8.913E+12 8.913E+12 4.284E+00 1.644E+05 2.885E+06 7.202E+06 1.025E+07 1.025E+07 2.507E+07 39.6208 1.00000
  1.000E+13 1.000E+13 4.304E+00 1.845E+05 3.237E+06 8.265E+06 1.169E+07 1.169E+07 2.517E+07 39.8511 1.00000
  1.122E+13 1.122E+13 4.325E+00 2.070E+05 3.632E+06 9.484E+06 1.332E+07 1.332E+07 2.526E+07 40.0813 1.00000
  1.259E+13 1.259E+13 4.346E+00 2.323E+05 4.075E+06 1.088E+07 1.519E+07 1.519E+07 2.536E+07 40.3116 1.00000
  1.413E+13 1.413E+13 4.368E+00 2.606E+05 4.572E+06 1.249E+07 1.732E+07 1.732E+07 2.546E+07 40.5418 1.00000
  1.585E+13 1.585E+13 4.389E+00 2.924E+05 5.129E+06 1.434E+07 1.976E+07 1.976E+07 2.555E+07 40.7721 1.00000
  1.778E+13 1.778E+13 4.410E+00 3.281E+05 5.755E+06 1.646E+07 2.254E+07 2.254E+07 2.564E+07 41.0023 1.00000
  1.995E+13 1.995E+13 4.432E+00 3.681E+05 6.457E+06 1.889E+07 2.571E+07 2.571E+07 2.573E+07 41.2326 1.00000
  2.239E+13 2.239E+13 4.454E+00 4.131E+05 7.244E+06 2.168E+07 2.934E+07 2.934E+07 2.582E+07 41.4629 1.00000
  2.512E+13 2.512E+13 4.475E+00 4.635E+05 8.128E+06 2.489E+07 3.348E+07 3.348E+07 2.591E+07 41.6931 1.00000
  2.818E+13 2.818E+13 4.497E+00 5.200E+05 9.119E+06 2.858E+07 3.822E+07 3.822E+07 2.599E+07 41.9234 1.00000
  3.162E+13 3.162E+13 4.519E+00 5.835E+05 1.023E+07 3.281E+07 4.362E+07 4.362E+07 2.608E+07 42.1536 1.00000
  3.548E+13 3.548E+13 4.541E+00 6.547E+05 1.148E+07 3.767E+07 4.980E+07 4.980E+07 2.616E+07 42.3839 1.00000
  3.981E+13 3.981E+13 4.563E+00 7.345E+05 1.288E+07 4.325E+07 5.686E+07 5.686E+07 2.624E+07 42.6142 1.00000
  4.467E+13 4.467E+13 4.586E+00 8.242E+05 1.445E+07 4.966E+07 6.493E+07 6.493E+07 2.632E+07 42.8444 1.00000
  5.012E+13 5.012E+13 4.608E+00 9.247E+05 1.621E+07 5.703E+07 7.416E+07 7.416E+07 2.640E+07 43.0747 1.00000
  5.623E+13 5.623E+13 4.631E+00 1.038E+06 1.819E+07 6.548E+07 8.471E+07 8.471E+07 2.648E+07 43.3049 1.00000
  6.310E+13 6.310E+13 4.654E+00 1.164E+06 2.041E+07 7.520E+07 9.677E+07 9.677E+07 2.655E+07 43.5352 1.00000
  7.079E+13 7.079E+13 4.676E+00 1.306E+06 2.290E+07 8.637E+07 1.106E+08 1.106E+08 2.663E+07 43.7654 1.00000
  7.943E+13 7.943E+13 4.699E+00 1.466E+06 2.569E+07 9.919E+07 1.263E+08 1.263E+08 2.670E+07 43.9957 1.00000
  8.913E+13 8.913E+13 4.722E+00 1.644E+06 2.882E+07 1.139E+08 1.444E+08 1.444E+08 2.677E+07 44.2260 1.00000
