 Incident particle is a Tau with M = 1776.82000 MeV
 Index = 0: BariumSulfate
      Absorber with <Z/A> = 0.44560
 Sternheimer coef:  a     k=m_s   x_0    x_1    I[eV]   Cbar  delta0
                 0.1175  3.0427  0.0128  3.4069  285.7  4.8923 0.00

 *** Table generated with PUMAS v1.00 ***

      T         p     Ionization  brems     pair     photonuc  Radloss    dE/dx   CSDA Range  delta   beta
    [MeV]    [MeV/c]  -----------------------[MeV cm^2/g]------------------------  [g/cm^2]
  1.000E+05 1.018E+05 1.844E+00 5.308E-04 9.075E-03 7.880E-03 1.749E-02 1.862E+00 2.686E+04  3.7415 0.99985
  1.122E+05 1.140E+05 1.863E+00 6.149E-04 1.088E-02 8.868E-03 2.036E-02 1.884E+00 3.337E+04  3.9207 0.99988
  1.259E+05 1.277E+05 1.882E+00 7.119E-04 1.300E-02 9.927E-03 2.364E-02 1.906E+00 4.060E+04  4.1030 0.99990
  1.413E+05 1.430E+05 1.901E+00 8.238E-04 1.549E-02 1.112E-02 2.743E-02 1.929E+00 4.861E+04  4.2884 0.99992
  1.585E+05 1.603E+05 1.920E+00 9.528E-04 1.841E-02 1.244E-02 3.180E-02 1.952E+00 5.749E+04  4.4769 0.99994
  1.778E+05 1.796E+05 1.939E+00 1.101E-03 2.182E-02 1.392E-02 3.684E-02 1.976E+00 6.734E+04  4.6682 0.99995
  1.995E+05 2.013E+05 1.957E+00 1.272E-03 2.581E-02 1.559E-02 4.268E-02 2.000E+00 7.825E+04  4.8622 0.99996
  2.239E+05 2.256E+05 1.976E+00 1.469E-03 3.046E-02 1.742E-02 4.935E-02 2.025E+00 9.035E+04  5.0589 0.99997
  2.512E+05 2.530E+05 1.994E+00 1.695E-03 3.586E-02 1.946E-02 5.702E-02 2.051E+00 1.038E+05  5.2582 0.99998
  2.818E+05 2.836E+05 2.012E+00 1.955E-03 4.213E-02 2.176E-02 6.584E-02 2.078E+00 1.186E+05  5.4599 0.99998
  3.162E+05 3.180E+05 2.030E+00 2.254E-03 4.940E-02 2.434E-02 7.599E-02 2.106E+00 1.350E+05  5.6639 0.99998
  3.548E+05 3.566E+05 2.048E+00 2.597E-03 5.781E-02 2.723E-02 8.764E-02 2.135E+00 1.532E+05  5.8701 0.99999
  3.981E+05 3.999E+05 2.065E+00 2.990E-03 6.752E-02 3.046E-02 1.010E-01 2.166E+00 1.734E+05  6.0785 0.99999
  4.467E+05 4.485E+05 2.083E+00 3.442E-03 7.872E-02 3.406E-02 1.162E-01 2.199E+00 1.956E+05  6.2889 0.99999
  5.012E+05 5.030E+05 2.100E+00 3.959E-03 9.162E-02 3.811E-02 1.337E-01 2.234E+00 2.202E+05  6.5012 0.99999
  5.623E+05 5.641E+05 2.117E+00 4.552E-03 1.065E-01 4.248E-02 1.535E-01 2.271E+00 2.474E+05  6.7153 1.00000
  6.310E+05 6.327E+05 2.134E+00 5.232E-03 1.235E-01 4.740E-02 1.761E-01 2.310E+00 2.773E+05  6.9312 1.00000
  7.079E+05 7.097E+05 2.151E+00 6.010E-03 1.430E-01 5.294E-02 2.020E-01 2.353E+00 3.104E+05  7.1486 1.00000
  7.943E+05 7.961E+05 2.168E+00 6.901E-03 1.654E-01 5.918E-02 2.315E-01 2.399E+00 3.467E+05  7.3676 1.00000
  8.913E+05 8.930E+05 2.184E+00 7.920E-03 1.911E-01 6.623E-02 2.652E-01 2.449E+00 3.867E+05  7.5880 1.00000
  1.000E+06 1.002E+06 2.201E+00 9.085E-03 2.204E-01 7.419E-02 3.036E-01 2.504E+00 4.306E+05  7.8097 1.00000
  1.122E+06 1.124E+06 2.217E+00 1.042E-02 2.538E-01 8.319E-02 3.474E-01 2.564E+00 4.788E+05  8.0326 1.00000
  1.259E+06 1.261E+06 2.233E+00 1.194E-02 2.920E-01 9.337E-02 3.973E-01 2.630E+00 5.315E+05  8.2566 1.00000
  1.413E+06 1.414E+06 2.249E+00 1.368E-02 3.354E-01 1.049E-01 4.540E-01 2.703E+00 5.891E+05  8.4816 1.00000
  1.585E+06 1.587E+06 2.264E+00 1.567E-02 3.849E-01 1.180E-01 5.185E-01 2.783E+00 6.520E+05  8.7076 1.00000
  1.778E+06 1.780E+06 2.280E+00 1.794E-02 4.412E-01 1.328E-01 5.919E-01 2.872E+00 7.204E+05  8.9344 1.00000
  1.995E+06 1.997E+06 2.295E+00 2.053E-02 5.051E-01 1.495E-01 6.752E-01 2.971E+00 7.947E+05  9.1620 1.00000
  2.239E+06 2.240E+06 2.311E+00 2.348E-02 5.777E-01 1.686E-01 7.698E-01 3.080E+00 8.752E+05  9.3902 1.00000
  2.512E+06 2.514E+06 2.326E+00 2.686E-02 6.600E-01 1.902E-01 8.771E-01 3.203E+00 9.621E+05  9.6189 1.00000
  2.818E+06 2.820E+06 2.341E+00 3.070E-02 7.534E-01 2.148E-01 9.989E-01 3.340E+00 1.056E+06  9.8481 1.00000
  3.162E+06 3.164E+06 2.355E+00 3.508E-02 8.591E-01 2.427E-01 1.137E+00 3.492E+00 1.157E+06 10.0777 1.00000
  3.548E+06 3.550E+06 2.370E+00 4.007E-02 9.787E-01 2.745E-01 1.293E+00 3.663E+00 1.265E+06 10.3075 1.00000
  3.981E+06 3.983E+06 2.384E+00 4.576E-02 1.114E+00 3.106E-01 1.470E+00 3.855E+00 1.380E+06 10.5376 1.00000
  4.467E+06 4.469E+06 2.399E+00 5.223E-02 1.267E+00 3.517E-01 1.671E+00 4.070E+00 1.502E+06 10.7677 1.00000
  5.012E+06 5.014E+06 2.413E+00 5.960E-02 1.440E+00 3.985E-01 1.898E+00 4.311E+00 1.633E+06 10.9979 1.00000
  5.623E+06 5.625E+06 2.427E+00 6.799E-02 1.635E+00 4.517E-01 2.155E+00 4.582E+00 1.770E+06 11.2281 1.00000
  6.310E+06 6.311E+06 2.441E+00 7.753E-02 1.855E+00 5.123E-01 2.445E+00 4.886E+00 1.915E+06 11.4583 1.00000
  7.079E+06 7.081E+06 2.455E+00 8.838E-02 2.104E+00 5.813E-01 2.774E+00 5.228E+00 2.068E+06 11.6885 1.00000
  7.943E+06 7.945E+06 2.468E+00 1.007E-01 2.384E+00 6.600E-01 3.145E+00 5.613E+00 2.227E+06 11.9187 1.00000
  8.913E+06 8.914E+06 2.482E+00 1.147E-01 2.700E+00 7.496E-01 3.564E+00 6.046E+00 2.394E+06 12.1489 1.00000
  1.000E+07 1.000E+07 2.495E+00 1.307E-01 3.056E+00 8.517E-01 4.038E+00 6.533E+00 2.567E+06 12.3791 1.00000
  1.122E+07 1.122E+07 2.508E+00 1.488E-01 3.457E+00 9.681E-01 4.574E+00 7.082E+00 2.747E+06 12.6093 1.00000
  1.259E+07 1.259E+07 2.521E+00 1.693E-01 3.908E+00 1.101E+00 5.178E+00 7.699E+00 2.932E+06 12.8395 1.00000
  1.413E+07 1.413E+07 2.534E+00 1.926E-01 4.416E+00 1.252E+00 5.861E+00 8.395E+00 3.123E+06 13.0698 1.00000
  1.585E+07 1.585E+07 2.547E+00 2.191E-01 4.988E+00 1.425E+00 6.632E+00 9.179E+00 3.320E+06 13.3000 1.00000
  1.778E+07 1.778E+07 2.560E+00 2.491E-01 5.631E+00 1.621E+00 7.502E+00 1.006E+01 3.521E+06 13.5302 1.00000
  1.995E+07 1.995E+07 2.573E+00 2.832E-01 6.355E+00 1.846E+00 8.483E+00 1.106E+01 3.727E+06 13.7605 1.00000
  2.239E+07 2.239E+07 2.585E+00 3.218E-01 7.168E+00 2.102E+00 9.592E+00 1.218E+01 3.937E+06 13.9907 1.00000
  2.512E+07 2.512E+07 2.598E+00 3.655E-01 8.083E+00 2.394E+00 1.084E+01 1.344E+01 4.151E+06 14.2209 1.00000
  2.818E+07 2.819E+07 2.610E+00 4.150E-01 9.111E+00 2.727E+00 1.225E+01 1.486E+01 4.368E+06 14.4512 1.00000
  3.162E+07 3.162E+07 2.623E+00 4.712E-01 1.027E+01 3.107E+00 1.384E+01 1.647E+01 4.588E+06 14.6814 1.00000
  3.548E+07 3.548E+07 2.635E+00 5.347E-01 1.157E+01 3.541E+00 1.564E+01 1.828E+01 4.811E+06 14.9117 1.00000
  3.981E+07 3.981E+07 2.648E+00 6.066E-01 1.302E+01 4.037E+00 1.767E+01 2.031E+01 5.036E+06 15.1419 1.00000
  4.467E+07 4.467E+07 2.660E+00 6.880E-01 1.466E+01 4.602E+00 1.995E+01 2.261E+01 5.263E+06 15.3722 1.00000
  5.012E+07 5.012E+07 2.672E+00 7.801E-01 1.650E+01 5.247E+00 2.253E+01 2.520E+01 5.492E+06 15.6024 1.00000
  5.623E+07 5.624E+07 2.685E+00 8.842E-01 1.857E+01 5.984E+00 2.544E+01 2.813E+01 5.722E+06 15.8327 1.00000
  6.310E+07 6.310E+07 2.697E+00 1.002E+00 2.089E+01 6.825E+00 2.872E+01 3.142E+01 5.953E+06 16.0629 1.00000
  7.079E+07 7.080E+07 2.710E+00 1.135E+00 2.350E+01 7.785E+00 3.242E+01 3.513E+01 6.185E+06 16.2932 1.00000
  7.943E+07 7.943E+07 2.722E+00 1.285E+00 2.643E+01 8.881E+00 3.660E+01 3.932E+01 6.418E+06 16.5234 1.00000
  8.913E+07 8.913E+07 2.734E+00 1.455E+00 2.972E+01 1.013E+01 4.131E+01 4.404E+01 6.651E+06 16.7537 1.00000
  1.000E+08 1.000E+08 2.747E+00 1.647E+00 3.341E+01 1.156E+01 4.662E+01 4.937E+01 6.885E+06 16.9839 1.00000
  1.122E+08 1.122E+08 2.759E+00 1.863E+00 3.756E+01 1.320E+01 5.261E+01 5.537E+01 7.118E+06 17.2142 1.00000
  1.259E+08 1.259E+08 2.772E+00 2.107E+00 4.221E+01 1.506E+01 5.938E+01 6.215E+01 7.352E+06 17.4444 1.00000
  1.413E+08 1.413E+08 2.784E+00 2.383E+00 4.743E+01 1.719E+01 6.700E+01 6.979E+01 7.586E+06 17.6747 1.00000
  1.585E+08 1.585E+08 2.797E+00 2.693E+00 5.329E+01 1.962E+01 7.561E+01 7.841E+01 7.819E+06 17.9050 1.00000
  1.778E+08 1.778E+08 2.809E+00 3.044E+00 5.987E+01 2.240E+01 8.532E+01 8.813E+01 8.052E+06 18.1352 1.00000
  1.995E+08 1.995E+08 2.822E+00 3.439E+00 6.726E+01 2.557E+01 9.627E+01 9.910E+01 8.285E+06 18.3655 1.00000
  2.239E+08 2.239E+08 2.835E+00 3.884E+00 7.555E+01 2.920E+01 1.086E+02 1.115E+02 8.517E+06 18.5957 1.00000
  2.512E+08 2.512E+08 2.848E+00 4.386E+00 8.485E+01 3.334E+01 1.226E+02 1.254E+02 8.748E+06 18.8260 1.00000
  2.818E+08 2.818E+08 2.860E+00 4.951E+00 9.529E+01 3.808E+01 1.383E+02 1.412E+02 8.979E+06 19.0562 1.00000
  3.162E+08 3.162E+08 2.873E+00 5.588E+00 1.070E+02 4.349E+01 1.561E+02 1.590E+02 9.209E+06 19.2865 1.00000
  3.548E+08 3.548E+08 2.886E+00 6.304E+00 1.202E+02 4.967E+01 1.761E+02 1.790E+02 9.438E+06 19.5168 1.00000
  3.981E+08 3.981E+08 2.899E+00 7.111E+00 1.349E+02 5.673E+01 1.988E+02 2.017E+02 9.666E+06 19.7470 1.00000
  4.467E+08 4.467E+08 2.912E+00 8.019E+00 1.515E+02 6.480E+01 2.243E+02 2.272E+02 9.894E+06 19.9773 1.00000
  5.012E+08 5.012E+08 2.925E+00 9.042E+00 1.701E+02 7.402E+01 2.531E+02 2.561E+02 1.012E+07 20.2075 1.00000
  5.623E+08 5.623E+08 2.938E+00 1.019E+01 1.909E+02 8.456E+01 2.857E+02 2.886E+02 1.035E+07 20.4378 1.00000
  6.310E+08 6.310E+08 2.952E+00 1.149E+01 2.143E+02 9.661E+01 3.224E+02 3.254E+02 1.057E+07 20.6680 1.00000
  7.079E+08 7.079E+08 2.965E+00 1.294E+01 2.406E+02 1.104E+02 3.639E+02 3.669E+02 1.079E+07 20.8983 1.00000
  7.943E+08 7.943E+08 2.978E+00 1.458E+01 2.700E+02 1.261E+02 4.107E+02 4.137E+02 1.102E+07 21.1286 1.00000
  8.913E+08 8.913E+08 2.992E+00 1.642E+01 3.031E+02 1.441E+02 4.636E+02 4.666E+02 1.124E+07 21.3588 1.00000
  1.000E+09 1.000E+09 3.005E+00 1.849E+01 3.402E+02 1.647E+02 5.234E+02 5.264E+02 1.146E+07 21.5891 1.00000
  1.122E+09 1.122E+09 3.019E+00 2.081E+01 3.818E+02 1.882E+02 5.909E+02 5.939E+02 1.167E+07 21.8193 1.00000
  1.259E+09 1.259E+09 3.033E+00 2.342E+01 4.285E+02 2.151E+02 6.671E+02 6.701E+02 1.189E+07 22.0496 1.00000
  1.413E+09 1.413E+09 3.046E+00 2.636E+01 4.810E+02 2.459E+02 7.532E+02 7.562E+02 1.211E+07 22.2798 1.00000
  1.585E+09 1.585E+09 3.060E+00 2.966E+01 5.398E+02 2.810E+02 8.504E+02 8.535E+02 1.232E+07 22.5101 1.00000
  1.778E+09 1.778E+09 3.074E+00 3.337E+01 6.057E+02 3.212E+02 9.603E+02 9.634E+02 1.254E+07 22.7404 1.00000
  1.995E+09 1.995E+09 3.088E+00 3.753E+01 6.798E+02 3.672E+02 1.085E+03 1.088E+03 1.275E+07 22.9706 1.00000
  2.239E+09 2.239E+09 3.102E+00 4.221E+01 7.629E+02 4.198E+02 1.225E+03 1.228E+03 1.296E+07 23.2009 1.00000
  2.512E+09 2.512E+09 3.116E+00 4.747E+01 8.561E+02 4.799E+02 1.383E+03 1.387E+03 1.317E+07 23.4311 1.00000
  2.818E+09 2.818E+09 3.130E+00 5.337E+01 9.607E+02 5.487E+02 1.563E+03 1.566E+03 1.338E+07 23.6614 1.00000
  3.162E+09 3.162E+09 3.145E+00 6.000E+01 1.078E+03 6.274E+02 1.765E+03 1.769E+03 1.359E+07 23.8917 1.00000
  3.548E+09 3.548E+09 3.159E+00 6.744E+01 1.210E+03 7.174E+02 1.995E+03 1.998E+03 1.379E+07 24.1219 1.00000
  3.981E+09 3.981E+09 3.173E+00 7.580E+01 1.357E+03 8.203E+02 2.254E+03 2.257E+03 1.400E+07 24.3522 1.00000
  4.467E+09 4.467E+09 3.188E+00 8.519E+01 1.523E+03 9.381E+02 2.546E+03 2.550E+03 1.420E+07 24.5824 1.00000
  5.012E+09 5.012E+09 3.202E+00 9.572E+01 1.709E+03 1.073E+03 2.878E+03 2.881E+03 1.440E+07 24.8127 1.00000
  5.623E+09 5.623E+09 3.217E+00 1.076E+02 1.918E+03 1.227E+03 3.252E+03 3.256E+03 1.460E+07 25.0429 1.00000
  6.310E+09 6.310E+09 3.232E+00 1.208E+02 2.152E+03 1.403E+03 3.676E+03 3.679E+03 1.480E+07 25.2732 1.00000
  7.079E+09 7.079E+09 3.247E+00 1.357E+02 2.415E+03 1.605E+03 4.156E+03 4.159E+03 1.500E+07 25.5035 1.00000
  7.943E+09 7.943E+09 3.262E+00 1.525E+02 2.710E+03 1.836E+03 4.698E+03 4.701E+03 1.519E+07 25.7337 1.00000
  8.913E+09 8.913E+09 3.277E+00 1.713E+02 3.040E+03 2.100E+03 5.312E+03 5.315E+03 1.539E+07 25.9640 1.00000
  1.000E+10 1.000E+10 3.292E+00 1.923E+02 3.411E+03 2.403E+03 6.007E+03 6.010E+03 1.558E+07 26.1942 1.00000
  1.122E+10 1.122E+10 3.307E+00 2.160E+02 3.828E+03 2.749E+03 6.793E+03 6.796E+03 1.577E+07 26.4245 1.00000
  1.259E+10 1.259E+10 3.322E+00 2.426E+02 4.295E+03 3.145E+03 7.683E+03 7.686E+03 1.596E+07 26.6548 1.00000
  1.413E+10 1.413E+10 3.337E+00 2.724E+02 4.819E+03 3.599E+03 8.690E+03 8.693E+03 1.615E+07 26.8850 1.00000
  1.585E+10 1.585E+10 3.353E+00 3.058E+02 5.407E+03 4.118E+03 9.830E+03 9.834E+03 1.633E+07 27.1153 1.00000
  1.778E+10 1.778E+10 3.368E+00 3.434E+02 6.067E+03 4.712E+03 1.112E+04 1.113E+04 1.652E+07 27.3455 1.00000
  1.995E+10 1.995E+10 3.384E+00 3.855E+02 6.807E+03 5.392E+03 1.258E+04 1.259E+04 1.670E+07 27.5758 1.00000
  2.239E+10 2.239E+10 3.400E+00 4.328E+02 7.638E+03 6.170E+03 1.424E+04 1.424E+04 1.689E+07 27.8061 1.00000
  2.512E+10 2.512E+10 3.415E+00 4.859E+02 8.570E+03 7.062E+03 1.612E+04 1.612E+04 1.707E+07 28.0363 1.00000
  2.818E+10 2.818E+10 3.431E+00 5.454E+02 9.616E+03 8.082E+03 1.824E+04 1.825E+04 1.725E+07 28.2666 1.00000
  3.162E+10 3.162E+10 3.447E+00 6.122E+02 1.079E+04 9.251E+03 2.065E+04 2.066E+04 1.742E+07 28.4968 1.00000
  3.548E+10 3.548E+10 3.463E+00 6.872E+02 1.211E+04 1.059E+04 2.338E+04 2.338E+04 1.760E+07 28.7271 1.00000
  3.981E+10 3.981E+10 3.479E+00 7.714E+02 1.358E+04 1.212E+04 2.647E+04 2.648E+04 1.777E+07 28.9573 1.00000
  4.467E+10 4.467E+10 3.496E+00 8.658E+02 1.524E+04 1.388E+04 2.998E+04 2.998E+04 1.795E+07 29.1876 1.00000
  5.012E+10 5.012E+10 3.512E+00 9.718E+02 1.710E+04 1.589E+04 3.396E+04 3.396E+04 1.812E+07 29.4179 1.00000
  5.623E+10 5.623E+10 3.528E+00 1.091E+03 1.918E+04 1.819E+04 3.846E+04 3.847E+04 1.829E+07 29.6481 1.00000
  6.310E+10 6.310E+10 3.545E+00 1.224E+03 2.153E+04 2.082E+04 4.357E+04 4.358E+04 1.845E+07 29.8784 1.00000
  7.079E+10 7.079E+10 3.561E+00 1.374E+03 2.415E+04 2.384E+04 4.937E+04 4.937E+04 1.862E+07 30.1086 1.00000
  7.943E+10 7.943E+10 3.578E+00 1.542E+03 2.710E+04 2.730E+04 5.594E+04 5.594E+04 1.879E+07 30.3389 1.00000
  8.913E+10 8.913E+10 3.595E+00 1.730E+03 3.040E+04 3.126E+04 6.340E+04 6.340E+04 1.895E+07 30.5692 1.00000
  1.000E+11 1.000E+11 3.612E+00 1.942E+03 3.411E+04 3.580E+04 7.186E+04 7.186E+04 1.911E+07 30.7994 1.00000
  1.122E+11 1.122E+11 3.629E+00 2.179E+03 3.827E+04 4.100E+04 8.146E+04 8.146E+04 1.927E+07 31.0297 1.00000
  1.259E+11 1.259E+11 3.646E+00 2.445E+03 4.294E+04 4.696E+04 9.235E+04 9.235E+04 1.943E+07 31.2599 1.00000
  1.413E+11 1.413E+11 3.663E+00 2.744E+03 4.818E+04 5.379E+04 1.047E+05 1.047E+05 1.958E+07 31.4902 1.00000
  1.585E+11 1.585E+11 3.680E+00 3.079E+03 5.406E+04 6.161E+04 1.187E+05 1.188E+05 1.974E+07 31.7204 1.00000
  1.778E+11 1.778E+11 3.698E+00 3.455E+03 6.065E+04 7.057E+04 1.347E+05 1.347E+05 1.989E+07 31.9507 1.00000
  1.995E+11 1.995E+11 3.715E+00 3.877E+03 6.805E+04 8.084E+04 1.528E+05 1.528E+05 2.004E+07 32.1810 1.00000
  2.239E+11 2.239E+11 3.733E+00 4.351E+03 7.636E+04 9.262E+04 1.733E+05 1.733E+05 2.019E+07 32.4112 1.00000
  2.512E+11 2.512E+11 3.750E+00 4.882E+03 8.567E+04 1.061E+05 1.967E+05 1.967E+05 2.034E+07 32.6415 1.00000
  2.818E+11 2.818E+11 3.768E+00 5.479E+03 9.612E+04 1.216E+05 2.232E+05 2.232E+05 2.049E+07 32.8717 1.00000
  3.162E+11 3.162E+11 3.786E+00 6.147E+03 1.078E+05 1.393E+05 2.533E+05 2.533E+05 2.063E+07 33.1020 1.00000
  3.548E+11 3.548E+11 3.804E+00 6.898E+03 1.210E+05 1.596E+05 2.875E+05 2.875E+05 2.078E+07 33.3323 1.00000
  3.981E+11 3.981E+11 3.822E+00 7.740E+03 1.358E+05 1.829E+05 3.264E+05 3.264E+05 2.092E+07 33.5625 1.00000
  4.467E+11 4.467E+11 3.840E+00 8.685E+03 1.523E+05 2.096E+05 3.706E+05 3.706E+05 2.106E+07 33.7928 1.00000
  5.012E+11 5.012E+11 3.858E+00 9.745E+03 1.709E+05 2.402E+05 4.208E+05 4.208E+05 2.120E+07 34.0230 1.00000
  5.623E+11 5.623E+11 3.877E+00 1.093E+04 1.917E+05 2.753E+05 4.780E+05 4.780E+05 2.133E+07 34.2533 1.00000
  6.310E+11 6.310E+11 3.895E+00 1.227E+04 2.151E+05 3.155E+05 5.429E+05 5.429E+05 2.147E+07 34.4835 1.00000
  7.079E+11 7.079E+11 3.914E+00 1.377E+04 2.414E+05 3.616E+05 6.168E+05 6.168E+05 2.160E+07 34.7138 1.00000
  7.943E+11 7.943E+11 3.933E+00 1.545E+04 2.708E+05 4.145E+05 7.008E+05 7.008E+05 2.173E+07 34.9441 1.00000
  8.913E+11 8.913E+11 3.951E+00 1.733E+04 3.039E+05 4.752E+05 7.963E+05 7.964E+05 2.186E+07 35.1743 1.00000
  1.000E+12 1.000E+12 3.970E+00 1.945E+04 3.409E+05 5.447E+05 9.051E+05 9.051E+05 2.199E+07 35.4046 1.00000
  1.122E+12 1.122E+12 3.989E+00 2.182E+04 3.825E+05 6.245E+05 1.029E+06 1.029E+06 2.212E+07 35.6348 1.00000
  1.259E+12 1.259E+12 4.008E+00 2.449E+04 4.292E+05 7.159E+05 1.170E+06 1.170E+06 2.224E+07 35.8651 1.00000
  1.413E+12 1.413E+12 4.027E+00 2.747E+04 4.815E+05 8.209E+05 1.330E+06 1.330E+06 2.237E+07 36.0954 1.00000
  1.585E+12 1.585E+12 4.047E+00 3.083E+04 5.402E+05 9.412E+05 1.512E+06 1.512E+06 2.249E+07 36.3256 1.00000
  1.778E+12 1.778E+12 4.066E+00 3.459E+04 6.061E+05 1.079E+06 1.720E+06 1.720E+06 2.261E+07 36.5559 1.00000
  1.995E+12 1.995E+12 4.086E+00 3.881E+04 6.801E+05 1.238E+06 1.956E+06 1.956E+06 2.273E+07 36.7861 1.00000
  2.239E+12 2.239E+12 4.105E+00 4.355E+04 7.630E+05 1.419E+06 2.226E+06 2.226E+06 2.284E+07 37.0164 1.00000
  2.512E+12 2.512E+12 4.125E+00 4.886E+04 8.561E+05 1.628E+06 2.533E+06 2.533E+06 2.296E+07 37.2466 1.00000
  2.818E+12 2.818E+12 4.145E+00 5.482E+04 9.605E+05 1.867E+06 2.882E+06 2.882E+06 2.307E+07 37.4769 1.00000
  3.162E+12 3.162E+12 4.165E+00 6.151E+04 1.078E+06 2.141E+06 3.280E+06 3.280E+06 2.319E+07 37.7072 1.00000
  3.548E+12 3.548E+12 4.185E+00 6.902E+04 1.209E+06 2.456E+06 3.734E+06 3.734E+06 2.330E+07 37.9374 1.00000
  3.981E+12 3.981E+12 4.205E+00 7.744E+04 1.357E+06 2.817E+06 4.251E+06 4.251E+06 2.340E+07 38.1677 1.00000
  4.467E+12 4.467E+12 4.225E+00 8.689E+04 1.522E+06 3.231E+06 4.840E+06 4.840E+06 2.351E+07 38.3979 1.00000
  5.012E+12 5.012E+12 4.246E+00 9.749E+04 1.708E+06 3.707E+06 5.512E+06 5.512E+06 2.362E+07 38.6282 1.00000
  5.623E+12 5.623E+12 4.266E+00 1.094E+05 1.916E+06 4.253E+06 6.278E+06 6.278E+06 2.372E+07 38.8585 1.00000
  6.310E+12 6.310E+12 4.287E+00 1.227E+05 2.150E+06 4.879E+06 7.152E+06 7.152E+06 2.382E+07 39.0887 1.00000
  7.079E+12 7.079E+12 4.308E+00 1.377E+05 2.412E+06 5.598E+06 8.148E+06 8.148E+06 2.393E+07 39.3190 1.00000
  7.943E+12 7.943E+12 4.328E+00 1.545E+05 2.706E+06 6.423E+06 9.284E+06 9.284E+06 2.403E+07 39.5492 1.00000
  8.913E+12 8.913E+12 4.349E+00 1.734E+05 3.036E+06 7.370E+06 1.058E+07 1.058E+07 2.412E+07 39.7795 1.00000
  1.000E+13 1.000E+13 4.370E+00 1.945E+05 3.406E+06 8.458E+06 1.206E+07 1.206E+07 2.422E+07 40.0098 1.00000
  1.122E+13 1.122E+13 4.392E+00 2.183E+05 3.822E+06 9.706E+06 1.375E+07 1.375E+07 2.431E+07 40.2400 1.00000
  1.259E+13 1.259E+13 4.413E+00 2.449E+05 4.288E+06 1.114E+07 1.567E+07 1.567E+07 2.441E+07 40.4703 1.00000
  1.413E+13 1.413E+13 4.434E+00 2.748E+05 4.811E+06 1.278E+07 1.787E+07 1.787E+07 2.450E+07 40.7005 1.00000
  1.585E+13 1.585E+13 4.456E+00 3.083E+05 5.397E+06 1.467E+07 2.038E+07 2.038E+07 2.459E+07 40.9308 1.00000
  1.778E+13 1.778E+13 4.478E+00 3.459E+05 6.056E+06 1.684E+07 2.324E+07 2.324E+07 2.468E+07 41.1610 1.00000
  1.995E+13 1.995E+13 4.499E+00 3.881E+05 6.794E+06 1.933E+07 2.651E+07 2.651E+07 2.477E+07 41.3913 1.00000
  2.239E+13 2.239E+13 4.521E+00 4.355E+05 7.623E+06 2.219E+07 3.025E+07 3.025E+07 2.485E+07 41.6216 1.00000
  2.512E+13 2.512E+13 4.543E+00 4.886E+05 8.553E+06 2.547E+07 3.451E+07 3.451E+07 2.494E+07 41.8518 1.00000
  2.818E+13 2.818E+13 4.565E+00 5.483E+05 9.596E+06 2.924E+07 3.939E+07 3.939E+07 2.502E+07 42.0821 1.00000
  3.162E+13 3.162E+13 4.588E+00 6.152E+05 1.077E+07 3.357E+07 4.496E+07 4.496E+07 2.510E+07 42.3123 1.00000
  3.548E+13 3.548E+13 4.610E+00 6.902E+05 1.208E+07 3.855E+07 5.132E+07 5.132E+07 2.518E+07 42.5426 1.00000
  3.981E+13 3.981E+13 4.632E+00 7.744E+05 1.355E+07 4.426E+07 5.859E+07 5.859E+07 2.526E+07 42.7729 1.00000
  4.467E+13 4.467E+13 4.655E+00 8.689E+05 1.520E+07 5.082E+07 6.689E+07 6.689E+07 2.534E+07 43.0031 1.00000
  5.012E+13 5.012E+13 4.678E+00 9.750E+05 1.706E+07 5.836E+07 7.639E+07 7.639E+07 2.542E+07 43.2334 1.00000
  5.623E+13 5.623E+13 4.701E+00 1.094E+06 1.914E+07 6.701E+07 8.725E+07 8.725E+07 2.549E+07 43.4636 1.00000
  6.310E+13 6.310E+13 4.724E+00 1.227E+06 2.147E+07 7.696E+07 9.966E+07 9.966E+07 2.557E+07 43.6939 1.00000
  7.079E+13 7.079E+13 4.747E+00 1.377E+06 2.409E+07 8.838E+07 1.139E+08 1.139E+08 2.564E+07 43.9241 1.00000
  7.943E+13 7.943E+13 4.770E+00 1.545E+06 2.703E+07 1.015E+08 1.301E+08 1.301E+08 2.571E+07 44.1544 1.00000
  8.913E+13 8.913E+13 4.793E+00 1.734E+06 3.033E+07 1.166E+08 1.486E+08 1.486E+08 2.578E+07 44.3847 1.00000
