 Incident particle is a Tau with M = 1776.82000 MeV
 Index = 0: Barium
      Absorber with <Z/A> = 0.40778
 Sternheimer coef:  a     k=m_s   x_0    x_1    I[eV]   Cbar  delta0
                 0.1827  2.8906  0.4190  3.4547  491.0  6.3153 0.14

 *** Table generated with PUMAS v1.00 ***

      T         p     Ionization  brems     pair     photonuc  Radloss    dE/dx   CSDA Range  delta   beta
    [MeV]    [MeV/c]  -----------------------[MeV cm^2/g]------------------------  [g/cm^2]
  1.000E+05 1.018E+05 1.690E+00 7.594E-04 1.318E-02 7.655E-03 2.159E-02 1.712E+00 2.921E+04  2.6226 0.99985
  1.122E+05 1.140E+05 1.709E+00 8.801E-04 1.578E-02 8.599E-03 2.526E-02 1.734E+00 3.630E+04  2.7805 0.99988
  1.259E+05 1.277E+05 1.728E+00 1.019E-03 1.885E-02 9.608E-03 2.948E-02 1.757E+00 4.414E+04  2.9424 0.99990
  1.413E+05 1.430E+05 1.746E+00 1.180E-03 2.245E-02 1.074E-02 3.437E-02 1.780E+00 5.282E+04  3.1082 0.99992
  1.585E+05 1.603E+05 1.764E+00 1.365E-03 2.666E-02 1.200E-02 4.003E-02 1.805E+00 6.244E+04  3.2779 0.99994
  1.778E+05 1.796E+05 1.783E+00 1.579E-03 3.159E-02 1.339E-02 4.657E-02 1.829E+00 7.308E+04  3.4513 0.99995
  1.995E+05 2.013E+05 1.801E+00 1.825E-03 3.735E-02 1.498E-02 5.415E-02 1.855E+00 8.486E+04  3.6283 0.99996
  2.239E+05 2.256E+05 1.818E+00 2.108E-03 4.405E-02 1.671E-02 6.286E-02 1.881E+00 9.790E+04  3.8088 0.99997
  2.512E+05 2.530E+05 1.836E+00 2.433E-03 5.184E-02 1.863E-02 7.290E-02 1.909E+00 1.123E+05  3.9927 0.99998
  2.818E+05 2.836E+05 1.854E+00 2.807E-03 6.088E-02 2.079E-02 8.447E-02 1.938E+00 1.282E+05  4.1798 0.99998
  3.162E+05 3.180E+05 1.871E+00 3.237E-03 7.135E-02 2.321E-02 9.780E-02 1.969E+00 1.459E+05  4.3701 0.99998
  3.548E+05 3.566E+05 1.888E+00 3.730E-03 8.346E-02 2.593E-02 1.131E-01 2.001E+00 1.653E+05  4.5633 0.99999
  3.981E+05 3.999E+05 1.905E+00 4.296E-03 9.744E-02 2.894E-02 1.307E-01 2.035E+00 1.867E+05  4.7596 0.99999
  4.467E+05 4.485E+05 1.921E+00 4.946E-03 1.136E-01 3.231E-02 1.508E-01 2.072E+00 2.104E+05  4.9586 0.99999
  5.012E+05 5.030E+05 1.938E+00 5.691E-03 1.321E-01 3.609E-02 1.739E-01 2.112E+00 2.365E+05  5.1603 0.99999
  5.623E+05 5.641E+05 1.954E+00 6.545E-03 1.534E-01 4.016E-02 2.001E-01 2.154E+00 2.651E+05  5.3645 1.00000
  6.310E+05 6.327E+05 1.970E+00 7.524E-03 1.779E-01 4.474E-02 2.302E-01 2.201E+00 2.966E+05  5.5712 1.00000
  7.079E+05 7.097E+05 1.986E+00 8.645E-03 2.060E-01 4.989E-02 2.645E-01 2.251E+00 3.312E+05  5.7803 1.00000
  7.943E+05 7.961E+05 2.002E+00 9.928E-03 2.382E-01 5.569E-02 3.038E-01 2.306E+00 3.692E+05  5.9915 1.00000
  8.913E+05 8.930E+05 2.018E+00 1.140E-02 2.749E-01 6.222E-02 3.485E-01 2.366E+00 4.107E+05  6.2049 1.00000
  1.000E+06 1.002E+06 2.033E+00 1.307E-02 3.169E-01 6.960E-02 3.996E-01 2.433E+00 4.560E+05  6.4202 1.00000
  1.122E+06 1.124E+06 2.048E+00 1.499E-02 3.649E-01 7.794E-02 4.578E-01 2.506E+00 5.054E+05  6.6374 1.00000
  1.259E+06 1.261E+06 2.063E+00 1.719E-02 4.196E-01 8.736E-02 5.241E-01 2.587E+00 5.592E+05  6.8564 1.00000
  1.413E+06 1.414E+06 2.078E+00 1.970E-02 4.818E-01 9.802E-02 5.995E-01 2.678E+00 6.176E+05  7.0770 1.00000
  1.585E+06 1.587E+06 2.093E+00 2.256E-02 5.527E-01 1.101E-01 6.853E-01 2.778E+00 6.808E+05  7.2990 1.00000
  1.778E+06 1.780E+06 2.107E+00 2.583E-02 6.332E-01 1.238E-01 7.828E-01 2.890E+00 7.490E+05  7.5225 1.00000
  1.995E+06 1.997E+06 2.121E+00 2.956E-02 7.246E-01 1.393E-01 8.934E-01 3.015E+00 8.226E+05  7.7472 1.00000
  2.239E+06 2.240E+06 2.135E+00 3.382E-02 8.284E-01 1.569E-01 1.019E+00 3.155E+00 9.015E+05  7.9730 1.00000
  2.512E+06 2.514E+06 2.149E+00 3.867E-02 9.460E-01 1.768E-01 1.162E+00 3.311E+00 9.861E+05  8.1999 1.00000
  2.818E+06 2.820E+06 2.163E+00 4.420E-02 1.079E+00 1.995E-01 1.323E+00 3.486E+00 1.076E+06  8.4276 1.00000
  3.162E+06 3.164E+06 2.177E+00 5.051E-02 1.230E+00 2.252E-01 1.506E+00 3.683E+00 1.172E+06  8.6561 1.00000
  3.548E+06 3.550E+06 2.190E+00 5.770E-02 1.401E+00 2.545E-01 1.713E+00 3.903E+00 1.274E+06  8.8852 1.00000
  3.981E+06 3.983E+06 2.203E+00 6.588E-02 1.594E+00 2.878E-01 1.948E+00 4.151E+00 1.382E+06  9.1148 1.00000
  4.467E+06 4.469E+06 2.216E+00 7.520E-02 1.812E+00 3.257E-01 2.213E+00 4.430E+00 1.495E+06  9.3448 1.00000
  5.012E+06 5.014E+06 2.229E+00 8.581E-02 2.059E+00 3.687E-01 2.513E+00 4.743E+00 1.614E+06  9.5749 1.00000
  5.623E+06 5.625E+06 2.242E+00 9.788E-02 2.337E+00 4.178E-01 2.853E+00 5.095E+00 1.739E+06  9.8051 1.00000
  6.310E+06 6.311E+06 2.255E+00 1.116E-01 2.651E+00 4.736E-01 3.236E+00 5.491E+00 1.868E+06 10.0353 1.00000
  7.079E+06 7.081E+06 2.267E+00 1.272E-01 3.005E+00 5.371E-01 3.669E+00 5.937E+00 2.003E+06 10.2655 1.00000
  7.943E+06 7.945E+06 2.280E+00 1.450E-01 3.404E+00 6.095E-01 4.158E+00 6.438E+00 2.143E+06 10.4957 1.00000
  8.913E+06 8.914E+06 2.292E+00 1.651E-01 3.853E+00 6.920E-01 4.710E+00 7.003E+00 2.288E+06 10.7259 1.00000
  1.000E+07 1.000E+07 2.304E+00 1.880E-01 4.360E+00 7.860E-01 5.334E+00 7.638E+00 2.436E+06 10.9561 1.00000
  1.122E+07 1.122E+07 2.317E+00 2.140E-01 4.930E+00 8.931E-01 6.037E+00 8.354E+00 2.589E+06 11.1863 1.00000
  1.259E+07 1.259E+07 2.328E+00 2.436E-01 5.572E+00 1.015E+00 6.831E+00 9.159E+00 2.746E+06 11.4165 1.00000
  1.413E+07 1.413E+07 2.340E+00 2.771E-01 6.295E+00 1.154E+00 7.726E+00 1.007E+01 2.906E+06 11.6468 1.00000
  1.585E+07 1.585E+07 2.352E+00 3.151E-01 7.108E+00 1.313E+00 8.736E+00 1.109E+01 3.070E+06 11.8770 1.00000
  1.778E+07 1.778E+07 2.364E+00 3.582E-01 8.022E+00 1.494E+00 9.874E+00 1.224E+01 3.236E+06 12.1072 1.00000
  1.995E+07 1.995E+07 2.376E+00 4.071E-01 9.050E+00 1.701E+00 1.116E+01 1.353E+01 3.405E+06 12.3375 1.00000
  2.239E+07 2.239E+07 2.387E+00 4.625E-01 1.021E+01 1.936E+00 1.261E+01 1.499E+01 3.576E+06 12.5677 1.00000
  2.512E+07 2.512E+07 2.399E+00 5.253E-01 1.151E+01 2.205E+00 1.424E+01 1.663E+01 3.749E+06 12.7979 1.00000
  2.818E+07 2.819E+07 2.410E+00 5.964E-01 1.297E+01 2.511E+00 1.607E+01 1.848E+01 3.924E+06 13.0282 1.00000
  3.162E+07 3.162E+07 2.421E+00 6.770E-01 1.461E+01 2.861E+00 1.815E+01 2.057E+01 4.101E+06 13.2584 1.00000
  3.548E+07 3.548E+07 2.433E+00 7.681E-01 1.645E+01 3.261E+00 2.048E+01 2.291E+01 4.279E+06 13.4887 1.00000
  3.981E+07 3.981E+07 2.444E+00 8.713E-01 1.853E+01 3.716E+00 2.311E+01 2.556E+01 4.458E+06 13.7189 1.00000
  4.467E+07 4.467E+07 2.456E+00 9.880E-01 2.085E+01 4.236E+00 2.608E+01 2.853E+01 4.638E+06 13.9492 1.00000
  5.012E+07 5.012E+07 2.467E+00 1.120E+00 2.347E+01 4.830E+00 2.942E+01 3.188E+01 4.819E+06 14.1794 1.00000
  5.623E+07 5.624E+07 2.478E+00 1.269E+00 2.640E+01 5.507E+00 3.318E+01 3.566E+01 5.001E+06 14.4097 1.00000
  6.310E+07 6.310E+07 2.490E+00 1.438E+00 2.970E+01 6.281E+00 3.742E+01 3.991E+01 5.183E+06 14.6399 1.00000
  7.079E+07 7.080E+07 2.501E+00 1.628E+00 3.340E+01 7.164E+00 4.220E+01 4.470E+01 5.365E+06 14.8702 1.00000
  7.943E+07 7.943E+07 2.512E+00 1.844E+00 3.756E+01 8.172E+00 4.758E+01 5.009E+01 5.548E+06 15.1004 1.00000
  8.913E+07 8.913E+07 2.524E+00 2.087E+00 4.223E+01 9.324E+00 5.364E+01 5.616E+01 5.731E+06 15.3307 1.00000
  1.000E+08 1.000E+08 2.535E+00 2.361E+00 4.747E+01 1.064E+01 6.047E+01 6.300E+01 5.914E+06 15.5609 1.00000
  1.122E+08 1.122E+08 2.546E+00 2.671E+00 5.335E+01 1.214E+01 6.816E+01 7.071E+01 6.097E+06 15.7912 1.00000
  1.259E+08 1.259E+08 2.558E+00 3.020E+00 5.996E+01 1.386E+01 7.683E+01 7.939E+01 6.280E+06 16.0214 1.00000
  1.413E+08 1.413E+08 2.569E+00 3.414E+00 6.737E+01 1.581E+01 8.660E+01 8.917E+01 6.463E+06 16.2517 1.00000
  1.585E+08 1.585E+08 2.581E+00 3.858E+00 7.569E+01 1.805E+01 9.760E+01 1.002E+02 6.646E+06 16.4820 1.00000
  1.778E+08 1.778E+08 2.592E+00 4.359E+00 8.503E+01 2.061E+01 1.100E+02 1.126E+02 6.828E+06 16.7122 1.00000
  1.995E+08 1.995E+08 2.604E+00 4.924E+00 9.551E+01 2.353E+01 1.240E+02 1.266E+02 7.010E+06 16.9425 1.00000
  2.239E+08 2.239E+08 2.615E+00 5.560E+00 1.073E+02 2.686E+01 1.397E+02 1.423E+02 7.192E+06 17.1727 1.00000
  2.512E+08 2.512E+08 2.627E+00 6.277E+00 1.205E+02 3.067E+01 1.574E+02 1.601E+02 7.373E+06 17.4030 1.00000
  2.818E+08 2.818E+08 2.639E+00 7.084E+00 1.353E+02 3.503E+01 1.774E+02 1.800E+02 7.554E+06 17.6332 1.00000
  3.162E+08 3.162E+08 2.651E+00 7.993E+00 1.519E+02 4.000E+01 1.999E+02 2.026E+02 7.735E+06 17.8635 1.00000
  3.548E+08 3.548E+08 2.662E+00 9.016E+00 1.706E+02 4.568E+01 2.253E+02 2.280E+02 7.915E+06 18.0938 1.00000
  3.981E+08 3.981E+08 2.674E+00 1.017E+01 1.915E+02 5.218E+01 2.539E+02 2.566E+02 8.094E+06 18.3240 1.00000
  4.467E+08 4.467E+08 2.686E+00 1.146E+01 2.150E+02 5.960E+01 2.861E+02 2.888E+02 8.273E+06 18.5543 1.00000
  5.012E+08 5.012E+08 2.698E+00 1.292E+01 2.414E+02 6.809E+01 3.224E+02 3.251E+02 8.451E+06 18.7845 1.00000
  5.623E+08 5.623E+08 2.710E+00 1.456E+01 2.710E+02 7.778E+01 3.633E+02 3.660E+02 8.629E+06 19.0148 1.00000
  6.310E+08 6.310E+08 2.722E+00 1.641E+01 3.042E+02 8.886E+01 4.095E+02 4.122E+02 8.805E+06 19.2450 1.00000
  7.079E+08 7.079E+08 2.735E+00 1.848E+01 3.415E+02 1.015E+02 4.615E+02 4.642E+02 8.982E+06 19.4753 1.00000
  7.943E+08 7.943E+08 2.747E+00 2.082E+01 3.833E+02 1.160E+02 5.201E+02 5.228E+02 9.157E+06 19.7056 1.00000
  8.913E+08 8.913E+08 2.759E+00 2.344E+01 4.302E+02 1.326E+02 5.862E+02 5.889E+02 9.332E+06 19.9358 1.00000
  1.000E+09 1.000E+09 2.772E+00 2.639E+01 4.828E+02 1.515E+02 6.607E+02 6.635E+02 9.507E+06 20.1661 1.00000
  1.122E+09 1.122E+09 2.784E+00 2.970E+01 5.419E+02 1.731E+02 7.447E+02 7.475E+02 9.680E+06 20.3963 1.00000
  1.259E+09 1.259E+09 2.796E+00 3.342E+01 6.082E+02 1.979E+02 8.395E+02 8.423E+02 9.853E+06 20.6266 1.00000
  1.413E+09 1.413E+09 2.809E+00 3.761E+01 6.825E+02 2.261E+02 9.463E+02 9.491E+02 1.003E+07 20.8568 1.00000
  1.585E+09 1.585E+09 2.822E+00 4.231E+01 7.660E+02 2.585E+02 1.067E+03 1.070E+03 1.020E+07 21.0871 1.00000
  1.778E+09 1.778E+09 2.834E+00 4.759E+01 8.596E+02 2.955E+02 1.203E+03 1.206E+03 1.037E+07 21.3174 1.00000
  1.995E+09 1.995E+09 2.847E+00 5.352E+01 9.647E+02 3.377E+02 1.356E+03 1.359E+03 1.054E+07 21.5476 1.00000
  2.239E+09 2.239E+09 2.860E+00 6.018E+01 1.083E+03 3.861E+02 1.529E+03 1.532E+03 1.071E+07 21.7779 1.00000
  2.512E+09 2.512E+09 2.873E+00 6.766E+01 1.215E+03 4.414E+02 1.724E+03 1.727E+03 1.087E+07 22.0081 1.00000
  2.818E+09 2.818E+09 2.886E+00 7.606E+01 1.363E+03 5.047E+02 1.944E+03 1.947E+03 1.104E+07 22.2384 1.00000
  3.162E+09 3.162E+09 2.899E+00 8.549E+01 1.530E+03 5.770E+02 2.192E+03 2.195E+03 1.121E+07 22.4687 1.00000
  3.548E+09 3.548E+09 2.912E+00 9.609E+01 1.717E+03 6.598E+02 2.472E+03 2.475E+03 1.137E+07 22.6989 1.00000
  3.981E+09 3.981E+09 2.925E+00 1.080E+02 1.926E+03 7.545E+02 2.789E+03 2.792E+03 1.154E+07 22.9292 1.00000
  4.467E+09 4.467E+09 2.939E+00 1.213E+02 2.161E+03 8.628E+02 3.146E+03 3.149E+03 1.170E+07 23.1594 1.00000
  5.012E+09 5.012E+09 2.952E+00 1.363E+02 2.425E+03 9.867E+02 3.548E+03 3.551E+03 1.187E+07 23.3897 1.00000
  5.623E+09 5.623E+09 2.965E+00 1.532E+02 2.721E+03 1.129E+03 4.003E+03 4.006E+03 1.203E+07 23.6199 1.00000
  6.310E+09 6.310E+09 2.979E+00 1.720E+02 3.054E+03 1.291E+03 4.516E+03 4.519E+03 1.219E+07 23.8502 1.00000
  7.079E+09 7.079E+09 2.992E+00 1.932E+02 3.426E+03 1.476E+03 5.096E+03 5.099E+03 1.235E+07 24.0805 1.00000
  7.943E+09 7.943E+09 3.006E+00 2.170E+02 3.845E+03 1.689E+03 5.751E+03 5.754E+03 1.251E+07 24.3107 1.00000
  8.913E+09 8.913E+09 3.020E+00 2.438E+02 4.314E+03 1.932E+03 6.490E+03 6.493E+03 1.267E+07 24.5410 1.00000
  1.000E+10 1.000E+10 3.034E+00 2.737E+02 4.841E+03 2.210E+03 7.324E+03 7.327E+03 1.283E+07 24.7712 1.00000
  1.122E+10 1.122E+10 3.047E+00 3.074E+02 5.431E+03 2.528E+03 8.267E+03 8.270E+03 1.299E+07 25.0015 1.00000
  1.259E+10 1.259E+10 3.061E+00 3.452E+02 6.094E+03 2.893E+03 9.332E+03 9.335E+03 1.314E+07 25.2318 1.00000
  1.413E+10 1.413E+10 3.075E+00 3.875E+02 6.838E+03 3.310E+03 1.054E+04 1.054E+04 1.330E+07 25.4620 1.00000
  1.585E+10 1.585E+10 3.090E+00 4.351E+02 7.672E+03 3.787E+03 1.189E+04 1.190E+04 1.345E+07 25.6923 1.00000
  1.778E+10 1.778E+10 3.104E+00 4.885E+02 8.609E+03 4.333E+03 1.343E+04 1.343E+04 1.360E+07 25.9225 1.00000
  1.995E+10 1.995E+10 3.118E+00 5.484E+02 9.659E+03 4.959E+03 1.517E+04 1.517E+04 1.376E+07 26.1528 1.00000
  2.239E+10 2.239E+10 3.132E+00 6.156E+02 1.084E+04 5.675E+03 1.713E+04 1.713E+04 1.391E+07 26.3831 1.00000
  2.512E+10 2.512E+10 3.147E+00 6.910E+02 1.216E+04 6.495E+03 1.935E+04 1.935E+04 1.406E+07 26.6133 1.00000
  2.818E+10 2.818E+10 3.161E+00 7.757E+02 1.364E+04 7.434E+03 2.185E+04 2.186E+04 1.421E+07 26.8436 1.00000
  3.162E+10 3.162E+10 3.176E+00 8.707E+02 1.531E+04 8.508E+03 2.469E+04 2.469E+04 1.436E+07 27.0738 1.00000
  3.548E+10 3.548E+10 3.191E+00 9.773E+02 1.718E+04 9.739E+03 2.789E+04 2.790E+04 1.450E+07 27.3041 1.00000
  3.981E+10 3.981E+10 3.205E+00 1.097E+03 1.927E+04 1.115E+04 3.152E+04 3.152E+04 1.465E+07 27.5343 1.00000
  4.467E+10 4.467E+10 3.220E+00 1.231E+03 2.162E+04 1.276E+04 3.562E+04 3.562E+04 1.479E+07 27.7646 1.00000
  5.012E+10 5.012E+10 3.235E+00 1.382E+03 2.426E+04 1.461E+04 4.025E+04 4.026E+04 1.494E+07 27.9949 1.00000
  5.623E+10 5.623E+10 3.250E+00 1.551E+03 2.722E+04 1.673E+04 4.550E+04 4.550E+04 1.508E+07 28.2251 1.00000
  6.310E+10 6.310E+10 3.265E+00 1.740E+03 3.054E+04 1.915E+04 5.144E+04 5.144E+04 1.522E+07 28.4554 1.00000
  7.079E+10 7.079E+10 3.280E+00 1.953E+03 3.427E+04 2.193E+04 5.815E+04 5.815E+04 1.536E+07 28.6856 1.00000
  7.943E+10 7.943E+10 3.296E+00 2.192E+03 3.845E+04 2.511E+04 6.575E+04 6.576E+04 1.550E+07 28.9159 1.00000
  8.913E+10 8.913E+10 3.311E+00 2.460E+03 4.314E+04 2.875E+04 7.435E+04 7.436E+04 1.564E+07 29.1462 1.00000
  1.000E+11 1.000E+11 3.327E+00 2.760E+03 4.840E+04 3.293E+04 8.409E+04 8.410E+04 1.578E+07 29.3764 1.00000
  1.122E+11 1.122E+11 3.342E+00 3.098E+03 5.431E+04 3.771E+04 9.512E+04 9.512E+04 1.592E+07 29.6067 1.00000
  1.259E+11 1.259E+11 3.358E+00 3.476E+03 6.093E+04 4.319E+04 1.076E+05 1.076E+05 1.605E+07 29.8369 1.00000
  1.413E+11 1.413E+11 3.373E+00 3.901E+03 6.837E+04 4.947E+04 1.217E+05 1.217E+05 1.619E+07 30.0672 1.00000
  1.585E+11 1.585E+11 3.389E+00 4.377E+03 7.671E+04 5.666E+04 1.377E+05 1.378E+05 1.632E+07 30.2974 1.00000
  1.778E+11 1.778E+11 3.405E+00 4.912E+03 8.606E+04 6.491E+04 1.559E+05 1.559E+05 1.645E+07 30.5277 1.00000
  1.995E+11 1.995E+11 3.421E+00 5.511E+03 9.656E+04 7.436E+04 1.764E+05 1.764E+05 1.658E+07 30.7580 1.00000
  2.239E+11 2.239E+11 3.437E+00 6.184E+03 1.083E+05 8.518E+04 1.997E+05 1.997E+05 1.671E+07 30.9882 1.00000
  2.512E+11 2.512E+11 3.453E+00 6.940E+03 1.216E+05 9.759E+04 2.261E+05 2.261E+05 1.684E+07 31.2185 1.00000
  2.818E+11 2.818E+11 3.470E+00 7.787E+03 1.364E+05 1.118E+05 2.560E+05 2.560E+05 1.697E+07 31.4487 1.00000
  3.162E+11 3.162E+11 3.486E+00 8.738E+03 1.530E+05 1.281E+05 2.899E+05 2.899E+05 1.710E+07 31.6790 1.00000
  3.548E+11 3.548E+11 3.502E+00 9.804E+03 1.717E+05 1.468E+05 3.283E+05 3.283E+05 1.722E+07 31.9093 1.00000
  3.981E+11 3.981E+11 3.519E+00 1.100E+04 1.926E+05 1.682E+05 3.718E+05 3.718E+05 1.735E+07 32.1395 1.00000
  4.467E+11 4.467E+11 3.536E+00 1.234E+04 2.161E+05 1.928E+05 4.212E+05 4.212E+05 1.747E+07 32.3698 1.00000
  5.012E+11 5.012E+11 3.552E+00 1.385E+04 2.425E+05 2.209E+05 4.773E+05 4.773E+05 1.759E+07 32.6000 1.00000
  5.623E+11 5.623E+11 3.569E+00 1.554E+04 2.721E+05 2.532E+05 5.408E+05 5.408E+05 1.771E+07 32.8303 1.00000
  6.310E+11 6.310E+11 3.586E+00 1.744E+04 3.053E+05 2.902E+05 6.129E+05 6.129E+05 1.783E+07 33.0605 1.00000
  7.079E+11 7.079E+11 3.603E+00 1.957E+04 3.425E+05 3.326E+05 6.947E+05 6.947E+05 1.795E+07 33.2908 1.00000
  7.943E+11 7.943E+11 3.620E+00 2.195E+04 3.843E+05 3.812E+05 7.875E+05 7.875E+05 1.807E+07 33.5211 1.00000
  8.913E+11 8.913E+11 3.637E+00 2.463E+04 4.311E+05 4.370E+05 8.928E+05 8.928E+05 1.818E+07 33.7513 1.00000
  1.000E+12 1.000E+12 3.655E+00 2.764E+04 4.837E+05 5.010E+05 1.012E+06 1.012E+06 1.830E+07 33.9816 1.00000
  1.122E+12 1.122E+12 3.672E+00 3.101E+04 5.427E+05 5.743E+05 1.148E+06 1.148E+06 1.841E+07 34.2118 1.00000
  1.259E+12 1.259E+12 3.689E+00 3.480E+04 6.089E+05 6.585E+05 1.302E+06 1.302E+06 1.852E+07 34.4421 1.00000
  1.413E+12 1.413E+12 3.707E+00 3.905E+04 6.832E+05 7.550E+05 1.477E+06 1.477E+06 1.863E+07 34.6724 1.00000
  1.585E+12 1.585E+12 3.725E+00 4.381E+04 7.666E+05 8.657E+05 1.676E+06 1.676E+06 1.874E+07 34.9026 1.00000
  1.778E+12 1.778E+12 3.742E+00 4.916E+04 8.601E+05 9.926E+05 1.902E+06 1.902E+06 1.885E+07 35.1329 1.00000
  1.995E+12 1.995E+12 3.760E+00 5.516E+04 9.650E+05 1.138E+06 2.158E+06 2.158E+06 1.896E+07 35.3631 1.00000
  2.239E+12 2.239E+12 3.778E+00 6.189E+04 1.083E+06 1.305E+06 2.450E+06 2.450E+06 1.907E+07 35.5934 1.00000
  2.512E+12 2.512E+12 3.796E+00 6.944E+04 1.215E+06 1.497E+06 2.781E+06 2.781E+06 1.917E+07 35.8236 1.00000
  2.818E+12 2.818E+12 3.814E+00 7.791E+04 1.363E+06 1.717E+06 3.158E+06 3.158E+06 1.927E+07 36.0539 1.00000
  3.162E+12 3.162E+12 3.833E+00 8.742E+04 1.529E+06 1.969E+06 3.586E+06 3.586E+06 1.938E+07 36.2842 1.00000
  3.548E+12 3.548E+12 3.851E+00 9.809E+04 1.716E+06 2.259E+06 4.072E+06 4.072E+06 1.948E+07 36.5144 1.00000
  3.981E+12 3.981E+12 3.869E+00 1.101E+05 1.925E+06 2.591E+06 4.626E+06 4.626E+06 1.958E+07 36.7447 1.00000
  4.467E+12 4.467E+12 3.888E+00 1.235E+05 2.160E+06 2.972E+06 5.255E+06 5.255E+06 1.968E+07 36.9749 1.00000
  5.012E+12 5.012E+12 3.907E+00 1.386E+05 2.423E+06 3.409E+06 5.971E+06 5.971E+06 1.977E+07 37.2052 1.00000
  5.623E+12 5.623E+12 3.925E+00 1.555E+05 2.719E+06 3.911E+06 6.785E+06 6.785E+06 1.987E+07 37.4355 1.00000
  6.310E+12 6.310E+12 3.944E+00 1.744E+05 3.050E+06 4.488E+06 7.712E+06 7.712E+06 1.997E+07 37.6657 1.00000
  7.079E+12 7.079E+12 3.963E+00 1.957E+05 3.422E+06 5.149E+06 8.767E+06 8.767E+06 2.006E+07 37.8960 1.00000
  7.943E+12 7.943E+12 3.982E+00 2.196E+05 3.840E+06 5.908E+06 9.967E+06 9.967E+06 2.015E+07 38.1262 1.00000
  8.913E+12 8.913E+12 4.002E+00 2.464E+05 4.308E+06 6.779E+06 1.133E+07 1.133E+07 2.024E+07 38.3565 1.00000
  1.000E+13 1.000E+13 4.021E+00 2.765E+05 4.833E+06 7.779E+06 1.289E+07 1.289E+07 2.033E+07 38.5868 1.00000
  1.122E+13 1.122E+13 4.040E+00 3.102E+05 5.423E+06 8.927E+06 1.466E+07 1.466E+07 2.042E+07 38.8170 1.00000
  1.259E+13 1.259E+13 4.060E+00 3.480E+05 6.084E+06 1.024E+07 1.668E+07 1.668E+07 2.051E+07 39.0473 1.00000
  1.413E+13 1.413E+13 4.079E+00 3.905E+05 6.826E+06 1.176E+07 1.897E+07 1.897E+07 2.060E+07 39.2775 1.00000
  1.585E+13 1.585E+13 4.099E+00 4.382E+05 7.659E+06 1.349E+07 2.159E+07 2.159E+07 2.068E+07 39.5078 1.00000
  1.778E+13 1.778E+13 4.119E+00 4.916E+05 8.593E+06 1.549E+07 2.457E+07 2.457E+07 2.077E+07 39.7380 1.00000
  1.995E+13 1.995E+13 4.139E+00 5.516E+05 9.641E+06 1.778E+07 2.797E+07 2.797E+07 2.085E+07 39.9683 1.00000
  2.239E+13 2.239E+13 4.159E+00 6.189E+05 1.082E+07 2.041E+07 3.184E+07 3.184E+07 2.093E+07 40.1986 1.00000
  2.512E+13 2.512E+13 4.179E+00 6.944E+05 1.214E+07 2.343E+07 3.626E+07 3.626E+07 2.101E+07 40.4288 1.00000
  2.818E+13 2.818E+13 4.199E+00 7.792E+05 1.362E+07 2.690E+07 4.129E+07 4.129E+07 2.109E+07 40.6591 1.00000
  3.162E+13 3.162E+13 4.220E+00 8.742E+05 1.528E+07 3.088E+07 4.703E+07 4.703E+07 2.117E+07 40.8893 1.00000
  3.548E+13 3.548E+13 4.240E+00 9.809E+05 1.714E+07 3.545E+07 5.357E+07 5.357E+07 2.125E+07 41.1196 1.00000
  3.981E+13 3.981E+13 4.261E+00 1.101E+06 1.923E+07 4.071E+07 6.104E+07 6.104E+07 2.132E+07 41.3499 1.00000
  4.467E+13 4.467E+13 4.281E+00 1.235E+06 2.157E+07 4.674E+07 6.955E+07 6.955E+07 2.140E+07 41.5801 1.00000
  5.012E+13 5.012E+13 4.302E+00 1.386E+06 2.421E+07 5.367E+07 7.926E+07 7.926E+07 2.147E+07 41.8104 1.00000
  5.623E+13 5.623E+13 4.323E+00 1.555E+06 2.716E+07 6.163E+07 9.035E+07 9.035E+07 2.154E+07 42.0406 1.00000
  6.310E+13 6.310E+13 4.344E+00 1.744E+06 3.047E+07 7.078E+07 1.030E+08 1.030E+08 2.161E+07 42.2709 1.00000
  7.079E+13 7.079E+13 4.365E+00 1.957E+06 3.419E+07 8.129E+07 1.174E+08 1.174E+08 2.168E+07 42.5011 1.00000
  7.943E+13 7.943E+13 4.386E+00 2.196E+06 3.835E+07 9.336E+07 1.339E+08 1.339E+08 2.175E+07 42.7314 1.00000
  8.913E+13 8.913E+13 4.408E+00 2.464E+06 4.303E+07 1.072E+08 1.527E+08 1.527E+08 2.182E+07 42.9617 1.00000
