 Incident particle is a Tau with M = 1776.82000 MeV
 Index = 0: BerylliumOxide
      Absorber with <Z/A> = 0.47978
 Sternheimer coef:  a     k=m_s   x_0    x_1    I[eV]   Cbar  delta0
                 0.1076  3.4927  0.0241  2.5846   93.2  2.9801 0.00

 *** Table generated with PUMAS v1.00 ***

      T         p     Ionization  brems     pair     photonuc  Radloss    dE/dx   CSDA Range  delta   beta
    [MeV]    [MeV/c]  -----------------------[MeV cm^2/g]------------------------  [g/cm^2]
  1.000E+05 1.018E+05 2.045E+00 1.267E-04 1.972E-03 8.336E-03 1.043E-02 2.056E+00 2.432E+04  5.1709 0.99985
  1.122E+05 1.140E+05 2.063E+00 1.464E-04 2.381E-03 9.413E-03 1.194E-02 2.075E+00 3.023E+04  5.3867 0.99988
  1.259E+05 1.277E+05 2.081E+00 1.690E-04 2.863E-03 1.057E-02 1.361E-02 2.095E+00 3.679E+04  5.6045 0.99990
  1.413E+05 1.430E+05 2.099E+00 1.950E-04 3.432E-03 1.188E-02 1.551E-02 2.115E+00 4.409E+04  5.8240 0.99992
  1.585E+05 1.603E+05 2.117E+00 2.250E-04 4.101E-03 1.334E-02 1.767E-02 2.135E+00 5.220E+04  6.0452 0.99994
  1.778E+05 1.796E+05 2.135E+00 2.594E-04 4.886E-03 1.498E-02 2.012E-02 2.155E+00 6.122E+04  6.2677 0.99995
  1.995E+05 2.013E+05 2.153E+00 2.990E-04 5.805E-03 1.684E-02 2.294E-02 2.175E+00 7.124E+04  6.4915 0.99996
  2.239E+05 2.256E+05 2.170E+00 3.444E-04 6.880E-03 1.888E-02 2.610E-02 2.196E+00 8.238E+04  6.7165 0.99997
  2.512E+05 2.530E+05 2.188E+00 3.966E-04 8.134E-03 2.116E-02 2.969E-02 2.218E+00 9.476E+04  6.9424 0.99998
  2.818E+05 2.836E+05 2.205E+00 4.564E-04 9.594E-03 2.373E-02 3.378E-02 2.239E+00 1.085E+05  7.1692 0.99998
  3.162E+05 3.180E+05 2.223E+00 5.251E-04 1.129E-02 2.664E-02 3.845E-02 2.261E+00 1.238E+05  7.3966 0.99998
  3.548E+05 3.566E+05 2.241E+00 6.039E-04 1.326E-02 2.990E-02 4.377E-02 2.284E+00 1.408E+05  7.6247 0.99999
  3.981E+05 3.999E+05 2.258E+00 6.942E-04 1.555E-02 3.354E-02 4.979E-02 2.308E+00 1.596E+05  7.8532 0.99999
  4.467E+05 4.485E+05 2.275E+00 7.978E-04 1.819E-02 3.763E-02 5.662E-02 2.332E+00 1.806E+05  8.0822 0.99999
  5.012E+05 5.030E+05 2.293E+00 9.164E-04 2.125E-02 4.223E-02 6.439E-02 2.357E+00 2.038E+05  8.3114 0.99999
  5.623E+05 5.641E+05 2.310E+00 1.052E-03 2.477E-02 4.721E-02 7.304E-02 2.383E+00 2.296E+05  8.5408 1.00000
  6.310E+05 6.327E+05 2.327E+00 1.208E-03 2.884E-02 5.283E-02 8.288E-02 2.410E+00 2.582E+05  8.7703 1.00000
  7.079E+05 7.097E+05 2.345E+00 1.386E-03 3.352E-02 5.917E-02 9.407E-02 2.439E+00 2.900E+05  9.0000 1.00000
  7.943E+05 7.961E+05 2.362E+00 1.590E-03 3.890E-02 6.632E-02 1.068E-01 2.469E+00 3.252E+05  9.2297 1.00000
  8.913E+05 8.930E+05 2.379E+00 1.823E-03 4.509E-02 7.442E-02 1.213E-01 2.500E+00 3.642E+05  9.4595 1.00000
  1.000E+06 1.002E+06 2.396E+00 2.090E-03 5.218E-02 8.357E-02 1.378E-01 2.534E+00 4.074E+05  9.6893 1.00000
  1.122E+06 1.124E+06 2.413E+00 2.396E-03 6.031E-02 9.393E-02 1.566E-01 2.570E+00 4.553E+05  9.9192 1.00000
  1.259E+06 1.261E+06 2.430E+00 2.745E-03 6.961E-02 1.057E-01 1.780E-01 2.608E+00 5.081E+05 10.1491 1.00000
  1.413E+06 1.414E+06 2.446E+00 3.144E-03 8.025E-02 1.190E-01 2.024E-01 2.649E+00 5.666E+05 10.3790 1.00000
  1.585E+06 1.587E+06 2.463E+00 3.600E-03 9.240E-02 1.340E-01 2.300E-01 2.693E+00 6.311E+05 10.6090 1.00000
  1.778E+06 1.780E+06 2.480E+00 4.121E-03 1.063E-01 1.512E-01 2.615E-01 2.741E+00 7.023E+05 10.8390 1.00000
  1.995E+06 1.997E+06 2.496E+00 4.716E-03 1.221E-01 1.706E-01 2.974E-01 2.793E+00 7.807E+05 11.0691 1.00000
  2.239E+06 2.240E+06 2.512E+00 5.396E-03 1.401E-01 1.926E-01 3.381E-01 2.850E+00 8.670E+05 11.2992 1.00000
  2.512E+06 2.514E+06 2.528E+00 6.173E-03 1.606E-01 2.177E-01 3.845E-01 2.913E+00 9.618E+05 11.5292 1.00000
  2.818E+06 2.820E+06 2.544E+00 7.059E-03 1.839E-01 2.462E-01 4.372E-01 2.982E+00 1.066E+06 11.7593 1.00000
  3.162E+06 3.164E+06 2.560E+00 8.071E-03 2.104E-01 2.786E-01 4.971E-01 3.057E+00 1.180E+06 11.9895 1.00000
  3.548E+06 3.550E+06 2.576E+00 9.225E-03 2.405E-01 3.154E-01 5.651E-01 3.141E+00 1.304E+06 12.2196 1.00000
  3.981E+06 3.983E+06 2.592E+00 1.054E-02 2.746E-01 3.573E-01 6.425E-01 3.234E+00 1.440E+06 12.4498 1.00000
  4.467E+06 4.469E+06 2.607E+00 1.204E-02 3.133E-01 4.051E-01 7.304E-01 3.337E+00 1.588E+06 12.6799 1.00000
  5.012E+06 5.014E+06 2.622E+00 1.376E-02 3.571E-01 4.594E-01 8.302E-01 3.452E+00 1.749E+06 12.9101 1.00000
  5.623E+06 5.625E+06 2.637E+00 1.571E-02 4.067E-01 5.212E-01 9.436E-01 3.581E+00 1.923E+06 13.1403 1.00000
  6.310E+06 6.311E+06 2.652E+00 1.793E-02 4.628E-01 5.917E-01 1.072E+00 3.725E+00 2.110E+06 13.3705 1.00000
  7.079E+06 7.081E+06 2.667E+00 2.046E-02 5.263E-01 6.719E-01 1.219E+00 3.886E+00 2.313E+06 13.6007 1.00000
  7.943E+06 7.945E+06 2.682E+00 2.335E-02 5.980E-01 7.633E-01 1.385E+00 4.066E+00 2.530E+06 13.8309 1.00000
  8.913E+06 8.914E+06 2.696E+00 2.663E-02 6.790E-01 8.675E-01 1.573E+00 4.269E+00 2.763E+06 14.0611 1.00000
  1.000E+07 1.000E+07 2.710E+00 3.037E-02 7.705E-01 9.863E-01 1.787E+00 4.498E+00 3.011E+06 14.2913 1.00000
  1.122E+07 1.122E+07 2.725E+00 3.463E-02 8.737E-01 1.122E+00 2.030E+00 4.755E+00 3.275E+06 14.5215 1.00000
  1.259E+07 1.259E+07 2.739E+00 3.947E-02 9.902E-01 1.276E+00 2.306E+00 5.044E+00 3.555E+06 14.7517 1.00000
  1.413E+07 1.413E+07 2.753E+00 4.497E-02 1.121E+00 1.452E+00 2.619E+00 5.371E+00 3.850E+06 14.9820 1.00000
  1.585E+07 1.585E+07 2.767E+00 5.123E-02 1.269E+00 1.653E+00 2.974E+00 5.740E+00 4.161E+06 15.2122 1.00000
  1.778E+07 1.778E+07 2.780E+00 5.835E-02 1.436E+00 1.882E+00 3.376E+00 6.157E+00 4.486E+06 15.4424 1.00000
  1.995E+07 1.995E+07 2.794E+00 6.643E-02 1.624E+00 2.143E+00 3.833E+00 6.627E+00 4.826E+06 15.6727 1.00000
  2.239E+07 2.239E+07 2.808E+00 7.561E-02 1.835E+00 2.441E+00 4.352E+00 7.160E+00 5.180E+06 15.9029 1.00000
  2.512E+07 2.512E+07 2.821E+00 8.604E-02 2.073E+00 2.781E+00 4.940E+00 7.762E+00 5.547E+06 16.1331 1.00000
  2.818E+07 2.819E+07 2.835E+00 9.788E-02 2.341E+00 3.169E+00 5.608E+00 8.443E+00 5.925E+06 16.3634 1.00000
  3.162E+07 3.162E+07 2.848E+00 1.113E-01 2.643E+00 3.612E+00 6.365E+00 9.214E+00 6.316E+06 16.5936 1.00000
  3.548E+07 3.548E+07 2.862E+00 1.266E-01 2.981E+00 4.117E+00 7.225E+00 1.009E+01 6.716E+06 16.8239 1.00000
  3.981E+07 3.981E+07 2.875E+00 1.438E-01 3.363E+00 4.694E+00 8.200E+00 1.107E+01 7.126E+06 17.0541 1.00000
  4.467E+07 4.467E+07 2.888E+00 1.635E-01 3.791E+00 5.352E+00 9.306E+00 1.219E+01 7.545E+06 17.2844 1.00000
  5.012E+07 5.012E+07 2.902E+00 1.857E-01 4.273E+00 6.103E+00 1.056E+01 1.346E+01 7.971E+06 17.5146 1.00000
  5.623E+07 5.624E+07 2.915E+00 2.109E-01 4.814E+00 6.961E+00 1.199E+01 1.490E+01 8.403E+06 17.7449 1.00000
  6.310E+07 6.310E+07 2.928E+00 2.394E-01 5.422E+00 7.940E+00 1.360E+01 1.653E+01 8.841E+06 17.9751 1.00000
  7.079E+07 7.080E+07 2.942E+00 2.717E-01 6.106E+00 9.058E+00 1.544E+01 1.838E+01 9.283E+06 18.2054 1.00000
  7.943E+07 7.943E+07 2.955E+00 3.083E-01 6.873E+00 1.033E+01 1.752E+01 2.047E+01 9.729E+06 18.4356 1.00000
  8.913E+07 8.913E+07 2.968E+00 3.497E-01 7.736E+00 1.179E+01 1.988E+01 2.285E+01 1.018E+07 18.6659 1.00000
  1.000E+08 1.000E+08 2.982E+00 3.966E-01 8.705E+00 1.346E+01 2.256E+01 2.554E+01 1.063E+07 18.8961 1.00000
  1.122E+08 1.122E+08 2.995E+00 4.496E-01 9.792E+00 1.536E+01 2.560E+01 2.860E+01 1.108E+07 19.1264 1.00000
  1.259E+08 1.259E+08 3.009E+00 5.095E-01 1.101E+01 1.753E+01 2.905E+01 3.206E+01 1.153E+07 19.3566 1.00000
  1.413E+08 1.413E+08 3.022E+00 5.773E-01 1.239E+01 2.001E+01 3.297E+01 3.599E+01 1.199E+07 19.5869 1.00000
  1.585E+08 1.585E+08 3.036E+00 6.539E-01 1.393E+01 2.284E+01 3.742E+01 4.046E+01 1.244E+07 19.8172 1.00000
  1.778E+08 1.778E+08 3.049E+00 7.405E-01 1.565E+01 2.608E+01 4.247E+01 4.552E+01 1.289E+07 20.0474 1.00000
  1.995E+08 1.995E+08 3.063E+00 8.383E-01 1.760E+01 2.977E+01 4.821E+01 5.127E+01 1.334E+07 20.2777 1.00000
  2.239E+08 2.239E+08 3.076E+00 9.488E-01 1.977E+01 3.400E+01 5.472E+01 5.780E+01 1.379E+07 20.5079 1.00000
  2.512E+08 2.512E+08 3.090E+00 1.073E+00 2.222E+01 3.882E+01 6.212E+01 6.521E+01 1.423E+07 20.7382 1.00000
  2.818E+08 2.818E+08 3.104E+00 1.214E+00 2.497E+01 4.433E+01 7.051E+01 7.362E+01 1.468E+07 20.9684 1.00000
  3.162E+08 3.162E+08 3.118E+00 1.373E+00 2.805E+01 5.063E+01 8.005E+01 8.317E+01 1.512E+07 21.1987 1.00000
  3.548E+08 3.548E+08 3.132E+00 1.552E+00 3.150E+01 5.783E+01 9.089E+01 9.402E+01 1.556E+07 21.4290 1.00000
  3.981E+08 3.981E+08 3.146E+00 1.754E+00 3.539E+01 6.605E+01 1.032E+02 1.063E+02 1.599E+07 21.6592 1.00000
  4.467E+08 4.467E+08 3.160E+00 1.982E+00 3.974E+01 7.545E+01 1.172E+02 1.203E+02 1.642E+07 21.8895 1.00000
  5.012E+08 5.012E+08 3.174E+00 2.239E+00 4.463E+01 8.619E+01 1.331E+02 1.362E+02 1.685E+07 22.1197 1.00000
  5.623E+08 5.623E+08 3.188E+00 2.528E+00 5.012E+01 9.847E+01 1.511E+02 1.543E+02 1.727E+07 22.3500 1.00000
  6.310E+08 6.310E+08 3.202E+00 2.855E+00 5.627E+01 1.125E+02 1.716E+02 1.748E+02 1.769E+07 22.5802 1.00000
  7.079E+08 7.079E+08 3.217E+00 3.222E+00 6.318E+01 1.285E+02 1.949E+02 1.982E+02 1.810E+07 22.8105 1.00000
  7.943E+08 7.943E+08 3.231E+00 3.636E+00 7.094E+01 1.469E+02 2.214E+02 2.247E+02 1.851E+07 23.0408 1.00000
  8.913E+08 8.913E+08 3.245E+00 4.102E+00 7.964E+01 1.678E+02 2.516E+02 2.548E+02 1.892E+07 23.2710 1.00000
  1.000E+09 1.000E+09 3.260E+00 4.627E+00 8.940E+01 1.918E+02 2.858E+02 2.891E+02 1.932E+07 23.5013 1.00000
  1.122E+09 1.122E+09 3.275E+00 5.218E+00 1.004E+02 2.192E+02 3.248E+02 3.280E+02 1.972E+07 23.7315 1.00000
  1.259E+09 1.259E+09 3.289E+00 5.883E+00 1.126E+02 2.505E+02 3.690E+02 3.723E+02 2.011E+07 23.9618 1.00000
  1.413E+09 1.413E+09 3.304E+00 6.632E+00 1.264E+02 2.863E+02 4.194E+02 4.227E+02 2.050E+07 24.1920 1.00000
  1.585E+09 1.585E+09 3.319E+00 7.474E+00 1.419E+02 3.273E+02 4.767E+02 4.800E+02 2.088E+07 24.4223 1.00000
  1.778E+09 1.778E+09 3.334E+00 8.421E+00 1.593E+02 3.741E+02 5.418E+02 5.451E+02 2.126E+07 24.6526 1.00000
  1.995E+09 1.995E+09 3.349E+00 9.486E+00 1.788E+02 4.276E+02 6.159E+02 6.192E+02 2.163E+07 24.8828 1.00000
  2.239E+09 2.239E+09 3.364E+00 1.068E+01 2.006E+02 4.889E+02 7.002E+02 7.036E+02 2.200E+07 25.1131 1.00000
  2.512E+09 2.512E+09 3.379E+00 1.203E+01 2.252E+02 5.589E+02 7.961E+02 7.995E+02 2.237E+07 25.3433 1.00000
  2.818E+09 2.818E+09 3.395E+00 1.354E+01 2.527E+02 6.390E+02 9.053E+02 9.087E+02 2.273E+07 25.5736 1.00000
  3.162E+09 3.162E+09 3.410E+00 1.525E+01 2.836E+02 7.306E+02 1.029E+03 1.033E+03 2.308E+07 25.8039 1.00000
  3.548E+09 3.548E+09 3.425E+00 1.716E+01 3.183E+02 8.355E+02 1.171E+03 1.174E+03 2.343E+07 26.0341 1.00000
  3.981E+09 3.981E+09 3.441E+00 1.931E+01 3.571E+02 9.553E+02 1.332E+03 1.335E+03 2.378E+07 26.2644 1.00000
  4.467E+09 4.467E+09 3.456E+00 2.172E+01 4.008E+02 1.093E+03 1.515E+03 1.518E+03 2.412E+07 26.4946 1.00000
  5.012E+09 5.012E+09 3.472E+00 2.444E+01 4.497E+02 1.249E+03 1.724E+03 1.727E+03 2.446E+07 26.7249 1.00000
  5.623E+09 5.623E+09 3.488E+00 2.749E+01 5.047E+02 1.429E+03 1.961E+03 1.965E+03 2.479E+07 26.9551 1.00000
  6.310E+09 6.310E+09 3.504E+00 3.091E+01 5.663E+02 1.634E+03 2.232E+03 2.235E+03 2.512E+07 27.1854 1.00000
  7.079E+09 7.079E+09 3.520E+00 3.476E+01 6.355E+02 1.869E+03 2.540E+03 2.543E+03 2.544E+07 27.4157 1.00000
  7.943E+09 7.943E+09 3.536E+00 3.908E+01 7.131E+02 2.138E+03 2.890E+03 2.894E+03 2.576E+07 27.6459 1.00000
  8.913E+09 8.913E+09 3.552E+00 4.394E+01 8.001E+02 2.446E+03 3.290E+03 3.294E+03 2.608E+07 27.8762 1.00000
  1.000E+10 1.000E+10 3.568E+00 4.939E+01 8.978E+02 2.798E+03 3.746E+03 3.749E+03 2.639E+07 28.1064 1.00000
  1.122E+10 1.122E+10 3.585E+00 5.551E+01 1.007E+03 3.201E+03 4.264E+03 4.268E+03 2.669E+07 28.3367 1.00000
  1.259E+10 1.259E+10 3.601E+00 6.238E+01 1.130E+03 3.663E+03 4.856E+03 4.859E+03 2.700E+07 28.5670 1.00000
  1.413E+10 1.413E+10 3.618E+00 7.009E+01 1.268E+03 4.191E+03 5.529E+03 5.533E+03 2.729E+07 28.7972 1.00000
  1.585E+10 1.585E+10 3.634E+00 7.876E+01 1.423E+03 4.795E+03 6.297E+03 6.301E+03 2.758E+07 29.0275 1.00000
  1.778E+10 1.778E+10 3.651E+00 8.848E+01 1.597E+03 5.487E+03 7.172E+03 7.176E+03 2.787E+07 29.2577 1.00000
  1.995E+10 1.995E+10 3.668E+00 9.940E+01 1.792E+03 6.279E+03 8.170E+03 8.174E+03 2.816E+07 29.4880 1.00000
  2.239E+10 2.239E+10 3.685E+00 1.117E+02 2.010E+03 7.186E+03 9.308E+03 9.312E+03 2.844E+07 29.7183 1.00000
  2.512E+10 2.512E+10 3.702E+00 1.254E+02 2.256E+03 8.224E+03 1.061E+04 1.061E+04 2.871E+07 29.9485 1.00000
  2.818E+10 2.818E+10 3.719E+00 1.409E+02 2.531E+03 9.413E+03 1.208E+04 1.209E+04 2.898E+07 30.1788 1.00000
  3.162E+10 3.162E+10 3.736E+00 1.582E+02 2.840E+03 1.077E+04 1.377E+04 1.378E+04 2.925E+07 30.4090 1.00000
  3.548E+10 3.548E+10 3.753E+00 1.776E+02 3.187E+03 1.233E+04 1.570E+04 1.570E+04 2.951E+07 30.6393 1.00000
  3.981E+10 3.981E+10 3.770E+00 1.995E+02 3.575E+03 1.412E+04 1.789E+04 1.790E+04 2.977E+07 30.8695 1.00000
  4.467E+10 4.467E+10 3.788E+00 2.240E+02 4.012E+03 1.616E+04 2.040E+04 2.040E+04 3.003E+07 31.0998 1.00000
  5.012E+10 5.012E+10 3.806E+00 2.515E+02 4.501E+03 1.850E+04 2.325E+04 2.326E+04 3.028E+07 31.3301 1.00000
  5.623E+10 5.623E+10 3.823E+00 2.823E+02 5.050E+03 2.118E+04 2.651E+04 2.652E+04 3.052E+07 31.5603 1.00000
  6.310E+10 6.310E+10 3.841E+00 3.170E+02 5.666E+03 2.425E+04 3.023E+04 3.024E+04 3.077E+07 31.7906 1.00000
  7.079E+10 7.079E+10 3.859E+00 3.558E+02 6.358E+03 2.777E+04 3.448E+04 3.448E+04 3.101E+07 32.0208 1.00000
  7.943E+10 7.943E+10 3.877E+00 3.995E+02 7.133E+03 3.180E+04 3.933E+04 3.933E+04 3.124E+07 32.2511 1.00000
  8.913E+10 8.913E+10 3.895E+00 4.484E+02 8.004E+03 3.641E+04 4.486E+04 4.487E+04 3.147E+07 32.4814 1.00000
  1.000E+11 1.000E+11 3.913E+00 5.033E+02 8.980E+03 4.170E+04 5.118E+04 5.118E+04 3.170E+07 32.7116 1.00000
  1.122E+11 1.122E+11 3.931E+00 5.650E+02 1.008E+04 4.775E+04 5.839E+04 5.840E+04 3.192E+07 32.9419 1.00000
  1.259E+11 1.259E+11 3.950E+00 6.341E+02 1.130E+04 5.469E+04 6.663E+04 6.663E+04 3.214E+07 33.1721 1.00000
  1.413E+11 1.413E+11 3.968E+00 7.118E+02 1.268E+04 6.264E+04 7.604E+04 7.604E+04 3.236E+07 33.4024 1.00000
  1.585E+11 1.585E+11 3.987E+00 7.989E+02 1.423E+04 7.175E+04 8.678E+04 8.678E+04 3.257E+07 33.6326 1.00000
  1.778E+11 1.778E+11 4.005E+00 8.966E+02 1.597E+04 8.219E+04 9.905E+04 9.906E+04 3.278E+07 33.8629 1.00000
  1.995E+11 1.995E+11 4.024E+00 1.006E+03 1.792E+04 9.415E+04 1.131E+05 1.131E+05 3.299E+07 34.0932 1.00000
  2.239E+11 2.239E+11 4.043E+00 1.129E+03 2.010E+04 1.079E+05 1.291E+05 1.291E+05 3.319E+07 34.3234 1.00000
  2.512E+11 2.512E+11 4.062E+00 1.267E+03 2.255E+04 1.236E+05 1.474E+05 1.474E+05 3.339E+07 34.5537 1.00000
  2.818E+11 2.818E+11 4.081E+00 1.422E+03 2.530E+04 1.416E+05 1.683E+05 1.683E+05 3.358E+07 34.7839 1.00000
  3.162E+11 3.162E+11 4.101E+00 1.596E+03 2.839E+04 1.622E+05 1.922E+05 1.922E+05 3.377E+07 35.0142 1.00000
  3.548E+11 3.548E+11 4.120E+00 1.791E+03 3.185E+04 1.859E+05 2.195E+05 2.195E+05 3.396E+07 35.2445 1.00000
  3.981E+11 3.981E+11 4.139E+00 2.010E+03 3.574E+04 2.130E+05 2.507E+05 2.507E+05 3.415E+07 35.4747 1.00000
  4.467E+11 4.467E+11 4.159E+00 2.256E+03 4.010E+04 2.441E+05 2.864E+05 2.864E+05 3.433E+07 35.7050 1.00000
  5.012E+11 5.012E+11 4.179E+00 2.531E+03 4.499E+04 2.797E+05 3.272E+05 3.272E+05 3.451E+07 35.9352 1.00000
  5.623E+11 5.623E+11 4.198E+00 2.840E+03 5.048E+04 3.206E+05 3.739E+05 3.739E+05 3.468E+07 36.1655 1.00000
  6.310E+11 6.310E+11 4.218E+00 3.187E+03 5.664E+04 3.674E+05 4.273E+05 4.273E+05 3.485E+07 36.3957 1.00000
  7.079E+11 7.079E+11 4.238E+00 3.576E+03 6.354E+04 4.211E+05 4.883E+05 4.883E+05 3.502E+07 36.6260 1.00000
  7.943E+11 7.943E+11 4.258E+00 4.013E+03 7.130E+04 4.827E+05 5.580E+05 5.581E+05 3.519E+07 36.8563 1.00000
  8.913E+11 8.913E+11 4.279E+00 4.503E+03 7.999E+04 5.534E+05 6.379E+05 6.379E+05 3.535E+07 37.0865 1.00000
  1.000E+12 1.000E+12 4.299E+00 5.053E+03 8.975E+04 6.344E+05 7.292E+05 7.292E+05 3.551E+07 37.3168 1.00000
  1.122E+12 1.122E+12 4.319E+00 5.670E+03 1.007E+05 7.273E+05 8.336E+05 8.336E+05 3.567E+07 37.5470 1.00000
  1.259E+12 1.259E+12 4.340E+00 6.362E+03 1.130E+05 8.338E+05 9.531E+05 9.531E+05 3.582E+07 37.7773 1.00000
  1.413E+12 1.413E+12 4.361E+00 7.139E+03 1.268E+05 9.560E+05 1.090E+06 1.090E+06 3.597E+07 38.0076 1.00000
  1.585E+12 1.585E+12 4.381E+00 8.010E+03 1.422E+05 1.096E+06 1.246E+06 1.246E+06 3.612E+07 38.2378 1.00000
  1.778E+12 1.778E+12 4.402E+00 8.988E+03 1.596E+05 1.257E+06 1.425E+06 1.425E+06 3.627E+07 38.4681 1.00000
  1.995E+12 1.995E+12 4.423E+00 1.009E+04 1.790E+05 1.441E+06 1.630E+06 1.630E+06 3.641E+07 38.6983 1.00000
  2.239E+12 2.239E+12 4.444E+00 1.132E+04 2.009E+05 1.653E+06 1.865E+06 1.865E+06 3.655E+07 38.9286 1.00000
  2.512E+12 2.512E+12 4.466E+00 1.270E+04 2.254E+05 1.896E+06 2.134E+06 2.134E+06 3.669E+07 39.1588 1.00000
  2.818E+12 2.818E+12 4.487E+00 1.425E+04 2.529E+05 2.174E+06 2.441E+06 2.441E+06 3.682E+07 39.3891 1.00000
  3.162E+12 3.162E+12 4.508E+00 1.599E+04 2.837E+05 2.493E+06 2.793E+06 2.793E+06 3.695E+07 39.6194 1.00000
  3.548E+12 3.548E+12 4.530E+00 1.794E+04 3.183E+05 2.860E+06 3.196E+06 3.196E+06 3.708E+07 39.8496 1.00000
  3.981E+12 3.981E+12 4.552E+00 2.013E+04 3.571E+05 3.281E+06 3.658E+06 3.658E+06 3.721E+07 40.0799 1.00000
  4.467E+12 4.467E+12 4.574E+00 2.258E+04 4.007E+05 3.763E+06 4.186E+06 4.187E+06 3.733E+07 40.3101 1.00000
  5.012E+12 5.012E+12 4.596E+00 2.534E+04 4.496E+05 4.317E+06 4.792E+06 4.792E+06 3.746E+07 40.5404 1.00000
  5.623E+12 5.623E+12 4.618E+00 2.843E+04 5.044E+05 4.953E+06 5.486E+06 5.486E+06 3.758E+07 40.7707 1.00000
  6.310E+12 6.310E+12 4.640E+00 3.190E+04 5.659E+05 5.682E+06 6.280E+06 6.280E+06 3.769E+07 41.0009 1.00000
  7.079E+12 7.079E+12 4.662E+00 3.579E+04 6.349E+05 6.520E+06 7.190E+06 7.190E+06 3.781E+07 41.2312 1.00000
  7.943E+12 7.943E+12 4.685E+00 4.016E+04 7.124E+05 7.481E+06 8.233E+06 8.233E+06 3.792E+07 41.4614 1.00000
  8.913E+12 8.913E+12 4.707E+00 4.506E+04 7.992E+05 8.584E+06 9.428E+06 9.428E+06 3.803E+07 41.6917 1.00000
  1.000E+13 1.000E+13 4.730E+00 5.056E+04 8.967E+05 9.850E+06 1.080E+07 1.080E+07 3.814E+07 41.9220 1.00000
  1.122E+13 1.122E+13 4.753E+00 5.673E+04 1.006E+06 1.130E+07 1.237E+07 1.237E+07 3.824E+07 42.1522 1.00000
  1.259E+13 1.259E+13 4.776E+00 6.365E+04 1.129E+06 1.297E+07 1.416E+07 1.416E+07 3.835E+07 42.3825 1.00000
  1.413E+13 1.413E+13 4.799E+00 7.142E+04 1.266E+06 1.489E+07 1.623E+07 1.623E+07 3.845E+07 42.6127 1.00000
  1.585E+13 1.585E+13 4.822E+00 8.013E+04 1.421E+06 1.709E+07 1.859E+07 1.859E+07 3.855E+07 42.8430 1.00000
  1.778E+13 1.778E+13 4.845E+00 8.991E+04 1.594E+06 1.961E+07 2.130E+07 2.130E+07 3.865E+07 43.0732 1.00000
  1.995E+13 1.995E+13 4.869E+00 1.009E+05 1.789E+06 2.251E+07 2.440E+07 2.440E+07 3.874E+07 43.3035 1.00000
  2.239E+13 2.239E+13 4.892E+00 1.132E+05 2.007E+06 2.584E+07 2.796E+07 2.796E+07 3.884E+07 43.5338 1.00000
  2.512E+13 2.512E+13 4.916E+00 1.270E+05 2.252E+06 2.967E+07 3.204E+07 3.204E+07 3.893E+07 43.7640 1.00000
  2.818E+13 2.818E+13 4.940E+00 1.425E+05 2.526E+06 3.406E+07 3.673E+07 3.673E+07 3.902E+07 43.9943 1.00000
  3.162E+13 3.162E+13 4.964E+00 1.599E+05 2.834E+06 3.910E+07 4.209E+07 4.209E+07 3.910E+07 44.2245 1.00000
  3.548E+13 3.548E+13 4.988E+00 1.794E+05 3.180E+06 4.489E+07 4.825E+07 4.825E+07 3.919E+07 44.4548 1.00000
  3.981E+13 3.981E+13 5.012E+00 2.013E+05 3.568E+06 5.154E+07 5.531E+07 5.531E+07 3.927E+07 44.6851 1.00000
  4.467E+13 4.467E+13 5.036E+00 2.259E+05 4.003E+06 5.919E+07 6.341E+07 6.341E+07 3.936E+07 44.9153 1.00000
  5.012E+13 5.012E+13 5.061E+00 2.534E+05 4.491E+06 6.796E+07 7.271E+07 7.271E+07 3.944E+07 45.1456 1.00000
  5.623E+13 5.623E+13 5.085E+00 2.843E+05 5.039E+06 7.804E+07 8.337E+07 8.337E+07 3.952E+07 45.3758 1.00000
  6.310E+13 6.310E+13 5.110E+00 3.190E+05 5.653E+06 8.962E+07 9.560E+07 9.560E+07 3.959E+07 45.6061 1.00000
  7.079E+13 7.079E+13 5.135E+00 3.580E+05 6.343E+06 1.029E+08 1.096E+08 1.096E+08 3.967E+07 45.8363 1.00000
  7.943E+13 7.943E+13 5.160E+00 4.016E+05 7.116E+06 1.182E+08 1.257E+08 1.257E+08 3.974E+07 46.0666 1.00000
  8.913E+13 8.913E+13 5.185E+00 4.506E+05 7.984E+06 1.358E+08 1.442E+08 1.442E+08 3.981E+07 46.2969 1.00000
