 Incident particle is a Tau with M = 1776.82000 MeV
 Index = 0: Beryllium
      Absorber with <Z/A> = 0.44384
 Sternheimer coef:  a     k=m_s   x_0    x_1    I[eV]   Cbar  delta0
                 0.8039  2.4339  0.0592  1.6922   63.7  2.7847 0.14

 *** Table generated with PUMAS v1.00 ***

      T         p     Ionization  brems     pair     photonuc  Radloss    dE/dx   CSDA Range  delta   beta
    [MeV]    [MeV/c]  -----------------------[MeV cm^2/g]------------------------  [g/cm^2]
  1.000E+05 1.018E+05 1.935E+00 7.281E-05 1.137E-03 8.450E-03 9.660E-03 1.944E+00 2.572E+04  5.3109 0.99985
  1.122E+05 1.140E+05 1.950E+00 8.407E-05 1.380E-03 9.551E-03 1.101E-02 1.961E+00 3.197E+04  5.5374 0.99988
  1.259E+05 1.277E+05 1.966E+00 9.702E-05 1.667E-03 1.074E-02 1.250E-02 1.979E+00 3.891E+04  5.7643 0.99990
  1.413E+05 1.430E+05 1.982E+00 1.119E-04 2.005E-03 1.207E-02 1.419E-02 1.997E+00 4.664E+04  5.9916 0.99992
  1.585E+05 1.603E+05 1.998E+00 1.291E-04 2.404E-03 1.357E-02 1.611E-02 2.015E+00 5.524E+04  6.2192 0.99994
  1.778E+05 1.796E+05 2.015E+00 1.488E-04 2.873E-03 1.525E-02 1.827E-02 2.033E+00 6.479E+04  6.4471 0.99995
  1.995E+05 2.013E+05 2.031E+00 1.714E-04 3.424E-03 1.716E-02 2.075E-02 2.051E+00 7.542E+04  6.6752 0.99996
  2.239E+05 2.256E+05 2.047E+00 1.974E-04 4.068E-03 1.925E-02 2.351E-02 2.070E+00 8.723E+04  6.9035 0.99997
  2.512E+05 2.530E+05 2.063E+00 2.273E-04 4.821E-03 2.159E-02 2.664E-02 2.090E+00 1.004E+05  7.1321 0.99998
  2.818E+05 2.836E+05 2.079E+00 2.615E-04 5.699E-03 2.424E-02 3.020E-02 2.109E+00 1.150E+05  7.3608 0.99998
  3.162E+05 3.180E+05 2.095E+00 3.009E-04 6.721E-03 2.723E-02 3.425E-02 2.129E+00 1.312E+05  7.5897 0.99998
  3.548E+05 3.566E+05 2.111E+00 3.460E-04 7.909E-03 3.058E-02 3.884E-02 2.150E+00 1.492E+05  7.8188 0.99999
  3.981E+05 3.999E+05 2.127E+00 3.977E-04 9.288E-03 3.434E-02 4.402E-02 2.171E+00 1.693E+05  8.0480 0.99999
  4.467E+05 4.485E+05 2.144E+00 4.571E-04 1.089E-02 3.855E-02 4.989E-02 2.193E+00 1.915E+05  8.2773 0.99999
  5.012E+05 5.030E+05 2.160E+00 5.251E-04 1.273E-02 4.329E-02 5.655E-02 2.216E+00 2.162E+05  8.5067 0.99999
  5.623E+05 5.641E+05 2.176E+00 6.031E-04 1.487E-02 4.843E-02 6.390E-02 2.240E+00 2.437E+05  8.7362 1.00000
  6.310E+05 6.327E+05 2.192E+00 6.924E-04 1.734E-02 5.423E-02 7.226E-02 2.264E+00 2.742E+05  8.9657 1.00000
  7.079E+05 7.097E+05 2.208E+00 7.948E-04 2.018E-02 6.077E-02 8.175E-02 2.289E+00 3.080E+05  9.1954 1.00000
  7.943E+05 7.961E+05 2.223E+00 9.120E-04 2.346E-02 6.817E-02 9.254E-02 2.316E+00 3.455E+05  9.4251 1.00000
  8.913E+05 8.930E+05 2.239E+00 1.046E-03 2.722E-02 7.653E-02 1.048E-01 2.344E+00 3.871E+05  9.6549 1.00000
  1.000E+06 1.002E+06 2.255E+00 1.200E-03 3.155E-02 8.600E-02 1.187E-01 2.374E+00 4.332E+05  9.8847 1.00000
  1.122E+06 1.124E+06 2.271E+00 1.376E-03 3.651E-02 9.671E-02 1.346E-01 2.405E+00 4.843E+05 10.1146 1.00000
  1.259E+06 1.261E+06 2.286E+00 1.577E-03 4.220E-02 1.089E-01 1.526E-01 2.439E+00 5.408E+05 10.3445 1.00000
  1.413E+06 1.414E+06 2.302E+00 1.808E-03 4.872E-02 1.226E-01 1.731E-01 2.475E+00 6.033E+05 10.5744 1.00000
  1.585E+06 1.587E+06 2.317E+00 2.072E-03 5.617E-02 1.382E-01 1.965E-01 2.514E+00 6.724E+05 10.8044 1.00000
  1.778E+06 1.780E+06 2.332E+00 2.374E-03 6.468E-02 1.559E-01 2.230E-01 2.555E+00 7.487E+05 11.0344 1.00000
  1.995E+06 1.997E+06 2.348E+00 2.719E-03 7.440E-02 1.760E-01 2.532E-01 2.601E+00 8.329E+05 11.2645 1.00000
  2.239E+06 2.240E+06 2.363E+00 3.114E-03 8.549E-02 1.989E-01 2.875E-01 2.650E+00 9.256E+05 11.4946 1.00000
  2.512E+06 2.514E+06 2.378E+00 3.565E-03 9.812E-02 2.249E-01 3.265E-01 2.704E+00 1.028E+06 11.7246 1.00000
  2.818E+06 2.820E+06 2.392E+00 4.081E-03 1.125E-01 2.544E-01 3.709E-01 2.763E+00 1.140E+06 11.9547 1.00000
  3.162E+06 3.164E+06 2.407E+00 4.670E-03 1.289E-01 2.879E-01 4.215E-01 2.829E+00 1.263E+06 12.1849 1.00000
  3.548E+06 3.550E+06 2.422E+00 5.344E-03 1.475E-01 3.261E-01 4.789E-01 2.900E+00 1.398E+06 12.4150 1.00000
  3.981E+06 3.983E+06 2.436E+00 6.114E-03 1.686E-01 3.695E-01 5.442E-01 2.980E+00 1.545E+06 12.6452 1.00000
  4.467E+06 4.469E+06 2.450E+00 6.993E-03 1.926E-01 4.190E-01 6.185E-01 3.069E+00 1.705E+06 12.8753 1.00000
  5.012E+06 5.014E+06 2.464E+00 7.996E-03 2.198E-01 4.753E-01 7.030E-01 3.167E+00 1.880E+06 13.1055 1.00000
  5.623E+06 5.625E+06 2.478E+00 9.141E-03 2.506E-01 5.394E-01 7.991E-01 3.277E+00 2.070E+06 13.3357 1.00000
  6.310E+06 6.311E+06 2.492E+00 1.045E-02 2.855E-01 6.124E-01 9.083E-01 3.400E+00 2.276E+06 13.5659 1.00000
  7.079E+06 7.081E+06 2.506E+00 1.194E-02 3.250E-01 6.956E-01 1.033E+00 3.538E+00 2.498E+06 13.7961 1.00000
  7.943E+06 7.945E+06 2.519E+00 1.364E-02 3.697E-01 7.903E-01 1.174E+00 3.693E+00 2.737E+06 14.0263 1.00000
  8.913E+06 8.914E+06 2.533E+00 1.558E-02 4.203E-01 8.984E-01 1.334E+00 3.867E+00 2.993E+06 14.2565 1.00000
  1.000E+07 1.000E+07 2.546E+00 1.779E-02 4.774E-01 1.021E+00 1.517E+00 4.063E+00 3.268E+06 14.4867 1.00000
  1.122E+07 1.122E+07 2.559E+00 2.031E-02 5.419E-01 1.162E+00 1.724E+00 4.283E+00 3.560E+06 14.7169 1.00000
  1.259E+07 1.259E+07 2.572E+00 2.318E-02 6.147E-01 1.322E+00 1.960E+00 4.532E+00 3.871E+06 14.9471 1.00000
  1.413E+07 1.413E+07 2.585E+00 2.645E-02 6.970E-01 1.504E+00 2.228E+00 4.813E+00 4.200E+06 15.1774 1.00000
  1.585E+07 1.585E+07 2.598E+00 3.017E-02 7.897E-01 1.713E+00 2.532E+00 5.130E+00 4.547E+06 15.4076 1.00000
  1.778E+07 1.778E+07 2.611E+00 3.440E-02 8.943E-01 1.950E+00 2.879E+00 5.489E+00 4.912E+06 15.6378 1.00000
  1.995E+07 1.995E+07 2.623E+00 3.922E-02 1.012E+00 2.221E+00 3.272E+00 5.895E+00 5.294E+06 15.8681 1.00000
  2.239E+07 2.239E+07 2.636E+00 4.470E-02 1.145E+00 2.530E+00 3.719E+00 6.355E+00 5.692E+06 16.0983 1.00000
  2.512E+07 2.512E+07 2.648E+00 5.093E-02 1.295E+00 2.882E+00 4.228E+00 6.876E+00 6.105E+06 16.3285 1.00000
  2.818E+07 2.819E+07 2.661E+00 5.802E-02 1.463E+00 3.285E+00 4.806E+00 7.466E+00 6.533E+06 16.5588 1.00000
  3.162E+07 3.162E+07 2.673E+00 6.607E-02 1.653E+00 3.744E+00 5.462E+00 8.136E+00 6.975E+06 16.7890 1.00000
  3.548E+07 3.548E+07 2.686E+00 7.522E-02 1.866E+00 4.267E+00 6.209E+00 8.894E+00 7.429E+06 17.0193 1.00000
  3.981E+07 3.981E+07 2.698E+00 8.561E-02 2.106E+00 4.865E+00 7.057E+00 9.755E+00 7.894E+06 17.2495 1.00000
  4.467E+07 4.467E+07 2.710E+00 9.740E-02 2.376E+00 5.548E+00 8.022E+00 1.073E+01 8.370E+06 17.4798 1.00000
  5.012E+07 5.012E+07 2.723E+00 1.108E-01 2.680E+00 6.327E+00 9.118E+00 1.184E+01 8.854E+06 17.7100 1.00000
  5.623E+07 5.624E+07 2.735E+00 1.260E-01 3.021E+00 7.216E+00 1.036E+01 1.310E+01 9.345E+06 17.9403 1.00000
  6.310E+07 6.310E+07 2.747E+00 1.432E-01 3.405E+00 8.232E+00 1.178E+01 1.453E+01 9.843E+06 18.1705 1.00000
  7.079E+07 7.080E+07 2.760E+00 1.627E-01 3.837E+00 9.391E+00 1.339E+01 1.615E+01 1.035E+07 18.4008 1.00000
  7.943E+07 7.943E+07 2.772E+00 1.849E-01 4.321E+00 1.072E+01 1.522E+01 1.799E+01 1.085E+07 18.6310 1.00000
  8.913E+07 8.913E+07 2.784E+00 2.100E-01 4.866E+00 1.223E+01 1.730E+01 2.009E+01 1.136E+07 18.8613 1.00000
  1.000E+08 1.000E+08 2.797E+00 2.384E-01 5.478E+00 1.395E+01 1.967E+01 2.247E+01 1.188E+07 19.0915 1.00000
  1.122E+08 1.122E+08 2.809E+00 2.706E-01 6.166E+00 1.592E+01 2.236E+01 2.517E+01 1.239E+07 19.3218 1.00000
  1.259E+08 1.259E+08 2.822E+00 3.071E-01 6.938E+00 1.818E+01 2.542E+01 2.824E+01 1.291E+07 19.5520 1.00000
  1.413E+08 1.413E+08 2.834E+00 3.483E-01 7.805E+00 2.075E+01 2.890E+01 3.173E+01 1.342E+07 19.7823 1.00000
  1.585E+08 1.585E+08 2.847E+00 3.950E-01 8.778E+00 2.369E+01 3.286E+01 3.570E+01 1.393E+07 20.0126 1.00000
  1.778E+08 1.778E+08 2.859E+00 4.479E-01 9.871E+00 2.704E+01 3.736E+01 4.022E+01 1.444E+07 20.2428 1.00000
  1.995E+08 1.995E+08 2.872E+00 5.076E-01 1.110E+01 3.087E+01 4.248E+01 4.535E+01 1.495E+07 20.4731 1.00000
  2.239E+08 2.239E+08 2.885E+00 5.752E-01 1.248E+01 3.525E+01 4.830E+01 5.119E+01 1.546E+07 20.7033 1.00000
  2.512E+08 2.512E+08 2.897E+00 6.515E-01 1.402E+01 4.026E+01 5.493E+01 5.783E+01 1.596E+07 20.9336 1.00000
  2.818E+08 2.818E+08 2.910E+00 7.378E-01 1.576E+01 4.597E+01 6.247E+01 6.538E+01 1.646E+07 21.1638 1.00000
  3.162E+08 3.162E+08 2.923E+00 8.352E-01 1.771E+01 5.250E+01 7.105E+01 7.397E+01 1.696E+07 21.3941 1.00000
  3.548E+08 3.548E+08 2.936E+00 9.453E-01 1.990E+01 5.997E+01 8.081E+01 8.374E+01 1.745E+07 21.6244 1.00000
  3.981E+08 3.981E+08 2.949E+00 1.069E+00 2.235E+01 6.850E+01 9.192E+01 9.487E+01 1.793E+07 21.8546 1.00000
  4.467E+08 4.467E+08 2.962E+00 1.210E+00 2.511E+01 7.824E+01 1.046E+02 1.075E+02 1.842E+07 22.0849 1.00000
  5.012E+08 5.012E+08 2.975E+00 1.368E+00 2.820E+01 8.938E+01 1.189E+02 1.219E+02 1.889E+07 22.3151 1.00000
  5.623E+08 5.623E+08 2.988E+00 1.546E+00 3.167E+01 1.021E+02 1.353E+02 1.383E+02 1.937E+07 22.5454 1.00000
  6.310E+08 6.310E+08 3.001E+00 1.748E+00 3.557E+01 1.167E+02 1.540E+02 1.570E+02 1.983E+07 22.7756 1.00000
  7.079E+08 7.079E+08 3.014E+00 1.975E+00 3.994E+01 1.333E+02 1.752E+02 1.782E+02 2.029E+07 23.0059 1.00000
  7.943E+08 7.943E+08 3.028E+00 2.231E+00 4.484E+01 1.523E+02 1.994E+02 2.024E+02 2.075E+07 23.2362 1.00000
  8.913E+08 8.913E+08 3.041E+00 2.519E+00 5.035E+01 1.740E+02 2.269E+02 2.300E+02 2.120E+07 23.4664 1.00000
  1.000E+09 1.000E+09 3.054E+00 2.844E+00 5.653E+01 1.989E+02 2.583E+02 2.613E+02 2.164E+07 23.6967 1.00000
  1.122E+09 1.122E+09 3.068E+00 3.210E+00 6.346E+01 2.273E+02 2.940E+02 2.970E+02 2.208E+07 23.9269 1.00000
  1.259E+09 1.259E+09 3.082E+00 3.623E+00 7.124E+01 2.598E+02 3.346E+02 3.377E+02 2.252E+07 24.1572 1.00000
  1.413E+09 1.413E+09 3.095E+00 4.087E+00 7.997E+01 2.969E+02 3.810E+02 3.841E+02 2.294E+07 24.3874 1.00000
  1.585E+09 1.585E+09 3.109E+00 4.610E+00 8.976E+01 3.394E+02 4.337E+02 4.369E+02 2.336E+07 24.6177 1.00000
  1.778E+09 1.778E+09 3.123E+00 5.199E+00 1.008E+02 3.879E+02 4.939E+02 4.970E+02 2.378E+07 24.8480 1.00000
  1.995E+09 1.995E+09 3.137E+00 5.861E+00 1.131E+02 4.435E+02 5.624E+02 5.655E+02 2.419E+07 25.0782 1.00000
  2.239E+09 2.239E+09 3.151E+00 6.606E+00 1.269E+02 5.070E+02 6.405E+02 6.436E+02 2.460E+07 25.3085 1.00000
  2.512E+09 2.512E+09 3.165E+00 7.445E+00 1.424E+02 5.796E+02 7.295E+02 7.327E+02 2.499E+07 25.5387 1.00000
  2.818E+09 2.818E+09 3.179E+00 8.388E+00 1.599E+02 6.627E+02 8.309E+02 8.341E+02 2.539E+07 25.7690 1.00000
  3.162E+09 3.162E+09 3.193E+00 9.449E+00 1.794E+02 7.577E+02 9.465E+02 9.497E+02 2.577E+07 25.9993 1.00000
  3.548E+09 3.548E+09 3.207E+00 1.064E+01 2.014E+02 8.664E+02 1.078E+03 1.082E+03 2.616E+07 26.2295 1.00000
  3.981E+09 3.981E+09 3.222E+00 1.198E+01 2.260E+02 9.907E+02 1.229E+03 1.232E+03 2.653E+07 26.4598 1.00000
  4.467E+09 4.467E+09 3.236E+00 1.349E+01 2.536E+02 1.133E+03 1.400E+03 1.403E+03 2.690E+07 26.6900 1.00000
  5.012E+09 5.012E+09 3.251E+00 1.519E+01 2.846E+02 1.296E+03 1.595E+03 1.599E+03 2.727E+07 26.9203 1.00000
  5.623E+09 5.623E+09 3.265E+00 1.709E+01 3.193E+02 1.482E+03 1.818E+03 1.822E+03 2.763E+07 27.1505 1.00000
  6.310E+09 6.310E+09 3.280E+00 1.923E+01 3.583E+02 1.695E+03 2.072E+03 2.076E+03 2.798E+07 27.3808 1.00000
  7.079E+09 7.079E+09 3.295E+00 2.164E+01 4.021E+02 1.939E+03 2.362E+03 2.366E+03 2.833E+07 27.6111 1.00000
  7.943E+09 7.943E+09 3.310E+00 2.434E+01 4.512E+02 2.217E+03 2.693E+03 2.696E+03 2.867E+07 27.8413 1.00000
  8.913E+09 8.913E+09 3.325E+00 2.738E+01 5.063E+02 2.537E+03 3.070E+03 3.074E+03 2.901E+07 28.0716 1.00000
  1.000E+10 1.000E+10 3.340E+00 3.079E+01 5.681E+02 2.902E+03 3.501E+03 3.504E+03 2.934E+07 28.3018 1.00000
  1.122E+10 1.122E+10 3.355E+00 3.462E+01 6.375E+02 3.320E+03 3.992E+03 3.995E+03 2.967E+07 28.5321 1.00000
  1.259E+10 1.259E+10 3.370E+00 3.893E+01 7.153E+02 3.798E+03 4.553E+03 4.556E+03 2.999E+07 28.7624 1.00000
  1.413E+10 1.413E+10 3.385E+00 4.376E+01 8.027E+02 4.346E+03 5.192E+03 5.196E+03 3.030E+07 28.9926 1.00000
  1.585E+10 1.585E+10 3.400E+00 4.919E+01 9.006E+02 4.973E+03 5.922E+03 5.926E+03 3.062E+07 29.2229 1.00000
  1.778E+10 1.778E+10 3.416E+00 5.528E+01 1.011E+03 5.690E+03 6.756E+03 6.759E+03 3.092E+07 29.4531 1.00000
  1.995E+10 1.995E+10 3.431E+00 6.213E+01 1.134E+03 6.512E+03 7.708E+03 7.711E+03 3.122E+07 29.6834 1.00000
  2.239E+10 2.239E+10 3.447E+00 6.981E+01 1.272E+03 7.452E+03 8.794E+03 8.797E+03 3.152E+07 29.9137 1.00000
  2.512E+10 2.512E+10 3.463E+00 7.844E+01 1.428E+03 8.528E+03 1.003E+04 1.004E+04 3.181E+07 30.1439 1.00000
  2.818E+10 2.818E+10 3.479E+00 8.812E+01 1.602E+03 9.761E+03 1.145E+04 1.145E+04 3.210E+07 30.3742 1.00000
  3.162E+10 3.162E+10 3.495E+00 9.900E+01 1.797E+03 1.117E+04 1.307E+04 1.307E+04 3.238E+07 30.6044 1.00000
  3.548E+10 3.548E+10 3.511E+00 1.112E+02 2.017E+03 1.279E+04 1.492E+04 1.492E+04 3.266E+07 30.8347 1.00000
  3.981E+10 3.981E+10 3.527E+00 1.249E+02 2.263E+03 1.464E+04 1.703E+04 1.703E+04 3.293E+07 31.0649 1.00000
  4.467E+10 4.467E+10 3.543E+00 1.403E+02 2.539E+03 1.676E+04 1.944E+04 1.944E+04 3.320E+07 31.2952 1.00000
  5.012E+10 5.012E+10 3.559E+00 1.575E+02 2.849E+03 1.919E+04 2.219E+04 2.219E+04 3.346E+07 31.5255 1.00000
  5.623E+10 5.623E+10 3.575E+00 1.769E+02 3.196E+03 2.196E+04 2.534E+04 2.534E+04 3.372E+07 31.7557 1.00000
  6.310E+10 6.310E+10 3.592E+00 1.986E+02 3.586E+03 2.515E+04 2.893E+04 2.894E+04 3.397E+07 31.9860 1.00000
  7.079E+10 7.079E+10 3.608E+00 2.230E+02 4.024E+03 2.879E+04 3.304E+04 3.305E+04 3.422E+07 32.2162 1.00000
  7.943E+10 7.943E+10 3.625E+00 2.504E+02 4.514E+03 3.297E+04 3.774E+04 3.774E+04 3.447E+07 32.4465 1.00000
  8.913E+10 8.913E+10 3.642E+00 2.812E+02 5.065E+03 3.776E+04 4.310E+04 4.311E+04 3.471E+07 32.6768 1.00000
  1.000E+11 1.000E+11 3.659E+00 3.157E+02 5.683E+03 4.324E+04 4.924E+04 4.924E+04 3.494E+07 32.9070 1.00000
  1.122E+11 1.122E+11 3.675E+00 3.544E+02 6.377E+03 4.952E+04 5.625E+04 5.625E+04 3.518E+07 33.1373 1.00000
  1.259E+11 1.259E+11 3.692E+00 3.978E+02 7.154E+03 5.671E+04 6.427E+04 6.427E+04 3.540E+07 33.3675 1.00000
  1.413E+11 1.413E+11 3.710E+00 4.465E+02 8.027E+03 6.496E+04 7.343E+04 7.344E+04 3.563E+07 33.5978 1.00000
  1.585E+11 1.585E+11 3.727E+00 5.012E+02 9.007E+03 7.441E+04 8.391E+04 8.392E+04 3.585E+07 33.8280 1.00000
  1.778E+11 1.778E+11 3.744E+00 5.626E+02 1.011E+04 8.523E+04 9.590E+04 9.590E+04 3.606E+07 34.0583 1.00000
  1.995E+11 1.995E+11 3.761E+00 6.315E+02 1.134E+04 9.763E+04 1.096E+05 1.096E+05 3.628E+07 34.2886 1.00000
  2.239E+11 2.239E+11 3.779E+00 7.088E+02 1.272E+04 1.119E+05 1.253E+05 1.253E+05 3.648E+07 34.5188 1.00000
  2.512E+11 2.512E+11 3.797E+00 7.955E+02 1.427E+04 1.281E+05 1.432E+05 1.432E+05 3.669E+07 34.7491 1.00000
  2.818E+11 2.818E+11 3.814E+00 8.928E+02 1.601E+04 1.468E+05 1.637E+05 1.637E+05 3.689E+07 34.9793 1.00000
  3.162E+11 3.162E+11 3.832E+00 1.002E+03 1.797E+04 1.682E+05 1.872E+05 1.872E+05 3.709E+07 35.2096 1.00000
  3.548E+11 3.548E+11 3.850E+00 1.124E+03 2.016E+04 1.928E+05 2.140E+05 2.140E+05 3.728E+07 35.4399 1.00000
  3.981E+11 3.981E+11 3.868E+00 1.262E+03 2.262E+04 2.209E+05 2.448E+05 2.448E+05 3.747E+07 35.6701 1.00000
  4.467E+11 4.467E+11 3.886E+00 1.416E+03 2.538E+04 2.531E+05 2.799E+05 2.799E+05 3.765E+07 35.9004 1.00000
  5.012E+11 5.012E+11 3.904E+00 1.589E+03 2.847E+04 2.901E+05 3.201E+05 3.201E+05 3.784E+07 36.1306 1.00000
  5.623E+11 5.623E+11 3.922E+00 1.783E+03 3.195E+04 3.324E+05 3.662E+05 3.662E+05 3.802E+07 36.3609 1.00000
  6.310E+11 6.310E+11 3.941E+00 2.001E+03 3.584E+04 3.810E+05 4.189E+05 4.189E+05 3.819E+07 36.5911 1.00000
  7.079E+11 7.079E+11 3.959E+00 2.246E+03 4.022E+04 4.367E+05 4.792E+05 4.792E+05 3.836E+07 36.8214 1.00000
  7.943E+11 7.943E+11 3.978E+00 2.520E+03 4.512E+04 5.006E+05 5.482E+05 5.482E+05 3.853E+07 37.0517 1.00000
  8.913E+11 8.913E+11 3.997E+00 2.828E+03 5.063E+04 5.738E+05 6.273E+05 6.273E+05 3.870E+07 37.2819 1.00000
  1.000E+12 1.000E+12 4.015E+00 3.173E+03 5.680E+04 6.578E+05 7.178E+05 7.178E+05 3.886E+07 37.5122 1.00000
  1.122E+12 1.122E+12 4.034E+00 3.561E+03 6.373E+04 7.542E+05 8.215E+05 8.215E+05 3.902E+07 37.7424 1.00000
  1.259E+12 1.259E+12 4.053E+00 3.996E+03 7.150E+04 8.646E+05 9.401E+05 9.401E+05 3.918E+07 37.9727 1.00000
  1.413E+12 1.413E+12 4.072E+00 4.484E+03 8.022E+04 9.913E+05 1.076E+06 1.076E+06 3.933E+07 38.2030 1.00000
  1.585E+12 1.585E+12 4.092E+00 5.031E+03 9.001E+04 1.137E+06 1.232E+06 1.232E+06 3.948E+07 38.4332 1.00000
  1.778E+12 1.778E+12 4.111E+00 5.645E+03 1.010E+05 1.303E+06 1.410E+06 1.410E+06 3.963E+07 38.6635 1.00000
  1.995E+12 1.995E+12 4.130E+00 6.335E+03 1.133E+05 1.495E+06 1.614E+06 1.614E+06 3.977E+07 38.8937 1.00000
  2.239E+12 2.239E+12 4.150E+00 7.108E+03 1.271E+05 1.714E+06 1.848E+06 1.848E+06 3.991E+07 39.1240 1.00000
  2.512E+12 2.512E+12 4.170E+00 7.976E+03 1.426E+05 1.966E+06 2.116E+06 2.116E+06 4.005E+07 39.3542 1.00000
  2.818E+12 2.818E+12 4.189E+00 8.949E+03 1.600E+05 2.254E+06 2.423E+06 2.423E+06 4.019E+07 39.5845 1.00000
  3.162E+12 3.162E+12 4.209E+00 1.004E+04 1.795E+05 2.586E+06 2.775E+06 2.775E+06 4.032E+07 39.8148 1.00000
  3.548E+12 3.548E+12 4.229E+00 1.127E+04 2.014E+05 2.966E+06 3.179E+06 3.179E+06 4.045E+07 40.0450 1.00000
  3.981E+12 3.981E+12 4.249E+00 1.264E+04 2.260E+05 3.402E+06 3.641E+06 3.641E+06 4.058E+07 40.2753 1.00000
  4.467E+12 4.467E+12 4.270E+00 1.419E+04 2.536E+05 3.902E+06 4.170E+06 4.170E+06 4.070E+07 40.5055 1.00000
  5.012E+12 5.012E+12 4.290E+00 1.592E+04 2.845E+05 4.477E+06 4.777E+06 4.777E+06 4.082E+07 40.7358 1.00000
  5.623E+12 5.623E+12 4.310E+00 1.786E+04 3.192E+05 5.136E+06 5.473E+06 5.473E+06 4.094E+07 40.9661 1.00000
  6.310E+12 6.310E+12 4.331E+00 2.004E+04 3.581E+05 5.892E+06 6.271E+06 6.271E+06 4.106E+07 41.1963 1.00000
  7.079E+12 7.079E+12 4.352E+00 2.248E+04 4.018E+05 6.761E+06 7.185E+06 7.185E+06 4.118E+07 41.4266 1.00000
  7.943E+12 7.943E+12 4.372E+00 2.523E+04 4.508E+05 7.757E+06 8.233E+06 8.233E+06 4.129E+07 41.6568 1.00000
  8.913E+12 8.913E+12 4.393E+00 2.831E+04 5.058E+05 8.901E+06 9.435E+06 9.435E+06 4.140E+07 41.8871 1.00000
  1.000E+13 1.000E+13 4.414E+00 3.176E+04 5.675E+05 1.021E+07 1.081E+07 1.081E+07 4.151E+07 42.1174 1.00000
  1.122E+13 1.122E+13 4.435E+00 3.564E+04 6.367E+05 1.172E+07 1.239E+07 1.239E+07 4.161E+07 42.3476 1.00000
  1.259E+13 1.259E+13 4.456E+00 3.999E+04 7.144E+05 1.345E+07 1.421E+07 1.421E+07 4.172E+07 42.5779 1.00000
  1.413E+13 1.413E+13 4.478E+00 4.487E+04 8.015E+05 1.544E+07 1.629E+07 1.629E+07 4.182E+07 42.8081 1.00000
  1.585E+13 1.585E+13 4.499E+00 5.034E+04 8.993E+05 1.772E+07 1.867E+07 1.867E+07 4.192E+07 43.0384 1.00000
  1.778E+13 1.778E+13 4.521E+00 5.648E+04 1.009E+06 2.034E+07 2.140E+07 2.140E+07 4.201E+07 43.2686 1.00000
  1.995E+13 1.995E+13 4.543E+00 6.337E+04 1.132E+06 2.335E+07 2.454E+07 2.454E+07 4.211E+07 43.4989 1.00000
  2.239E+13 2.239E+13 4.564E+00 7.111E+04 1.270E+06 2.680E+07 2.814E+07 2.814E+07 4.220E+07 43.7292 1.00000
  2.512E+13 2.512E+13 4.586E+00 7.979E+04 1.425E+06 3.076E+07 3.227E+07 3.227E+07 4.229E+07 43.9594 1.00000
  2.818E+13 2.818E+13 4.608E+00 8.952E+04 1.599E+06 3.532E+07 3.701E+07 3.701E+07 4.238E+07 44.1897 1.00000
  3.162E+13 3.162E+13 4.630E+00 1.004E+05 1.794E+06 4.055E+07 4.244E+07 4.244E+07 4.247E+07 44.4199 1.00000
  3.548E+13 3.548E+13 4.653E+00 1.127E+05 2.012E+06 4.655E+07 4.868E+07 4.868E+07 4.255E+07 44.6502 1.00000
  3.981E+13 3.981E+13 4.675E+00 1.265E+05 2.258E+06 5.345E+07 5.584E+07 5.584E+07 4.264E+07 44.8805 1.00000
  4.467E+13 4.467E+13 4.698E+00 1.419E+05 2.533E+06 6.138E+07 6.405E+07 6.405E+07 4.272E+07 45.1107 1.00000
  5.012E+13 5.012E+13 4.720E+00 1.592E+05 2.842E+06 7.048E+07 7.348E+07 7.348E+07 4.280E+07 45.3410 1.00000
  5.623E+13 5.623E+13 4.743E+00 1.786E+05 3.189E+06 8.093E+07 8.430E+07 8.430E+07 4.287E+07 45.5712 1.00000
  6.310E+13 6.310E+13 4.766E+00 2.004E+05 3.578E+06 9.294E+07 9.672E+07 9.672E+07 4.295E+07 45.8015 1.00000
  7.079E+13 7.079E+13 4.789E+00 2.249E+05 4.014E+06 1.067E+08 1.110E+08 1.110E+08 4.303E+07 46.0317 1.00000
  7.943E+13 7.943E+13 4.812E+00 2.523E+05 4.504E+06 1.226E+08 1.273E+08 1.273E+08 4.310E+07 46.2620 1.00000
  8.913E+13 8.913E+13 4.835E+00 2.831E+05 5.053E+06 1.408E+08 1.461E+08 1.461E+08 4.317E+07 46.4923 1.00000
