 Incident particle is a Tau with M = 1776.82000 MeV
 Index = 0: Bismuth
      Absorber with <Z/A> = 0.39717
 Sternheimer coef:  a     k=m_s   x_0    x_1    I[eV]   Cbar  delta0
                 0.0941  3.1671  0.4152  3.8248  823.0  6.3505 0.14

 *** Table generated with PUMAS v1.00 ***

      T         p     Ionization  brems     pair     photonuc  Radloss    dE/dx   CSDA Range  delta   beta
    [MeV]    [MeV/c]  -----------------------[MeV cm^2/g]------------------------  [g/cm^2]
  1.000E+05 1.018E+05 1.579E+00 1.059E-03 1.889E-02 7.545E-03 2.749E-02 1.607E+00 3.112E+04  2.6831 0.99985
  1.122E+05 1.140E+05 1.598E+00 1.228E-03 2.261E-02 8.467E-03 3.230E-02 1.630E+00 3.866E+04  2.8408 0.99988
  1.259E+05 1.277E+05 1.616E+00 1.424E-03 2.698E-02 9.452E-03 3.786E-02 1.654E+00 4.700E+04  3.0022 0.99990
  1.413E+05 1.430E+05 1.634E+00 1.649E-03 3.212E-02 1.055E-02 4.432E-02 1.678E+00 5.622E+04  3.1674 0.99992
  1.585E+05 1.603E+05 1.652E+00 1.910E-03 3.813E-02 1.178E-02 5.182E-02 1.704E+00 6.641E+04  3.3362 0.99994
  1.778E+05 1.796E+05 1.670E+00 2.210E-03 4.516E-02 1.314E-02 6.051E-02 1.730E+00 7.767E+04  3.5084 0.99995
  1.995E+05 2.013E+05 1.687E+00 2.555E-03 5.336E-02 1.468E-02 7.060E-02 1.758E+00 9.011E+04  3.6841 0.99996
  2.239E+05 2.256E+05 1.705E+00 2.953E-03 6.291E-02 1.636E-02 8.222E-02 1.787E+00 1.039E+05  3.8630 0.99997
  2.512E+05 2.530E+05 1.722E+00 3.411E-03 7.400E-02 1.822E-02 9.563E-02 1.818E+00 1.190E+05  4.0450 0.99998
  2.818E+05 2.836E+05 1.739E+00 3.937E-03 8.686E-02 2.032E-02 1.111E-01 1.850E+00 1.357E+05  4.2302 0.99998
  3.162E+05 3.180E+05 1.756E+00 4.542E-03 1.017E-01 2.267E-02 1.290E-01 1.885E+00 1.541E+05  4.4182 0.99998
  3.548E+05 3.566E+05 1.773E+00 5.238E-03 1.189E-01 2.530E-02 1.495E-01 1.922E+00 1.744E+05  4.6091 0.99999
  3.981E+05 3.999E+05 1.790E+00 6.036E-03 1.388E-01 2.821E-02 1.730E-01 1.963E+00 1.967E+05  4.8027 0.99999
  4.467E+05 4.485E+05 1.806E+00 6.952E-03 1.617E-01 3.147E-02 2.001E-01 2.006E+00 2.212E+05  4.9989 0.99999
  5.012E+05 5.030E+05 1.822E+00 8.003E-03 1.880E-01 3.512E-02 2.311E-01 2.053E+00 2.480E+05  5.1976 0.99999
  5.623E+05 5.641E+05 1.838E+00 9.209E-03 2.182E-01 3.905E-02 2.664E-01 2.105E+00 2.775E+05  5.3987 1.00000
  6.310E+05 6.327E+05 1.854E+00 1.059E-02 2.528E-01 4.346E-02 3.069E-01 2.161E+00 3.096E+05  5.6022 1.00000
  7.079E+05 7.097E+05 1.870E+00 1.217E-02 2.926E-01 4.843E-02 3.532E-01 2.223E+00 3.448E+05  5.8078 1.00000
  7.943E+05 7.961E+05 1.886E+00 1.398E-02 3.380E-01 5.401E-02 4.060E-01 2.292E+00 3.830E+05  6.0155 1.00000
  8.913E+05 8.930E+05 1.901E+00 1.606E-02 3.900E-01 6.031E-02 4.664E-01 2.367E+00 4.247E+05  6.2252 1.00000
  1.000E+06 1.002E+06 1.916E+00 1.843E-02 4.493E-01 6.741E-02 5.352E-01 2.451E+00 4.698E+05  6.4368 1.00000
  1.122E+06 1.124E+06 1.931E+00 2.114E-02 5.170E-01 7.543E-02 6.135E-01 2.545E+00 5.187E+05  6.6501 1.00000
  1.259E+06 1.261E+06 1.946E+00 2.424E-02 5.940E-01 8.450E-02 7.028E-01 2.649E+00 5.714E+05  6.8652 1.00000
  1.413E+06 1.414E+06 1.961E+00 2.779E-02 6.818E-01 9.475E-02 8.043E-01 2.765E+00 6.282E+05  7.0819 1.00000
  1.585E+06 1.587E+06 1.975E+00 3.184E-02 7.815E-01 1.064E-01 9.197E-01 2.895E+00 6.891E+05  7.3000 1.00000
  1.778E+06 1.780E+06 1.989E+00 3.646E-02 8.948E-01 1.195E-01 1.051E+00 3.040E+00 7.543E+05  7.5196 1.00000
  1.995E+06 1.997E+06 2.004E+00 4.173E-02 1.023E+00 1.344E-01 1.200E+00 3.203E+00 8.239E+05  7.7405 1.00000
  2.239E+06 2.240E+06 2.018E+00 4.775E-02 1.169E+00 1.513E-01 1.368E+00 3.386E+00 8.978E+05  7.9626 1.00000
  2.512E+06 2.514E+06 2.031E+00 5.462E-02 1.335E+00 1.705E-01 1.560E+00 3.591E+00 9.762E+05  8.1858 1.00000
  2.818E+06 2.820E+06 2.045E+00 6.245E-02 1.522E+00 1.922E-01 1.776E+00 3.821E+00 1.059E+06  8.4101 1.00000
  3.162E+06 3.164E+06 2.058E+00 7.137E-02 1.733E+00 2.170E-01 2.022E+00 4.080E+00 1.146E+06  8.6353 1.00000
  3.548E+06 3.550E+06 2.072E+00 8.153E-02 1.973E+00 2.451E-01 2.300E+00 4.371E+00 1.238E+06  8.8614 1.00000
  3.981E+06 3.983E+06 2.085E+00 9.311E-02 2.244E+00 2.770E-01 2.614E+00 4.698E+00 1.333E+06  9.0882 1.00000
  4.467E+06 4.469E+06 2.098E+00 1.063E-01 2.549E+00 3.133E-01 2.969E+00 5.067E+00 1.433E+06  9.3157 1.00000
  5.012E+06 5.014E+06 2.110E+00 1.213E-01 2.895E+00 3.547E-01 3.371E+00 5.481E+00 1.536E+06  9.5439 1.00000
  5.623E+06 5.625E+06 2.123E+00 1.384E-01 3.284E+00 4.017E-01 3.824E+00 5.947E+00 1.644E+06  9.7725 1.00000
  6.310E+06 6.311E+06 2.135E+00 1.578E-01 3.723E+00 4.553E-01 4.336E+00 6.472E+00 1.754E+06 10.0016 1.00000
  7.079E+06 7.081E+06 2.148E+00 1.799E-01 4.219E+00 5.163E-01 4.915E+00 7.062E+00 1.868E+06 10.2311 1.00000
  7.943E+06 7.945E+06 2.160E+00 2.049E-01 4.777E+00 5.857E-01 5.567E+00 7.727E+00 1.985E+06 10.4608 1.00000
  8.913E+06 8.914E+06 2.172E+00 2.335E-01 5.405E+00 6.648E-01 6.304E+00 8.475E+00 2.105E+06 10.6908 1.00000
  1.000E+07 1.000E+07 2.184E+00 2.658E-01 6.113E+00 7.550E-01 7.134E+00 9.318E+00 2.228E+06 10.9209 1.00000
  1.122E+07 1.122E+07 2.195E+00 3.026E-01 6.911E+00 8.577E-01 8.071E+00 1.027E+01 2.353E+06 11.1511 1.00000
  1.259E+07 1.259E+07 2.207E+00 3.443E-01 7.808E+00 9.748E-01 9.127E+00 1.133E+01 2.480E+06 11.3813 1.00000
  1.413E+07 1.413E+07 2.219E+00 3.917E-01 8.817E+00 1.108E+00 1.032E+01 1.254E+01 2.609E+06 11.6116 1.00000
  1.585E+07 1.585E+07 2.230E+00 4.454E-01 9.952E+00 1.261E+00 1.166E+01 1.389E+01 2.739E+06 11.8418 1.00000
  1.778E+07 1.778E+07 2.241E+00 5.064E-01 1.123E+01 1.434E+00 1.317E+01 1.541E+01 2.872E+06 12.0720 1.00000
  1.995E+07 1.995E+07 2.253E+00 5.754E-01 1.266E+01 1.632E+00 1.487E+01 1.713E+01 3.006E+06 12.3023 1.00000
  2.239E+07 2.239E+07 2.264E+00 6.537E-01 1.428E+01 1.858E+00 1.679E+01 1.905E+01 3.141E+06 12.5325 1.00000
  2.512E+07 2.512E+07 2.275E+00 7.423E-01 1.609E+01 2.116E+00 1.895E+01 2.123E+01 3.277E+06 12.7627 1.00000
  2.818E+07 2.819E+07 2.286E+00 8.427E-01 1.813E+01 2.410E+00 2.138E+01 2.367E+01 3.414E+06 12.9930 1.00000
  3.162E+07 3.162E+07 2.298E+00 9.564E-01 2.042E+01 2.745E+00 2.412E+01 2.642E+01 3.551E+06 13.2232 1.00000
  3.548E+07 3.548E+07 2.309E+00 1.085E+00 2.300E+01 3.128E+00 2.721E+01 2.952E+01 3.690E+06 13.4535 1.00000
  3.981E+07 3.981E+07 2.320E+00 1.231E+00 2.589E+01 3.565E+00 3.068E+01 3.300E+01 3.829E+06 13.6837 1.00000
  4.467E+07 4.467E+07 2.331E+00 1.395E+00 2.913E+01 4.064E+00 3.459E+01 3.692E+01 3.968E+06 13.9140 1.00000
  5.012E+07 5.012E+07 2.342E+00 1.581E+00 3.278E+01 4.633E+00 3.900E+01 4.134E+01 4.108E+06 14.1442 1.00000
  5.623E+07 5.624E+07 2.353E+00 1.792E+00 3.688E+01 5.283E+00 4.395E+01 4.630E+01 4.248E+06 14.3745 1.00000
  6.310E+07 6.310E+07 2.364E+00 2.029E+00 4.148E+01 6.024E+00 4.953E+01 5.189E+01 4.388E+06 14.6047 1.00000
  7.079E+07 7.080E+07 2.375E+00 2.298E+00 4.664E+01 6.871E+00 5.581E+01 5.818E+01 4.528E+06 14.8350 1.00000
  7.943E+07 7.943E+07 2.386E+00 2.601E+00 5.244E+01 7.838E+00 6.288E+01 6.526E+01 4.669E+06 15.0652 1.00000
  8.913E+07 8.913E+07 2.397E+00 2.944E+00 5.895E+01 8.943E+00 7.083E+01 7.323E+01 4.809E+06 15.2955 1.00000
  1.000E+08 1.000E+08 2.408E+00 3.330E+00 6.625E+01 1.020E+01 7.979E+01 8.220E+01 4.949E+06 15.5257 1.00000
  1.122E+08 1.122E+08 2.419E+00 3.766E+00 7.446E+01 1.164E+01 8.987E+01 9.229E+01 5.090E+06 15.7560 1.00000
  1.259E+08 1.259E+08 2.430E+00 4.258E+00 8.366E+01 1.329E+01 1.012E+02 1.036E+02 5.230E+06 15.9862 1.00000
  1.413E+08 1.413E+08 2.442E+00 4.812E+00 9.400E+01 1.517E+01 1.140E+02 1.164E+02 5.370E+06 16.2165 1.00000
  1.585E+08 1.585E+08 2.453E+00 5.437E+00 1.056E+02 1.731E+01 1.283E+02 1.308E+02 5.510E+06 16.4468 1.00000
  1.778E+08 1.778E+08 2.464E+00 6.142E+00 1.186E+02 1.976E+01 1.445E+02 1.470E+02 5.650E+06 16.6770 1.00000
  1.995E+08 1.995E+08 2.475E+00 6.936E+00 1.332E+02 2.256E+01 1.627E+02 1.652E+02 5.789E+06 16.9073 1.00000
  2.239E+08 2.239E+08 2.487E+00 7.830E+00 1.496E+02 2.576E+01 1.832E+02 1.857E+02 5.928E+06 17.1375 1.00000
  2.512E+08 2.512E+08 2.498E+00 8.838E+00 1.680E+02 2.941E+01 2.063E+02 2.088E+02 6.067E+06 17.3678 1.00000
  2.818E+08 2.818E+08 2.509E+00 9.972E+00 1.887E+02 3.359E+01 2.323E+02 2.348E+02 6.206E+06 17.5980 1.00000
  3.162E+08 3.162E+08 2.521E+00 1.125E+01 2.119E+02 3.836E+01 2.615E+02 2.640E+02 6.344E+06 17.8283 1.00000
  3.548E+08 3.548E+08 2.532E+00 1.269E+01 2.379E+02 4.381E+01 2.944E+02 2.969E+02 6.482E+06 18.0586 1.00000
  3.981E+08 3.981E+08 2.544E+00 1.430E+01 2.671E+02 5.004E+01 3.314E+02 3.340E+02 6.620E+06 18.2888 1.00000
  4.467E+08 4.467E+08 2.556E+00 1.612E+01 2.998E+02 5.716E+01 3.731E+02 3.757E+02 6.758E+06 18.5191 1.00000
  5.012E+08 5.012E+08 2.567E+00 1.817E+01 3.366E+02 6.529E+01 4.201E+02 4.226E+02 6.895E+06 18.7493 1.00000
  5.623E+08 5.623E+08 2.579E+00 2.047E+01 3.778E+02 7.459E+01 4.729E+02 4.755E+02 7.031E+06 18.9796 1.00000
  6.310E+08 6.310E+08 2.591E+00 2.306E+01 4.241E+02 8.521E+01 5.324E+02 5.350E+02 7.168E+06 19.2098 1.00000
  7.079E+08 7.079E+08 2.603E+00 2.597E+01 4.761E+02 9.736E+01 5.994E+02 6.020E+02 7.303E+06 19.4401 1.00000
  7.943E+08 7.943E+08 2.615E+00 2.925E+01 5.343E+02 1.112E+02 6.748E+02 6.774E+02 7.439E+06 19.6704 1.00000
  8.913E+08 8.913E+08 2.626E+00 3.292E+01 5.997E+02 1.271E+02 7.598E+02 7.624E+02 7.574E+06 19.9006 1.00000
  1.000E+09 1.000E+09 2.639E+00 3.706E+01 6.731E+02 1.453E+02 8.554E+02 8.581E+02 7.709E+06 20.1309 1.00000
  1.122E+09 1.122E+09 2.651E+00 4.170E+01 7.554E+02 1.660E+02 9.631E+02 9.658E+02 7.843E+06 20.3611 1.00000
  1.259E+09 1.259E+09 2.663E+00 4.692E+01 8.478E+02 1.897E+02 1.084E+03 1.087E+03 7.977E+06 20.5914 1.00000
  1.413E+09 1.413E+09 2.675E+00 5.279E+01 9.515E+02 2.168E+02 1.221E+03 1.224E+03 8.110E+06 20.8216 1.00000
  1.585E+09 1.585E+09 2.687E+00 5.937E+01 1.068E+03 2.478E+02 1.375E+03 1.378E+03 8.243E+06 21.0519 1.00000
  1.778E+09 1.778E+09 2.700E+00 6.677E+01 1.198E+03 2.833E+02 1.548E+03 1.551E+03 8.376E+06 21.2822 1.00000
  1.995E+09 1.995E+09 2.712E+00 7.508E+01 1.345E+03 3.239E+02 1.744E+03 1.746E+03 8.508E+06 21.5124 1.00000
  2.239E+09 2.239E+09 2.725E+00 8.442E+01 1.509E+03 3.702E+02 1.964E+03 1.966E+03 8.639E+06 21.7427 1.00000
  2.512E+09 2.512E+09 2.737E+00 9.490E+01 1.693E+03 4.233E+02 2.212E+03 2.214E+03 8.771E+06 21.9729 1.00000
  2.818E+09 2.818E+09 2.750E+00 1.067E+02 1.900E+03 4.839E+02 2.491E+03 2.494E+03 8.901E+06 22.2032 1.00000
  3.162E+09 3.162E+09 2.763E+00 1.199E+02 2.132E+03 5.533E+02 2.806E+03 2.808E+03 9.031E+06 22.4335 1.00000
  3.548E+09 3.548E+09 2.775E+00 1.347E+02 2.393E+03 6.327E+02 3.160E+03 3.163E+03 9.161E+06 22.6637 1.00000
  3.981E+09 3.981E+09 2.788E+00 1.514E+02 2.685E+03 7.235E+02 3.560E+03 3.563E+03 9.290E+06 22.8940 1.00000
  4.467E+09 4.467E+09 2.801E+00 1.701E+02 3.013E+03 8.273E+02 4.010E+03 4.013E+03 9.419E+06 23.1242 1.00000
  5.012E+09 5.012E+09 2.814E+00 1.911E+02 3.381E+03 9.462E+02 4.518E+03 4.521E+03 9.547E+06 23.3545 1.00000
  5.623E+09 5.623E+09 2.827E+00 2.146E+02 3.793E+03 1.082E+03 5.090E+03 5.093E+03 9.675E+06 23.5847 1.00000
  6.310E+09 6.310E+09 2.840E+00 2.411E+02 4.256E+03 1.238E+03 5.735E+03 5.738E+03 9.802E+06 23.8150 1.00000
  7.079E+09 7.079E+09 2.854E+00 2.708E+02 4.776E+03 1.416E+03 6.462E+03 6.465E+03 9.929E+06 24.0453 1.00000
  7.943E+09 7.943E+09 2.867E+00 3.041E+02 5.359E+03 1.619E+03 7.282E+03 7.285E+03 1.005E+07 24.2755 1.00000
  8.913E+09 8.913E+09 2.880E+00 3.415E+02 6.013E+03 1.852E+03 8.207E+03 8.210E+03 1.018E+07 24.5058 1.00000
  1.000E+10 1.000E+10 2.894E+00 3.834E+02 6.747E+03 2.119E+03 9.249E+03 9.252E+03 1.031E+07 24.7360 1.00000
  1.122E+10 1.122E+10 2.907E+00 4.306E+02 7.570E+03 2.424E+03 1.043E+04 1.043E+04 1.043E+07 24.9663 1.00000
  1.259E+10 1.259E+10 2.921E+00 4.834E+02 8.494E+03 2.774E+03 1.175E+04 1.175E+04 1.055E+07 25.1966 1.00000
  1.413E+10 1.413E+10 2.935E+00 5.427E+02 9.531E+03 3.174E+03 1.325E+04 1.325E+04 1.068E+07 25.4268 1.00000
  1.585E+10 1.585E+10 2.948E+00 6.093E+02 1.069E+04 3.631E+03 1.493E+04 1.494E+04 1.080E+07 25.6571 1.00000
  1.778E+10 1.778E+10 2.962E+00 6.840E+02 1.200E+04 4.155E+03 1.684E+04 1.684E+04 1.092E+07 25.8873 1.00000
  1.995E+10 1.995E+10 2.976E+00 7.679E+02 1.346E+04 4.755E+03 1.899E+04 1.899E+04 1.104E+07 26.1176 1.00000
  2.239E+10 2.239E+10 2.990E+00 8.620E+02 1.511E+04 5.442E+03 2.141E+04 2.141E+04 1.116E+07 26.3479 1.00000
  2.512E+10 2.512E+10 3.004E+00 9.675E+02 1.695E+04 6.228E+03 2.414E+04 2.415E+04 1.128E+07 26.5781 1.00000
  2.818E+10 2.818E+10 3.018E+00 1.086E+03 1.902E+04 7.128E+03 2.723E+04 2.723E+04 1.140E+07 26.8084 1.00000
  3.162E+10 3.162E+10 3.032E+00 1.219E+03 2.134E+04 8.159E+03 3.071E+04 3.072E+04 1.152E+07 27.0386 1.00000
  3.548E+10 3.548E+10 3.047E+00 1.368E+03 2.394E+04 9.339E+03 3.465E+04 3.465E+04 1.164E+07 27.2689 1.00000
  3.981E+10 3.981E+10 3.061E+00 1.536E+03 2.686E+04 1.069E+04 3.909E+04 3.909E+04 1.176E+07 27.4991 1.00000
  4.467E+10 4.467E+10 3.076E+00 1.723E+03 3.014E+04 1.224E+04 4.410E+04 4.410E+04 1.188E+07 27.7294 1.00000
  5.012E+10 5.012E+10 3.090E+00 1.934E+03 3.381E+04 1.401E+04 4.976E+04 4.976E+04 1.199E+07 27.9597 1.00000
  5.623E+10 5.623E+10 3.105E+00 2.171E+03 3.794E+04 1.604E+04 5.615E+04 5.615E+04 1.211E+07 28.1899 1.00000
  6.310E+10 6.310E+10 3.119E+00 2.436E+03 4.257E+04 1.836E+04 6.337E+04 6.337E+04 1.222E+07 28.4202 1.00000
  7.079E+10 7.079E+10 3.134E+00 2.734E+03 4.776E+04 2.103E+04 7.152E+04 7.153E+04 1.234E+07 28.6504 1.00000
  7.943E+10 7.943E+10 3.149E+00 3.068E+03 5.359E+04 2.408E+04 8.073E+04 8.074E+04 1.245E+07 28.8807 1.00000
  8.913E+10 8.913E+10 3.164E+00 3.443E+03 6.013E+04 2.757E+04 9.114E+04 9.114E+04 1.257E+07 29.1110 1.00000
  1.000E+11 1.000E+11 3.179E+00 3.863E+03 6.746E+04 3.158E+04 1.029E+05 1.029E+05 1.268E+07 29.3412 1.00000
  1.122E+11 1.122E+11 3.194E+00 4.335E+03 7.569E+04 3.616E+04 1.162E+05 1.162E+05 1.279E+07 29.5715 1.00000
  1.259E+11 1.259E+11 3.209E+00 4.865E+03 8.493E+04 4.142E+04 1.312E+05 1.312E+05 1.290E+07 29.8017 1.00000
  1.413E+11 1.413E+11 3.225E+00 5.459E+03 9.529E+04 4.744E+04 1.482E+05 1.482E+05 1.301E+07 30.0320 1.00000
  1.585E+11 1.585E+11 3.240E+00 6.126E+03 1.069E+05 5.433E+04 1.674E+05 1.674E+05 1.312E+07 30.2622 1.00000
  1.778E+11 1.778E+11 3.256E+00 6.874E+03 1.200E+05 6.224E+04 1.891E+05 1.891E+05 1.323E+07 30.4925 1.00000
  1.995E+11 1.995E+11 3.271E+00 7.713E+03 1.346E+05 7.130E+04 2.136E+05 2.136E+05 1.334E+07 30.7228 1.00000
  2.239E+11 2.239E+11 3.287E+00 8.655E+03 1.510E+05 8.168E+04 2.413E+05 2.413E+05 1.345E+07 30.9530 1.00000
  2.512E+11 2.512E+11 3.303E+00 9.711E+03 1.694E+05 9.358E+04 2.727E+05 2.727E+05 1.355E+07 31.1833 1.00000
  2.818E+11 2.818E+11 3.318E+00 1.090E+04 1.901E+05 1.072E+05 3.082E+05 3.082E+05 1.366E+07 31.4135 1.00000
  3.162E+11 3.162E+11 3.334E+00 1.223E+04 2.133E+05 1.228E+05 3.483E+05 3.483E+05 1.376E+07 31.6438 1.00000
  3.548E+11 3.548E+11 3.350E+00 1.372E+04 2.393E+05 1.408E+05 3.938E+05 3.938E+05 1.387E+07 31.8741 1.00000
  3.981E+11 3.981E+11 3.366E+00 1.539E+04 2.685E+05 1.613E+05 4.452E+05 4.452E+05 1.397E+07 32.1043 1.00000
  4.467E+11 4.467E+11 3.383E+00 1.727E+04 3.012E+05 1.848E+05 5.033E+05 5.033E+05 1.407E+07 32.3346 1.00000
  5.012E+11 5.012E+11 3.399E+00 1.938E+04 3.380E+05 2.118E+05 5.692E+05 5.692E+05 1.418E+07 32.5648 1.00000
  5.623E+11 5.623E+11 3.415E+00 2.175E+04 3.792E+05 2.428E+05 6.437E+05 6.437E+05 1.428E+07 32.7951 1.00000
  6.310E+11 6.310E+11 3.432E+00 2.440E+04 4.255E+05 2.782E+05 7.281E+05 7.281E+05 1.438E+07 33.0253 1.00000
  7.079E+11 7.079E+11 3.448E+00 2.738E+04 4.774E+05 3.189E+05 8.237E+05 8.237E+05 1.448E+07 33.2556 1.00000
  7.943E+11 7.943E+11 3.465E+00 3.072E+04 5.356E+05 3.656E+05 9.319E+05 9.319E+05 1.458E+07 33.4859 1.00000
  8.913E+11 8.913E+11 3.482E+00 3.447E+04 6.009E+05 4.190E+05 1.054E+06 1.054E+06 1.467E+07 33.7161 1.00000
  1.000E+12 1.000E+12 3.499E+00 3.868E+04 6.742E+05 4.804E+05 1.193E+06 1.193E+06 1.477E+07 33.9464 1.00000
  1.122E+12 1.122E+12 3.515E+00 4.340E+04 7.564E+05 5.507E+05 1.351E+06 1.351E+06 1.487E+07 34.1766 1.00000
  1.259E+12 1.259E+12 3.532E+00 4.869E+04 8.487E+05 6.314E+05 1.529E+06 1.529E+06 1.496E+07 34.4069 1.00000
  1.413E+12 1.413E+12 3.550E+00 5.464E+04 9.522E+05 7.239E+05 1.731E+06 1.731E+06 1.506E+07 34.6372 1.00000
  1.585E+12 1.585E+12 3.567E+00 6.130E+04 1.068E+06 8.301E+05 1.960E+06 1.960E+06 1.515E+07 34.8674 1.00000
  1.778E+12 1.778E+12 3.584E+00 6.879E+04 1.199E+06 9.518E+05 2.219E+06 2.219E+06 1.525E+07 35.0977 1.00000
  1.995E+12 1.995E+12 3.601E+00 7.718E+04 1.345E+06 1.091E+06 2.514E+06 2.514E+06 1.534E+07 35.3279 1.00000
  2.239E+12 2.239E+12 3.619E+00 8.660E+04 1.509E+06 1.252E+06 2.847E+06 2.847E+06 1.543E+07 35.5582 1.00000
  2.512E+12 2.512E+12 3.637E+00 9.716E+04 1.693E+06 1.435E+06 3.226E+06 3.226E+06 1.552E+07 35.7884 1.00000
  2.818E+12 2.818E+12 3.654E+00 1.090E+05 1.899E+06 1.646E+06 3.655E+06 3.655E+06 1.561E+07 36.0187 1.00000
  3.162E+12 3.162E+12 3.672E+00 1.223E+05 2.131E+06 1.888E+06 4.142E+06 4.142E+06 1.570E+07 36.2490 1.00000
  3.548E+12 3.548E+12 3.690E+00 1.373E+05 2.391E+06 2.166E+06 4.694E+06 4.694E+06 1.578E+07 36.4792 1.00000
  3.981E+12 3.981E+12 3.708E+00 1.540E+05 2.683E+06 2.484E+06 5.321E+06 5.321E+06 1.587E+07 36.7095 1.00000
  4.467E+12 4.467E+12 3.726E+00 1.728E+05 3.010E+06 2.850E+06 6.033E+06 6.033E+06 1.596E+07 36.9397 1.00000
  5.012E+12 5.012E+12 3.744E+00 1.939E+05 3.377E+06 3.269E+06 6.840E+06 6.840E+06 1.604E+07 37.1700 1.00000
  5.623E+12 5.623E+12 3.762E+00 2.175E+05 3.789E+06 3.751E+06 7.757E+06 7.757E+06 1.613E+07 37.4003 1.00000
  6.310E+12 6.310E+12 3.781E+00 2.441E+05 4.251E+06 4.303E+06 8.798E+06 8.798E+06 1.621E+07 37.6305 1.00000
  7.079E+12 7.079E+12 3.799E+00 2.739E+05 4.770E+06 4.937E+06 9.980E+06 9.980E+06 1.629E+07 37.8608 1.00000
  7.943E+12 7.943E+12 3.818E+00 3.073E+05 5.351E+06 5.665E+06 1.132E+07 1.132E+07 1.637E+07 38.0910 1.00000
  8.913E+12 8.913E+12 3.837E+00 3.448E+05 6.004E+06 6.500E+06 1.285E+07 1.285E+07 1.645E+07 38.3213 1.00000
  1.000E+13 1.000E+13 3.855E+00 3.868E+05 6.736E+06 7.459E+06 1.458E+07 1.458E+07 1.653E+07 38.5516 1.00000
  1.122E+13 1.122E+13 3.874E+00 4.340E+05 7.558E+06 8.560E+06 1.655E+07 1.655E+07 1.661E+07 38.7818 1.00000
  1.259E+13 1.259E+13 3.893E+00 4.870E+05 8.480E+06 9.823E+06 1.879E+07 1.879E+07 1.669E+07 39.0121 1.00000
  1.413E+13 1.413E+13 3.912E+00 5.464E+05 9.514E+06 1.127E+07 2.133E+07 2.133E+07 1.677E+07 39.2423 1.00000
  1.585E+13 1.585E+13 3.931E+00 6.131E+05 1.067E+07 1.294E+07 2.423E+07 2.423E+07 1.684E+07 39.4726 1.00000
  1.778E+13 1.778E+13 3.951E+00 6.879E+05 1.198E+07 1.485E+07 2.752E+07 2.752E+07 1.692E+07 39.7028 1.00000
  1.995E+13 1.995E+13 3.970E+00 7.718E+05 1.344E+07 1.705E+07 3.126E+07 3.126E+07 1.699E+07 39.9331 1.00000
  2.239E+13 2.239E+13 3.990E+00 8.660E+05 1.508E+07 1.957E+07 3.551E+07 3.551E+07 1.706E+07 40.1634 1.00000
  2.512E+13 2.512E+13 4.009E+00 9.717E+05 1.691E+07 2.247E+07 4.035E+07 4.035E+07 1.714E+07 40.3936 1.00000
  2.818E+13 2.818E+13 4.029E+00 1.090E+06 1.898E+07 2.579E+07 4.586E+07 4.586E+07 1.721E+07 40.6239 1.00000
  3.162E+13 3.162E+13 4.049E+00 1.223E+06 2.129E+07 2.961E+07 5.212E+07 5.212E+07 1.728E+07 40.8541 1.00000
  3.548E+13 3.548E+13 4.069E+00 1.373E+06 2.389E+07 3.400E+07 5.926E+07 5.926E+07 1.735E+07 41.0844 1.00000
  3.981E+13 3.981E+13 4.089E+00 1.540E+06 2.680E+07 3.903E+07 6.737E+07 6.737E+07 1.742E+07 41.3147 1.00000
  4.467E+13 4.467E+13 4.109E+00 1.728E+06 3.007E+07 4.482E+07 7.662E+07 7.662E+07 1.749E+07 41.5449 1.00000
  5.012E+13 5.012E+13 4.129E+00 1.939E+06 3.374E+07 5.147E+07 8.714E+07 8.714E+07 1.755E+07 41.7752 1.00000
  5.623E+13 5.623E+13 4.150E+00 2.175E+06 3.785E+07 5.910E+07 9.913E+07 9.913E+07 1.762E+07 42.0054 1.00000
  6.310E+13 6.310E+13 4.170E+00 2.441E+06 4.247E+07 6.787E+07 1.128E+08 1.128E+08 1.768E+07 42.2357 1.00000
  7.079E+13 7.079E+13 4.191E+00 2.739E+06 4.765E+07 7.795E+07 1.283E+08 1.283E+08 1.775E+07 42.4659 1.00000
  7.943E+13 7.943E+13 4.211E+00 3.073E+06 5.346E+07 8.952E+07 1.460E+08 1.460E+08 1.781E+07 42.6962 1.00000
  8.913E+13 8.913E+13 4.232E+00 3.448E+06 5.998E+07 1.028E+08 1.662E+08 1.662E+08 1.787E+07 42.9265 1.00000
