 Incident particle is a Tau with M = 1776.82000 MeV
 Index = 0: BismuthSilicate
      Absorber with <Z/A> = 0.42260
 Sternheimer coef:  a     k=m_s   x_0    x_1    I[eV]   Cbar  delta0
                 0.2187  3.0000  0.4077  3.0557  519.2  5.9374 0.00

 *** Table generated with PUMAS v1.00 ***

      T         p     Ionization  brems     pair     photonuc  Radloss    dE/dx   CSDA Range  delta   beta
    [MeV]    [MeV/c]  -----------------------[MeV cm^2/g]------------------------  [g/cm^2]
  1.000E+05 1.018E+05 1.743E+00 8.431E-04 1.493E-02 7.712E-03 2.349E-02 1.767E+00 2.830E+04  2.6362 0.99985
  1.122E+05 1.140E+05 1.762E+00 9.776E-04 1.788E-02 8.667E-03 2.752E-02 1.789E+00 3.516E+04  2.8104 0.99988
  1.259E+05 1.277E+05 1.780E+00 1.133E-03 2.135E-02 9.690E-03 3.217E-02 1.812E+00 4.277E+04  2.9889 0.99990
  1.413E+05 1.430E+05 1.798E+00 1.312E-03 2.542E-02 1.084E-02 3.756E-02 1.836E+00 5.119E+04  3.1715 0.99992
  1.585E+05 1.603E+05 1.816E+00 1.519E-03 3.018E-02 1.211E-02 4.381E-02 1.860E+00 6.052E+04  3.3580 0.99994
  1.778E+05 1.796E+05 1.834E+00 1.757E-03 3.575E-02 1.353E-02 5.104E-02 1.885E+00 7.085E+04  3.5483 0.99995
  1.995E+05 2.013E+05 1.851E+00 2.032E-03 4.225E-02 1.514E-02 5.942E-02 1.911E+00 8.228E+04  3.7422 0.99996
  2.239E+05 2.256E+05 1.869E+00 2.348E-03 4.982E-02 1.689E-02 6.906E-02 1.938E+00 9.493E+04  3.9395 0.99997
  2.512E+05 2.530E+05 1.886E+00 2.711E-03 5.861E-02 1.884E-02 8.017E-02 1.966E+00 1.089E+05  4.1401 0.99998
  2.818E+05 2.836E+05 1.903E+00 3.129E-03 6.881E-02 2.104E-02 9.298E-02 1.996E+00 1.244E+05  4.3437 0.99998
  3.162E+05 3.180E+05 1.920E+00 3.610E-03 8.062E-02 2.351E-02 1.077E-01 2.028E+00 1.415E+05  4.5503 0.99998
  3.548E+05 3.566E+05 1.936E+00 4.162E-03 9.426E-02 2.627E-02 1.247E-01 2.061E+00 1.604E+05  4.7595 0.99999
  3.981E+05 3.999E+05 1.953E+00 4.795E-03 1.100E-01 2.934E-02 1.441E-01 2.097E+00 1.812E+05  4.9714 0.99999
  4.467E+05 4.485E+05 1.969E+00 5.523E-03 1.282E-01 3.277E-02 1.665E-01 2.136E+00 2.041E+05  5.1856 0.99999
  5.012E+05 5.030E+05 1.985E+00 6.357E-03 1.490E-01 3.662E-02 1.920E-01 2.177E+00 2.294E+05  5.4021 0.99999
  5.623E+05 5.641E+05 2.001E+00 7.313E-03 1.730E-01 4.077E-02 2.211E-01 2.223E+00 2.572E+05  5.6206 1.00000
  6.310E+05 6.327E+05 2.017E+00 8.409E-03 2.006E-01 4.544E-02 2.544E-01 2.272E+00 2.878E+05  5.8411 1.00000
  7.079E+05 7.097E+05 2.033E+00 9.665E-03 2.321E-01 5.069E-02 2.925E-01 2.325E+00 3.213E+05  6.0632 1.00000
  7.943E+05 7.961E+05 2.048E+00 1.110E-02 2.682E-01 5.661E-02 3.360E-01 2.384E+00 3.579E+05  6.2869 1.00000
  8.913E+05 8.930E+05 2.064E+00 1.275E-02 3.095E-01 6.328E-02 3.856E-01 2.449E+00 3.981E+05  6.5119 1.00000
  1.000E+06 1.002E+06 2.079E+00 1.463E-02 3.567E-01 7.082E-02 4.421E-01 2.521E+00 4.418E+05  6.7382 1.00000
  1.122E+06 1.124E+06 2.094E+00 1.678E-02 4.105E-01 7.933E-02 5.066E-01 2.601E+00 4.895E+05  6.9655 1.00000
  1.259E+06 1.261E+06 2.109E+00 1.924E-02 4.718E-01 8.896E-02 5.800E-01 2.689E+00 5.413E+05  7.1937 1.00000
  1.413E+06 1.414E+06 2.124E+00 2.206E-02 5.415E-01 9.985E-02 6.635E-01 2.787E+00 5.974E+05  7.4226 1.00000
  1.585E+06 1.587E+06 2.139E+00 2.527E-02 6.209E-01 1.122E-01 7.584E-01 2.897E+00 6.580E+05  7.6520 1.00000
  1.778E+06 1.780E+06 2.153E+00 2.893E-02 7.111E-01 1.262E-01 8.662E-01 3.019E+00 7.234E+05  7.8818 1.00000
  1.995E+06 1.997E+06 2.168E+00 3.312E-02 8.134E-01 1.420E-01 9.885E-01 3.156E+00 7.938E+05  8.1118 1.00000
  2.239E+06 2.240E+06 2.182E+00 3.790E-02 9.295E-01 1.600E-01 1.127E+00 3.309E+00 8.691E+05  8.3419 1.00000
  2.512E+06 2.514E+06 2.196E+00 4.334E-02 1.061E+00 1.804E-01 1.285E+00 3.481E+00 9.496E+05  8.5719 1.00000
  2.818E+06 2.820E+06 2.210E+00 4.956E-02 1.210E+00 2.036E-01 1.463E+00 3.673E+00 1.035E+06  8.8020 1.00000
  3.162E+06 3.164E+06 2.224E+00 5.664E-02 1.379E+00 2.299E-01 1.665E+00 3.890E+00 1.126E+06  9.0322 1.00000
  3.548E+06 3.550E+06 2.238E+00 6.470E-02 1.570E+00 2.599E-01 1.894E+00 4.132E+00 1.223E+06  9.2623 1.00000
  3.981E+06 3.983E+06 2.252E+00 7.389E-02 1.785E+00 2.939E-01 2.153E+00 4.405E+00 1.324E+06  9.4925 1.00000
  4.467E+06 4.469E+06 2.265E+00 8.435E-02 2.029E+00 3.326E-01 2.446E+00 4.711E+00 1.431E+06  9.7226 1.00000
  5.012E+06 5.014E+06 2.279E+00 9.626E-02 2.304E+00 3.767E-01 2.777E+00 5.056E+00 1.543E+06  9.9528 1.00000
  5.623E+06 5.625E+06 2.292E+00 1.098E-01 2.615E+00 4.269E-01 3.151E+00 5.443E+00 1.659E+06 10.1830 1.00000
  6.310E+06 6.311E+06 2.305E+00 1.252E-01 2.965E+00 4.840E-01 3.574E+00 5.879E+00 1.781E+06 10.4132 1.00000
  7.079E+06 7.081E+06 2.318E+00 1.427E-01 3.360E+00 5.490E-01 4.051E+00 6.370E+00 1.907E+06 10.6434 1.00000
  7.943E+06 7.945E+06 2.331E+00 1.627E-01 3.805E+00 6.231E-01 4.591E+00 6.922E+00 2.037E+06 10.8736 1.00000
  8.913E+06 8.914E+06 2.344E+00 1.853E-01 4.306E+00 7.075E-01 5.199E+00 7.543E+00 2.171E+06 11.1038 1.00000
  1.000E+07 1.000E+07 2.356E+00 2.110E-01 4.871E+00 8.037E-01 5.886E+00 8.242E+00 2.309E+06 11.3340 1.00000
  1.122E+07 1.122E+07 2.369E+00 2.402E-01 5.507E+00 9.133E-01 6.660E+00 9.029E+00 2.451E+06 11.5642 1.00000
  1.259E+07 1.259E+07 2.381E+00 2.734E-01 6.223E+00 1.038E+00 7.534E+00 9.915E+00 2.596E+06 11.7944 1.00000
  1.413E+07 1.413E+07 2.394E+00 3.110E-01 7.028E+00 1.181E+00 8.520E+00 1.091E+01 2.743E+06 12.0247 1.00000
  1.585E+07 1.585E+07 2.406E+00 3.537E-01 7.934E+00 1.343E+00 9.631E+00 1.204E+01 2.894E+06 12.2549 1.00000
  1.778E+07 1.778E+07 2.418E+00 4.021E-01 8.953E+00 1.528E+00 1.088E+01 1.330E+01 3.047E+06 12.4851 1.00000
  1.995E+07 1.995E+07 2.430E+00 4.569E-01 1.010E+01 1.740E+00 1.230E+01 1.473E+01 3.202E+06 12.7154 1.00000
  2.239E+07 2.239E+07 2.442E+00 5.191E-01 1.139E+01 1.981E+00 1.389E+01 1.633E+01 3.359E+06 12.9456 1.00000
  2.512E+07 2.512E+07 2.454E+00 5.895E-01 1.283E+01 2.256E+00 1.568E+01 1.813E+01 3.518E+06 13.1758 1.00000
  2.818E+07 2.819E+07 2.466E+00 6.693E-01 1.446E+01 2.570E+00 1.770E+01 2.017E+01 3.679E+06 13.4061 1.00000
  3.162E+07 3.162E+07 2.478E+00 7.597E-01 1.629E+01 2.928E+00 1.998E+01 2.246E+01 3.841E+06 13.6363 1.00000
  3.548E+07 3.548E+07 2.489E+00 8.619E-01 1.835E+01 3.336E+00 2.254E+01 2.503E+01 4.004E+06 13.8666 1.00000
  3.981E+07 3.981E+07 2.501E+00 9.776E-01 2.065E+01 3.802E+00 2.543E+01 2.793E+01 4.168E+06 14.0968 1.00000
  4.467E+07 4.467E+07 2.513E+00 1.108E+00 2.325E+01 4.335E+00 2.869E+01 3.120E+01 4.332E+06 14.3271 1.00000
  5.012E+07 5.012E+07 2.525E+00 1.256E+00 2.616E+01 4.942E+00 3.236E+01 3.488E+01 4.498E+06 14.5573 1.00000
  5.623E+07 5.624E+07 2.536E+00 1.424E+00 2.943E+01 5.636E+00 3.649E+01 3.902E+01 4.664E+06 14.7876 1.00000
  6.310E+07 6.310E+07 2.548E+00 1.613E+00 3.310E+01 6.427E+00 4.114E+01 4.369E+01 4.830E+06 15.0178 1.00000
  7.079E+07 7.080E+07 2.560E+00 1.826E+00 3.722E+01 7.331E+00 4.638E+01 4.894E+01 4.997E+06 15.2481 1.00000
  7.943E+07 7.943E+07 2.572E+00 2.068E+00 4.185E+01 8.363E+00 5.228E+01 5.486E+01 5.164E+06 15.4783 1.00000
  8.913E+07 8.913E+07 2.583E+00 2.340E+00 4.705E+01 9.542E+00 5.893E+01 6.152E+01 5.331E+06 15.7086 1.00000
  1.000E+08 1.000E+08 2.595E+00 2.647E+00 5.289E+01 1.089E+01 6.642E+01 6.902E+01 5.498E+06 15.9388 1.00000
  1.122E+08 1.122E+08 2.607E+00 2.994E+00 5.944E+01 1.242E+01 7.486E+01 7.746E+01 5.666E+06 16.1691 1.00000
  1.259E+08 1.259E+08 2.619E+00 3.385E+00 6.679E+01 1.418E+01 8.436E+01 8.697E+01 5.833E+06 16.3993 1.00000
  1.413E+08 1.413E+08 2.631E+00 3.827E+00 7.504E+01 1.618E+01 9.506E+01 9.769E+01 6.000E+06 16.6296 1.00000
  1.585E+08 1.585E+08 2.643E+00 4.324E+00 8.431E+01 1.847E+01 1.071E+02 1.097E+02 6.166E+06 16.8599 1.00000
  1.778E+08 1.778E+08 2.655E+00 4.885E+00 9.471E+01 2.109E+01 1.207E+02 1.233E+02 6.333E+06 17.0901 1.00000
  1.995E+08 1.995E+08 2.667E+00 5.517E+00 1.064E+02 2.408E+01 1.360E+02 1.386E+02 6.499E+06 17.3204 1.00000
  2.239E+08 2.239E+08 2.679E+00 6.229E+00 1.195E+02 2.749E+01 1.532E+02 1.559E+02 6.665E+06 17.5506 1.00000
  2.512E+08 2.512E+08 2.691E+00 7.031E+00 1.342E+02 3.139E+01 1.726E+02 1.753E+02 6.831E+06 17.7809 1.00000
  2.818E+08 2.818E+08 2.703E+00 7.935E+00 1.507E+02 3.585E+01 1.945E+02 1.972E+02 6.996E+06 18.0111 1.00000
  3.162E+08 3.162E+08 2.715E+00 8.952E+00 1.692E+02 4.094E+01 2.191E+02 2.218E+02 7.160E+06 18.2414 1.00000
  3.548E+08 3.548E+08 2.727E+00 1.010E+01 1.900E+02 4.676E+01 2.468E+02 2.495E+02 7.325E+06 18.4717 1.00000
  3.981E+08 3.981E+08 2.740E+00 1.138E+01 2.133E+02 5.341E+01 2.781E+02 2.808E+02 7.489E+06 18.7019 1.00000
  4.467E+08 4.467E+08 2.752E+00 1.283E+01 2.394E+02 6.100E+01 3.133E+02 3.160E+02 7.652E+06 18.9322 1.00000
  5.012E+08 5.012E+08 2.765E+00 1.447E+01 2.688E+02 6.969E+01 3.529E+02 3.557E+02 7.815E+06 19.1624 1.00000
  5.623E+08 5.623E+08 2.777E+00 1.630E+01 3.017E+02 7.961E+01 3.976E+02 4.004E+02 7.977E+06 19.3927 1.00000
  6.310E+08 6.310E+08 2.790E+00 1.836E+01 3.387E+02 9.095E+01 4.480E+02 4.508E+02 8.139E+06 19.6229 1.00000
  7.079E+08 7.079E+08 2.802E+00 2.068E+01 3.802E+02 1.039E+02 5.048E+02 5.076E+02 8.300E+06 19.8532 1.00000
  7.943E+08 7.943E+08 2.815E+00 2.329E+01 4.267E+02 1.187E+02 5.688E+02 5.716E+02 8.461E+06 20.0835 1.00000
  8.913E+08 8.913E+08 2.828E+00 2.622E+01 4.790E+02 1.357E+02 6.409E+02 6.437E+02 8.621E+06 20.3137 1.00000
  1.000E+09 1.000E+09 2.840E+00 2.952E+01 5.376E+02 1.550E+02 7.221E+02 7.250E+02 8.780E+06 20.5440 1.00000
  1.122E+09 1.122E+09 2.853E+00 3.322E+01 6.033E+02 1.772E+02 8.137E+02 8.166E+02 8.939E+06 20.7742 1.00000
  1.259E+09 1.259E+09 2.866E+00 3.738E+01 6.771E+02 2.025E+02 9.170E+02 9.199E+02 9.097E+06 21.0045 1.00000
  1.413E+09 1.413E+09 2.879E+00 4.206E+01 7.599E+02 2.315E+02 1.033E+03 1.036E+03 9.255E+06 21.2347 1.00000
  1.585E+09 1.585E+09 2.892E+00 4.731E+01 8.528E+02 2.646E+02 1.165E+03 1.168E+03 9.412E+06 21.4650 1.00000
  1.778E+09 1.778E+09 2.906E+00 5.321E+01 9.570E+02 3.024E+02 1.313E+03 1.316E+03 9.568E+06 21.6953 1.00000
  1.995E+09 1.995E+09 2.919E+00 5.984E+01 1.074E+03 3.457E+02 1.479E+03 1.482E+03 9.724E+06 21.9255 1.00000
  2.239E+09 2.239E+09 2.932E+00 6.728E+01 1.205E+03 3.952E+02 1.668E+03 1.671E+03 9.879E+06 22.1558 1.00000
  2.512E+09 2.512E+09 2.945E+00 7.564E+01 1.352E+03 4.518E+02 1.880E+03 1.883E+03 1.003E+07 22.3860 1.00000
  2.818E+09 2.818E+09 2.959E+00 8.502E+01 1.518E+03 5.166E+02 2.119E+03 2.122E+03 1.019E+07 22.6163 1.00000
  3.162E+09 3.162E+09 2.972E+00 9.556E+01 1.703E+03 5.906E+02 2.389E+03 2.392E+03 1.034E+07 22.8466 1.00000
  3.548E+09 3.548E+09 2.986E+00 1.074E+02 1.911E+03 6.753E+02 2.694E+03 2.697E+03 1.049E+07 23.0768 1.00000
  3.981E+09 3.981E+09 3.000E+00 1.207E+02 2.144E+03 7.722E+02 3.037E+03 3.040E+03 1.064E+07 23.3071 1.00000
  4.467E+09 4.467E+09 3.014E+00 1.356E+02 2.406E+03 8.831E+02 3.425E+03 3.428E+03 1.079E+07 23.5373 1.00000
  5.012E+09 5.012E+09 3.027E+00 1.523E+02 2.700E+03 1.010E+03 3.862E+03 3.865E+03 1.094E+07 23.7676 1.00000
  5.623E+09 5.623E+09 3.041E+00 1.711E+02 3.030E+03 1.155E+03 4.356E+03 4.359E+03 1.109E+07 23.9978 1.00000
  6.310E+09 6.310E+09 3.055E+00 1.922E+02 3.399E+03 1.321E+03 4.913E+03 4.916E+03 1.124E+07 24.2281 1.00000
  7.079E+09 7.079E+09 3.069E+00 2.159E+02 3.814E+03 1.511E+03 5.541E+03 5.545E+03 1.139E+07 24.4584 1.00000
  7.943E+09 7.943E+09 3.083E+00 2.425E+02 4.280E+03 1.728E+03 6.251E+03 6.254E+03 1.154E+07 24.6886 1.00000
  8.913E+09 8.913E+09 3.098E+00 2.723E+02 4.802E+03 1.977E+03 7.052E+03 7.055E+03 1.168E+07 24.9189 1.00000
  1.000E+10 1.000E+10 3.112E+00 3.058E+02 5.389E+03 2.262E+03 7.956E+03 7.959E+03 1.183E+07 25.1491 1.00000
  1.122E+10 1.122E+10 3.126E+00 3.434E+02 6.046E+03 2.588E+03 8.977E+03 8.981E+03 1.197E+07 25.3794 1.00000
  1.259E+10 1.259E+10 3.141E+00 3.856E+02 6.784E+03 2.961E+03 1.013E+04 1.013E+04 1.212E+07 25.6097 1.00000
  1.413E+10 1.413E+10 3.155E+00 4.329E+02 7.612E+03 3.388E+03 1.143E+04 1.144E+04 1.226E+07 25.8399 1.00000
  1.585E+10 1.585E+10 3.170E+00 4.860E+02 8.541E+03 3.876E+03 1.290E+04 1.291E+04 1.240E+07 26.0702 1.00000
  1.778E+10 1.778E+10 3.185E+00 5.456E+02 9.583E+03 4.435E+03 1.456E+04 1.457E+04 1.254E+07 26.3004 1.00000
  1.995E+10 1.995E+10 3.200E+00 6.125E+02 1.075E+04 5.076E+03 1.644E+04 1.644E+04 1.268E+07 26.5307 1.00000
  2.239E+10 2.239E+10 3.214E+00 6.876E+02 1.206E+04 5.809E+03 1.856E+04 1.856E+04 1.282E+07 26.7610 1.00000
  2.512E+10 2.512E+10 3.229E+00 7.719E+02 1.354E+04 6.648E+03 2.096E+04 2.096E+04 1.296E+07 26.9912 1.00000
  2.818E+10 2.818E+10 3.244E+00 8.664E+02 1.519E+04 7.609E+03 2.366E+04 2.367E+04 1.310E+07 27.2215 1.00000
  3.162E+10 3.162E+10 3.260E+00 9.725E+02 1.704E+04 8.709E+03 2.672E+04 2.673E+04 1.324E+07 27.4517 1.00000
  3.548E+10 3.548E+10 3.275E+00 1.092E+03 1.912E+04 9.968E+03 3.018E+04 3.018E+04 1.337E+07 27.6820 1.00000
  3.981E+10 3.981E+10 3.290E+00 1.225E+03 2.145E+04 1.141E+04 3.409E+04 3.409E+04 1.351E+07 27.9122 1.00000
  4.467E+10 4.467E+10 3.305E+00 1.375E+03 2.407E+04 1.306E+04 3.851E+04 3.851E+04 1.364E+07 28.1425 1.00000
  5.012E+10 5.012E+10 3.321E+00 1.543E+03 2.701E+04 1.495E+04 4.351E+04 4.351E+04 1.378E+07 28.3728 1.00000
  5.623E+10 5.623E+10 3.337E+00 1.732E+03 3.030E+04 1.712E+04 4.916E+04 4.916E+04 1.391E+07 28.6030 1.00000
  6.310E+10 6.310E+10 3.352E+00 1.944E+03 3.400E+04 1.960E+04 5.555E+04 5.555E+04 1.404E+07 28.8333 1.00000
  7.079E+10 7.079E+10 3.368E+00 2.181E+03 3.815E+04 2.245E+04 6.277E+04 6.278E+04 1.417E+07 29.0635 1.00000
  7.943E+10 7.943E+10 3.384E+00 2.448E+03 4.280E+04 2.570E+04 7.095E+04 7.095E+04 1.430E+07 29.2938 1.00000
  8.913E+10 8.913E+10 3.400E+00 2.747E+03 4.802E+04 2.943E+04 8.020E+04 8.020E+04 1.443E+07 29.5241 1.00000
  1.000E+11 1.000E+11 3.416E+00 3.083E+03 5.388E+04 3.370E+04 9.067E+04 9.067E+04 1.456E+07 29.7543 1.00000
  1.122E+11 1.122E+11 3.432E+00 3.459E+03 6.046E+04 3.860E+04 1.025E+05 1.025E+05 1.468E+07 29.9846 1.00000
  1.259E+11 1.259E+11 3.448E+00 3.882E+03 6.783E+04 4.421E+04 1.159E+05 1.159E+05 1.481E+07 30.2148 1.00000
  1.413E+11 1.413E+11 3.464E+00 4.356E+03 7.610E+04 5.063E+04 1.311E+05 1.311E+05 1.493E+07 30.4451 1.00000
  1.585E+11 1.585E+11 3.481E+00 4.888E+03 8.539E+04 5.800E+04 1.483E+05 1.483E+05 1.506E+07 30.6753 1.00000
  1.778E+11 1.778E+11 3.497E+00 5.485E+03 9.581E+04 6.644E+04 1.677E+05 1.677E+05 1.518E+07 30.9056 1.00000
  1.995E+11 1.995E+11 3.514E+00 6.155E+03 1.075E+05 7.610E+04 1.898E+05 1.898E+05 1.530E+07 31.1359 1.00000
  2.239E+11 2.239E+11 3.530E+00 6.906E+03 1.206E+05 8.719E+04 2.147E+05 2.147E+05 1.542E+07 31.3661 1.00000
  2.512E+11 2.512E+11 3.547E+00 7.750E+03 1.353E+05 9.989E+04 2.430E+05 2.430E+05 1.554E+07 31.5964 1.00000
  2.818E+11 2.818E+11 3.564E+00 8.696E+03 1.518E+05 1.144E+05 2.750E+05 2.750E+05 1.566E+07 31.8266 1.00000
  3.162E+11 3.162E+11 3.581E+00 9.757E+03 1.703E+05 1.311E+05 3.112E+05 3.112E+05 1.578E+07 32.0569 1.00000
  3.548E+11 3.548E+11 3.598E+00 1.095E+04 1.911E+05 1.502E+05 3.523E+05 3.523E+05 1.590E+07 32.2872 1.00000
  3.981E+11 3.981E+11 3.615E+00 1.228E+04 2.144E+05 1.722E+05 3.989E+05 3.989E+05 1.601E+07 32.5174 1.00000
  4.467E+11 4.467E+11 3.632E+00 1.378E+04 2.406E+05 1.973E+05 4.517E+05 4.517E+05 1.613E+07 32.7477 1.00000
  5.012E+11 5.012E+11 3.650E+00 1.547E+04 2.699E+05 2.261E+05 5.115E+05 5.115E+05 1.624E+07 32.9779 1.00000
  5.623E+11 5.623E+11 3.667E+00 1.735E+04 3.029E+05 2.591E+05 5.794E+05 5.794E+05 1.635E+07 33.2082 1.00000
  6.310E+11 6.310E+11 3.684E+00 1.947E+04 3.398E+05 2.970E+05 6.563E+05 6.563E+05 1.646E+07 33.4384 1.00000
  7.079E+11 7.079E+11 3.702E+00 2.185E+04 3.813E+05 3.404E+05 7.435E+05 7.435E+05 1.657E+07 33.6687 1.00000
  7.943E+11 7.943E+11 3.720E+00 2.452E+04 4.278E+05 3.902E+05 8.425E+05 8.425E+05 1.668E+07 33.8990 1.00000
  8.913E+11 8.913E+11 3.738E+00 2.751E+04 4.799E+05 4.473E+05 9.548E+05 9.548E+05 1.679E+07 34.1292 1.00000
  1.000E+12 1.000E+12 3.756E+00 3.087E+04 5.385E+05 5.128E+05 1.082E+06 1.082E+06 1.690E+07 34.3595 1.00000
  1.122E+12 1.122E+12 3.774E+00 3.463E+04 6.042E+05 5.879E+05 1.227E+06 1.227E+06 1.701E+07 34.5897 1.00000
  1.259E+12 1.259E+12 3.792E+00 3.886E+04 6.779E+05 6.740E+05 1.391E+06 1.391E+06 1.711E+07 34.8200 1.00000
  1.413E+12 1.413E+12 3.810E+00 4.360E+04 7.606E+05 7.727E+05 1.577E+06 1.577E+06 1.721E+07 35.0503 1.00000
  1.585E+12 1.585E+12 3.828E+00 4.892E+04 8.533E+05 8.860E+05 1.788E+06 1.788E+06 1.732E+07 35.2805 1.00000
  1.778E+12 1.778E+12 3.847E+00 5.489E+04 9.574E+05 1.016E+06 2.028E+06 2.028E+06 1.742E+07 35.5108 1.00000
  1.995E+12 1.995E+12 3.865E+00 6.159E+04 1.074E+06 1.165E+06 2.301E+06 2.301E+06 1.752E+07 35.7410 1.00000
  2.239E+12 2.239E+12 3.884E+00 6.911E+04 1.205E+06 1.336E+06 2.610E+06 2.610E+06 1.762E+07 35.9713 1.00000
  2.512E+12 2.512E+12 3.902E+00 7.754E+04 1.352E+06 1.532E+06 2.962E+06 2.962E+06 1.772E+07 36.2015 1.00000
  2.818E+12 2.818E+12 3.921E+00 8.700E+04 1.517E+06 1.757E+06 3.361E+06 3.361E+06 1.782E+07 36.4318 1.00000
  3.162E+12 3.162E+12 3.940E+00 9.762E+04 1.702E+06 2.016E+06 3.815E+06 3.815E+06 1.791E+07 36.6621 1.00000
  3.548E+12 3.548E+12 3.959E+00 1.095E+05 1.910E+06 2.312E+06 4.331E+06 4.331E+06 1.801E+07 36.8923 1.00000
  3.981E+12 3.981E+12 3.978E+00 1.229E+05 2.143E+06 2.652E+06 4.917E+06 4.917E+06 1.810E+07 37.1226 1.00000
  4.467E+12 4.467E+12 3.998E+00 1.379E+05 2.404E+06 3.042E+06 5.584E+06 5.584E+06 1.819E+07 37.3528 1.00000
  5.012E+12 5.012E+12 4.017E+00 1.547E+05 2.697E+06 3.490E+06 6.342E+06 6.342E+06 1.829E+07 37.5831 1.00000
  5.623E+12 5.623E+12 4.036E+00 1.736E+05 3.026E+06 4.003E+06 7.203E+06 7.203E+06 1.838E+07 37.8134 1.00000
  6.310E+12 6.310E+12 4.056E+00 1.948E+05 3.395E+06 4.593E+06 8.183E+06 8.183E+06 1.847E+07 38.0436 1.00000
  7.079E+12 7.079E+12 4.076E+00 2.185E+05 3.809E+06 5.270E+06 9.298E+06 9.298E+06 1.855E+07 38.2739 1.00000
  7.943E+12 7.943E+12 4.095E+00 2.452E+05 4.274E+06 6.047E+06 1.057E+07 1.057E+07 1.864E+07 38.5041 1.00000
  8.913E+12 8.913E+12 4.115E+00 2.751E+05 4.795E+06 6.938E+06 1.201E+07 1.201E+07 1.873E+07 38.7344 1.00000
  1.000E+13 1.000E+13 4.135E+00 3.087E+05 5.380E+06 7.962E+06 1.365E+07 1.365E+07 1.881E+07 38.9647 1.00000
  1.122E+13 1.122E+13 4.155E+00 3.464E+05 6.036E+06 9.137E+06 1.552E+07 1.552E+07 1.890E+07 39.1949 1.00000
  1.259E+13 1.259E+13 4.175E+00 3.886E+05 6.773E+06 1.049E+07 1.765E+07 1.765E+07 1.898E+07 39.4252 1.00000
  1.413E+13 1.413E+13 4.196E+00 4.361E+05 7.599E+06 1.203E+07 2.007E+07 2.007E+07 1.906E+07 39.6554 1.00000
  1.585E+13 1.585E+13 4.216E+00 4.893E+05 8.525E+06 1.381E+07 2.283E+07 2.283E+07 1.914E+07 39.8857 1.00000
  1.778E+13 1.778E+13 4.237E+00 5.490E+05 9.565E+06 1.585E+07 2.597E+07 2.597E+07 1.922E+07 40.1159 1.00000
  1.995E+13 1.995E+13 4.257E+00 6.160E+05 1.073E+07 1.820E+07 2.955E+07 2.955E+07 1.930E+07 40.3462 1.00000
  2.239E+13 2.239E+13 4.278E+00 6.911E+05 1.204E+07 2.089E+07 3.362E+07 3.362E+07 1.938E+07 40.5765 1.00000
  2.512E+13 2.512E+13 4.299E+00 7.754E+05 1.351E+07 2.398E+07 3.826E+07 3.826E+07 1.945E+07 40.8067 1.00000
  2.818E+13 2.818E+13 4.320E+00 8.701E+05 1.516E+07 2.753E+07 4.356E+07 4.356E+07 1.953E+07 41.0370 1.00000
  3.162E+13 3.162E+13 4.341E+00 9.762E+05 1.701E+07 3.161E+07 4.959E+07 4.959E+07 1.960E+07 41.2672 1.00000
  3.548E+13 3.548E+13 4.362E+00 1.095E+06 1.908E+07 3.629E+07 5.646E+07 5.646E+07 1.968E+07 41.4975 1.00000
  3.981E+13 3.981E+13 4.384E+00 1.229E+06 2.141E+07 4.166E+07 6.430E+07 6.430E+07 1.975E+07 41.7278 1.00000
  4.467E+13 4.467E+13 4.405E+00 1.379E+06 2.402E+07 4.784E+07 7.324E+07 7.324E+07 1.982E+07 41.9580 1.00000
  5.012E+13 5.012E+13 4.427E+00 1.547E+06 2.695E+07 5.494E+07 8.343E+07 8.343E+07 1.989E+07 42.1883 1.00000
  5.623E+13 5.623E+13 4.448E+00 1.736E+06 3.023E+07 6.308E+07 9.505E+07 9.505E+07 1.996E+07 42.4185 1.00000
  6.310E+13 6.310E+13 4.470E+00 1.948E+06 3.392E+07 7.245E+07 1.083E+08 1.083E+08 2.003E+07 42.6488 1.00000
  7.079E+13 7.079E+13 4.492E+00 2.186E+06 3.805E+07 8.320E+07 1.234E+08 1.234E+08 2.009E+07 42.8790 1.00000
  7.943E+13 7.943E+13 4.514E+00 2.452E+06 4.270E+07 9.556E+07 1.407E+08 1.407E+08 2.016E+07 43.1093 1.00000
  8.913E+13 8.913E+13 4.536E+00 2.751E+06 4.790E+07 1.098E+08 1.604E+08 1.604E+08 2.022E+07 43.3396 1.00000
