 Incident particle is a Tau with M = 1776.82000 MeV
 Index = 0: BismuthGermanate
      Absorber with <Z/A> = 0.42061
 Sternheimer coef:  a     k=m_s   x_0    x_1    I[eV]   Cbar  delta0
                 0.0957  3.0781  0.0456  3.7816  534.1  5.7409 0.00

 *** Table generated with PUMAS v1.00 ***

      T         p     Ionization  brems     pair     photonuc  Radloss    dE/dx   CSDA Range  delta   beta
    [MeV]    [MeV/c]  -----------------------[MeV cm^2/g]------------------------  [g/cm^2]
  1.000E+05 1.018E+05 1.695E+00 8.212E-04 1.449E-02 7.706E-03 2.302E-02 1.718E+00 2.910E+04  3.1927 0.99985
  1.122E+05 1.140E+05 1.714E+00 9.521E-04 1.735E-02 8.660E-03 2.696E-02 1.741E+00 3.615E+04  3.3581 0.99988
  1.259E+05 1.277E+05 1.733E+00 1.103E-03 2.071E-02 9.681E-03 3.150E-02 1.765E+00 4.396E+04  3.5269 0.99990
  1.413E+05 1.430E+05 1.752E+00 1.278E-03 2.466E-02 1.083E-02 3.677E-02 1.789E+00 5.261E+04  3.6989 0.99992
  1.585E+05 1.603E+05 1.771E+00 1.479E-03 2.929E-02 1.210E-02 4.287E-02 1.813E+00 6.218E+04  3.8742 0.99994
  1.778E+05 1.796E+05 1.789E+00 1.711E-03 3.470E-02 1.351E-02 4.992E-02 1.839E+00 7.276E+04  4.0525 0.99995
  1.995E+05 2.013E+05 1.807E+00 1.978E-03 4.101E-02 1.512E-02 5.811E-02 1.865E+00 8.448E+04  4.2338 0.99996
  2.239E+05 2.256E+05 1.825E+00 2.285E-03 4.836E-02 1.687E-02 6.751E-02 1.893E+00 9.744E+04  4.4180 0.99997
  2.512E+05 2.530E+05 1.843E+00 2.639E-03 5.690E-02 1.882E-02 7.836E-02 1.922E+00 1.118E+05  4.6050 0.99998
  2.818E+05 2.836E+05 1.861E+00 3.046E-03 6.680E-02 2.101E-02 9.085E-02 1.952E+00 1.276E+05  4.7947 0.99998
  3.162E+05 3.180E+05 1.879E+00 3.513E-03 7.827E-02 2.348E-02 1.053E-01 1.984E+00 1.451E+05  4.9870 0.99998
  3.548E+05 3.566E+05 1.896E+00 4.050E-03 9.152E-02 2.623E-02 1.218E-01 2.018E+00 1.643E+05  5.1819 0.99999
  3.981E+05 3.999E+05 1.914E+00 4.666E-03 1.068E-01 2.930E-02 1.408E-01 2.055E+00 1.856E+05  5.3791 0.99999
  4.467E+05 4.485E+05 1.931E+00 5.373E-03 1.244E-01 3.272E-02 1.625E-01 2.094E+00 2.090E+05  5.5787 0.99999
  5.012E+05 5.030E+05 1.948E+00 6.185E-03 1.447E-01 3.656E-02 1.875E-01 2.135E+00 2.348E+05  5.7805 0.99999
  5.623E+05 5.641E+05 1.965E+00 7.115E-03 1.680E-01 4.070E-02 2.159E-01 2.181E+00 2.631E+05  5.9845 1.00000
  6.310E+05 6.327E+05 1.982E+00 8.181E-03 1.948E-01 4.536E-02 2.483E-01 2.230E+00 2.943E+05  6.1905 1.00000
  7.079E+05 7.097E+05 1.998E+00 9.401E-03 2.255E-01 5.060E-02 2.855E-01 2.283E+00 3.284E+05  6.3985 1.00000
  7.943E+05 7.961E+05 2.014E+00 1.080E-02 2.606E-01 5.651E-02 3.279E-01 2.342E+00 3.657E+05  6.6084 1.00000
  8.913E+05 8.930E+05 2.031E+00 1.240E-02 3.007E-01 6.317E-02 3.763E-01 2.407E+00 4.066E+05  6.8201 1.00000
  1.000E+06 1.002E+06 2.047E+00 1.423E-02 3.465E-01 7.068E-02 4.314E-01 2.478E+00 4.511E+05  7.0335 1.00000
  1.122E+06 1.124E+06 2.062E+00 1.632E-02 3.988E-01 7.918E-02 4.943E-01 2.557E+00 4.996E+05  7.2485 1.00000
  1.259E+06 1.261E+06 2.078E+00 1.871E-02 4.584E-01 8.878E-02 5.659E-01 2.644E+00 5.522E+05  7.4650 1.00000
  1.413E+06 1.414E+06 2.093E+00 2.145E-02 5.262E-01 9.965E-02 6.473E-01 2.741E+00 6.093E+05  7.6830 1.00000
  1.585E+06 1.587E+06 2.109E+00 2.457E-02 6.034E-01 1.120E-01 7.399E-01 2.849E+00 6.710E+05  7.9023 1.00000
  1.778E+06 1.780E+06 2.124E+00 2.814E-02 6.911E-01 1.259E-01 8.451E-01 2.969E+00 7.375E+05  8.1229 1.00000
  1.995E+06 1.997E+06 2.139E+00 3.220E-02 7.906E-01 1.417E-01 9.645E-01 3.103E+00 8.090E+05  8.3447 1.00000
  2.239E+06 2.240E+06 2.153E+00 3.685E-02 9.035E-01 1.596E-01 1.100E+00 3.253E+00 8.857E+05  8.5677 1.00000
  2.512E+06 2.514E+06 2.168E+00 4.214E-02 1.032E+00 1.800E-01 1.254E+00 3.422E+00 9.676E+05  8.7916 1.00000
  2.818E+06 2.820E+06 2.182E+00 4.818E-02 1.176E+00 2.031E-01 1.428E+00 3.610E+00 1.055E+06  9.0165 1.00000
  3.162E+06 3.164E+06 2.196E+00 5.506E-02 1.341E+00 2.294E-01 1.625E+00 3.821E+00 1.147E+06  9.2423 1.00000
  3.548E+06 3.550E+06 2.210E+00 6.290E-02 1.526E+00 2.593E-01 1.848E+00 4.059E+00 1.245E+06  9.4689 1.00000
  3.981E+06 3.983E+06 2.224E+00 7.184E-02 1.736E+00 2.932E-01 2.101E+00 4.325E+00 1.349E+06  9.6961 1.00000
  4.467E+06 4.469E+06 2.238E+00 8.201E-02 1.973E+00 3.319E-01 2.387E+00 4.625E+00 1.458E+06  9.9240 1.00000
  5.012E+06 5.014E+06 2.251E+00 9.358E-02 2.241E+00 3.758E-01 2.710E+00 4.962E+00 1.571E+06 10.1525 1.00000
  5.623E+06 5.625E+06 2.265E+00 1.068E-01 2.543E+00 4.258E-01 3.075E+00 5.340E+00 1.690E+06 10.3814 1.00000
  6.310E+06 6.311E+06 2.278E+00 1.217E-01 2.884E+00 4.828E-01 3.488E+00 5.766E+00 1.814E+06 10.6107 1.00000
  7.079E+06 7.081E+06 2.291E+00 1.388E-01 3.268E+00 5.477E-01 3.954E+00 6.245E+00 1.942E+06 10.8404 1.00000
  7.943E+06 7.945E+06 2.304E+00 1.581E-01 3.701E+00 6.216E-01 4.481E+00 6.784E+00 2.075E+06 11.0702 1.00000
  8.913E+06 8.914E+06 2.316E+00 1.801E-01 4.189E+00 7.057E-01 5.075E+00 7.391E+00 2.212E+06 11.3003 1.00000
  1.000E+07 1.000E+07 2.329E+00 2.051E-01 4.739E+00 8.017E-01 5.745E+00 8.074E+00 2.353E+06 11.5305 1.00000
  1.122E+07 1.122E+07 2.341E+00 2.335E-01 5.357E+00 9.110E-01 6.502E+00 8.843E+00 2.498E+06 11.7607 1.00000
  1.259E+07 1.259E+07 2.354E+00 2.657E-01 6.054E+00 1.036E+00 7.355E+00 9.709E+00 2.646E+06 11.9909 1.00000
  1.413E+07 1.413E+07 2.366E+00 3.023E-01 6.838E+00 1.178E+00 8.318E+00 1.068E+01 2.797E+06 12.2212 1.00000
  1.585E+07 1.585E+07 2.378E+00 3.438E-01 7.720E+00 1.340E+00 9.403E+00 1.178E+01 2.950E+06 12.4514 1.00000
  1.778E+07 1.778E+07 2.390E+00 3.908E-01 8.711E+00 1.525E+00 1.063E+01 1.302E+01 3.107E+06 12.6816 1.00000
  1.995E+07 1.995E+07 2.402E+00 4.442E-01 9.827E+00 1.735E+00 1.201E+01 1.441E+01 3.265E+06 12.9119 1.00000
  2.239E+07 2.239E+07 2.414E+00 5.046E-01 1.108E+01 1.976E+00 1.356E+01 1.598E+01 3.426E+06 13.1421 1.00000
  2.512E+07 2.512E+07 2.426E+00 5.731E-01 1.249E+01 2.250E+00 1.531E+01 1.774E+01 3.589E+06 13.3723 1.00000
  2.818E+07 2.819E+07 2.438E+00 6.506E-01 1.407E+01 2.563E+00 1.729E+01 1.973E+01 3.753E+06 13.6026 1.00000
  3.162E+07 3.162E+07 2.450E+00 7.385E-01 1.585E+01 2.920E+00 1.951E+01 2.196E+01 3.918E+06 13.8328 1.00000
  3.548E+07 3.548E+07 2.461E+00 8.379E-01 1.785E+01 3.328E+00 2.202E+01 2.448E+01 4.085E+06 14.0631 1.00000
  3.981E+07 3.981E+07 2.473E+00 9.503E-01 2.010E+01 3.793E+00 2.484E+01 2.732E+01 4.252E+06 14.2933 1.00000
  4.467E+07 4.467E+07 2.485E+00 1.078E+00 2.262E+01 4.324E+00 2.803E+01 3.051E+01 4.421E+06 14.5236 1.00000
  5.012E+07 5.012E+07 2.497E+00 1.221E+00 2.546E+01 4.929E+00 3.161E+01 3.411E+01 4.590E+06 14.7538 1.00000
  5.623E+07 5.624E+07 2.508E+00 1.384E+00 2.864E+01 5.621E+00 3.565E+01 3.816E+01 4.760E+06 14.9841 1.00000
  6.310E+07 6.310E+07 2.520E+00 1.568E+00 3.222E+01 6.411E+00 4.020E+01 4.272E+01 4.930E+06 15.2143 1.00000
  7.079E+07 7.080E+07 2.532E+00 1.776E+00 3.623E+01 7.312E+00 4.532E+01 4.785E+01 5.101E+06 15.4446 1.00000
  7.943E+07 7.943E+07 2.543E+00 2.010E+00 4.074E+01 8.342E+00 5.109E+01 5.363E+01 5.272E+06 15.6748 1.00000
  8.913E+07 8.913E+07 2.555E+00 2.275E+00 4.580E+01 9.517E+00 5.759E+01 6.014E+01 5.442E+06 15.9051 1.00000
  1.000E+08 1.000E+08 2.567E+00 2.574E+00 5.148E+01 1.086E+01 6.491E+01 6.748E+01 5.613E+06 16.1353 1.00000
  1.122E+08 1.122E+08 2.578E+00 2.911E+00 5.785E+01 1.239E+01 7.316E+01 7.574E+01 5.784E+06 16.3656 1.00000
  1.259E+08 1.259E+08 2.590E+00 3.292E+00 6.501E+01 1.414E+01 8.245E+01 8.504E+01 5.955E+06 16.5958 1.00000
  1.413E+08 1.413E+08 2.602E+00 3.721E+00 7.305E+01 1.614E+01 9.291E+01 9.551E+01 6.126E+06 16.8261 1.00000
  1.585E+08 1.585E+08 2.614E+00 4.205E+00 8.207E+01 1.843E+01 1.047E+02 1.073E+02 6.297E+06 17.0564 1.00000
  1.778E+08 1.778E+08 2.626E+00 4.750E+00 9.219E+01 2.104E+01 1.180E+02 1.206E+02 6.467E+06 17.2866 1.00000
  1.995E+08 1.995E+08 2.638E+00 5.365E+00 1.035E+02 2.402E+01 1.329E+02 1.356E+02 6.637E+06 17.5169 1.00000
  2.239E+08 2.239E+08 2.650E+00 6.057E+00 1.163E+02 2.742E+01 1.498E+02 1.524E+02 6.806E+06 17.7471 1.00000
  2.512E+08 2.512E+08 2.662E+00 6.838E+00 1.306E+02 3.131E+01 1.688E+02 1.714E+02 6.976E+06 17.9774 1.00000
  2.818E+08 2.818E+08 2.674E+00 7.716E+00 1.467E+02 3.576E+01 1.901E+02 1.928E+02 7.145E+06 18.2076 1.00000
  3.162E+08 3.162E+08 2.686E+00 8.705E+00 1.647E+02 4.083E+01 2.142E+02 2.169E+02 7.313E+06 18.4379 1.00000
  3.548E+08 3.548E+08 2.698E+00 9.819E+00 1.849E+02 4.664E+01 2.414E+02 2.441E+02 7.481E+06 18.6682 1.00000
  3.981E+08 3.981E+08 2.711E+00 1.107E+01 2.076E+02 5.327E+01 2.720E+02 2.747E+02 7.649E+06 18.8984 1.00000
  4.467E+08 4.467E+08 2.723E+00 1.248E+01 2.331E+02 6.085E+01 3.064E+02 3.091E+02 7.816E+06 19.1287 1.00000
  5.012E+08 5.012E+08 2.735E+00 1.407E+01 2.617E+02 6.951E+01 3.452E+02 3.480E+02 7.982E+06 19.3589 1.00000
  5.623E+08 5.623E+08 2.748E+00 1.585E+01 2.937E+02 7.940E+01 3.890E+02 3.917E+02 8.148E+06 19.5892 1.00000
  6.310E+08 6.310E+08 2.760E+00 1.786E+01 3.297E+02 9.072E+01 4.383E+02 4.411E+02 8.313E+06 19.8194 1.00000
  7.079E+08 7.079E+08 2.773E+00 2.012E+01 3.701E+02 1.036E+02 4.939E+02 4.966E+02 8.478E+06 20.0497 1.00000
  7.943E+08 7.943E+08 2.785E+00 2.265E+01 4.154E+02 1.184E+02 5.565E+02 5.593E+02 8.642E+06 20.2800 1.00000
  8.913E+08 8.913E+08 2.798E+00 2.551E+01 4.663E+02 1.353E+02 6.271E+02 6.299E+02 8.806E+06 20.5102 1.00000
  1.000E+09 1.000E+09 2.811E+00 2.871E+01 5.233E+02 1.546E+02 7.067E+02 7.095E+02 8.969E+06 20.7405 1.00000
  1.122E+09 1.122E+09 2.824E+00 3.231E+01 5.873E+02 1.767E+02 7.964E+02 7.992E+02 9.131E+06 20.9707 1.00000
  1.259E+09 1.259E+09 2.836E+00 3.636E+01 6.592E+02 2.020E+02 8.975E+02 9.003E+02 9.293E+06 21.2010 1.00000
  1.413E+09 1.413E+09 2.849E+00 4.091E+01 7.398E+02 2.309E+02 1.012E+03 1.014E+03 9.454E+06 21.4312 1.00000
  1.585E+09 1.585E+09 2.862E+00 4.602E+01 8.302E+02 2.639E+02 1.140E+03 1.143E+03 9.614E+06 21.6615 1.00000
  1.778E+09 1.778E+09 2.876E+00 5.176E+01 9.317E+02 3.016E+02 1.285E+03 1.288E+03 9.774E+06 21.8918 1.00000
  1.995E+09 1.995E+09 2.889E+00 5.821E+01 1.046E+03 3.448E+02 1.449E+03 1.451E+03 9.933E+06 22.1220 1.00000
  2.239E+09 2.239E+09 2.902E+00 6.545E+01 1.173E+03 3.942E+02 1.633E+03 1.636E+03 1.009E+07 22.3523 1.00000
  2.512E+09 2.512E+09 2.915E+00 7.358E+01 1.317E+03 4.506E+02 1.841E+03 1.844E+03 1.025E+07 22.5825 1.00000
  2.818E+09 2.818E+09 2.929E+00 8.271E+01 1.477E+03 5.152E+02 2.075E+03 2.078E+03 1.041E+07 22.8128 1.00000
  3.162E+09 3.162E+09 2.942E+00 9.297E+01 1.658E+03 5.891E+02 2.340E+03 2.343E+03 1.056E+07 23.0431 1.00000
  3.548E+09 3.548E+09 2.956E+00 1.045E+02 1.860E+03 6.736E+02 2.638E+03 2.641E+03 1.072E+07 23.2733 1.00000
  3.981E+09 3.981E+09 2.969E+00 1.174E+02 2.088E+03 7.702E+02 2.975E+03 2.978E+03 1.087E+07 23.5036 1.00000
  4.467E+09 4.467E+09 2.983E+00 1.319E+02 2.342E+03 8.808E+02 3.355E+03 3.358E+03 1.103E+07 23.7338 1.00000
  5.012E+09 5.012E+09 2.997E+00 1.482E+02 2.628E+03 1.007E+03 3.784E+03 3.787E+03 1.118E+07 23.9641 1.00000
  5.623E+09 5.623E+09 3.011E+00 1.665E+02 2.949E+03 1.152E+03 4.268E+03 4.271E+03 1.133E+07 24.1943 1.00000
  6.310E+09 6.310E+09 3.025E+00 1.870E+02 3.309E+03 1.318E+03 4.814E+03 4.817E+03 1.148E+07 24.4246 1.00000
  7.079E+09 7.079E+09 3.039E+00 2.101E+02 3.713E+03 1.507E+03 5.431E+03 5.434E+03 1.163E+07 24.6549 1.00000
  7.943E+09 7.943E+09 3.053E+00 2.359E+02 4.167E+03 1.724E+03 6.127E+03 6.130E+03 1.178E+07 24.8851 1.00000
  8.913E+09 8.913E+09 3.067E+00 2.650E+02 4.675E+03 1.972E+03 6.912E+03 6.915E+03 1.193E+07 25.1154 1.00000
  1.000E+10 1.000E+10 3.081E+00 2.975E+02 5.246E+03 2.256E+03 7.800E+03 7.803E+03 1.208E+07 25.3456 1.00000
  1.122E+10 1.122E+10 3.095E+00 3.341E+02 5.886E+03 2.581E+03 8.801E+03 8.804E+03 1.223E+07 25.5759 1.00000
  1.259E+10 1.259E+10 3.110E+00 3.752E+02 6.604E+03 2.953E+03 9.933E+03 9.936E+03 1.237E+07 25.8062 1.00000
  1.413E+10 1.413E+10 3.124E+00 4.212E+02 7.410E+03 3.379E+03 1.121E+04 1.121E+04 1.252E+07 26.0364 1.00000
  1.585E+10 1.585E+10 3.139E+00 4.729E+02 8.315E+03 3.866E+03 1.265E+04 1.266E+04 1.267E+07 26.2667 1.00000
  1.778E+10 1.778E+10 3.153E+00 5.309E+02 9.329E+03 4.424E+03 1.428E+04 1.429E+04 1.281E+07 26.4969 1.00000
  1.995E+10 1.995E+10 3.168E+00 5.960E+02 1.047E+04 5.062E+03 1.613E+04 1.613E+04 1.295E+07 26.7272 1.00000
  2.239E+10 2.239E+10 3.183E+00 6.691E+02 1.175E+04 5.794E+03 1.821E+04 1.821E+04 1.310E+07 26.9575 1.00000
  2.512E+10 2.512E+10 3.198E+00 7.510E+02 1.318E+04 6.630E+03 2.056E+04 2.056E+04 1.324E+07 27.1877 1.00000
  2.818E+10 2.818E+10 3.213E+00 8.430E+02 1.479E+04 7.589E+03 2.322E+04 2.322E+04 1.338E+07 27.4180 1.00000
  3.162E+10 3.162E+10 3.228E+00 9.462E+02 1.659E+04 8.686E+03 2.622E+04 2.623E+04 1.352E+07 27.6482 1.00000
  3.548E+10 3.548E+10 3.243E+00 1.062E+03 1.861E+04 9.942E+03 2.962E+04 2.962E+04 1.366E+07 27.8785 1.00000
  3.981E+10 3.981E+10 3.258E+00 1.192E+03 2.089E+04 1.138E+04 3.346E+04 3.346E+04 1.379E+07 28.1087 1.00000
  4.467E+10 4.467E+10 3.274E+00 1.338E+03 2.343E+04 1.303E+04 3.780E+04 3.780E+04 1.393E+07 28.3390 1.00000
  5.012E+10 5.012E+10 3.289E+00 1.502E+03 2.629E+04 1.492E+04 4.271E+04 4.271E+04 1.407E+07 28.5693 1.00000
  5.623E+10 5.623E+10 3.304E+00 1.685E+03 2.950E+04 1.708E+04 4.826E+04 4.827E+04 1.420E+07 28.7995 1.00000
  6.310E+10 6.310E+10 3.320E+00 1.891E+03 3.310E+04 1.955E+04 5.454E+04 5.455E+04 1.433E+07 29.0298 1.00000
  7.079E+10 7.079E+10 3.336E+00 2.122E+03 3.714E+04 2.239E+04 6.165E+04 6.165E+04 1.447E+07 29.2600 1.00000
  7.943E+10 7.943E+10 3.351E+00 2.382E+03 4.167E+04 2.563E+04 6.968E+04 6.969E+04 1.460E+07 29.4903 1.00000
  8.913E+10 8.913E+10 3.367E+00 2.673E+03 4.675E+04 2.935E+04 7.878E+04 7.878E+04 1.473E+07 29.7206 1.00000
  1.000E+11 1.000E+11 3.383E+00 3.000E+03 5.246E+04 3.362E+04 8.907E+04 8.907E+04 1.486E+07 29.9508 1.00000
  1.122E+11 1.122E+11 3.399E+00 3.366E+03 5.885E+04 3.850E+04 1.007E+05 1.007E+05 1.499E+07 30.1811 1.00000
  1.259E+11 1.259E+11 3.415E+00 3.777E+03 6.603E+04 4.409E+04 1.139E+05 1.139E+05 1.512E+07 30.4113 1.00000
  1.413E+11 1.413E+11 3.432E+00 4.239E+03 7.409E+04 5.050E+04 1.288E+05 1.288E+05 1.525E+07 30.6416 1.00000
  1.585E+11 1.585E+11 3.448E+00 4.756E+03 8.313E+04 5.785E+04 1.457E+05 1.457E+05 1.537E+07 30.8718 1.00000
  1.778E+11 1.778E+11 3.464E+00 5.337E+03 9.327E+04 6.626E+04 1.649E+05 1.649E+05 1.550E+07 31.1021 1.00000
  1.995E+11 1.995E+11 3.481E+00 5.989E+03 1.046E+05 7.591E+04 1.865E+05 1.865E+05 1.562E+07 31.3324 1.00000
  2.239E+11 2.239E+11 3.497E+00 6.720E+03 1.174E+05 8.696E+04 2.111E+05 2.111E+05 1.574E+07 31.5626 1.00000
  2.512E+11 2.512E+11 3.514E+00 7.541E+03 1.317E+05 9.963E+04 2.389E+05 2.389E+05 1.587E+07 31.7929 1.00000
  2.818E+11 2.818E+11 3.531E+00 8.461E+03 1.478E+05 1.141E+05 2.704E+05 2.704E+05 1.599E+07 32.0231 1.00000
  3.162E+11 3.162E+11 3.548E+00 9.494E+03 1.658E+05 1.308E+05 3.061E+05 3.061E+05 1.611E+07 32.2534 1.00000
  3.548E+11 3.548E+11 3.565E+00 1.065E+04 1.861E+05 1.499E+05 3.466E+05 3.466E+05 1.622E+07 32.4837 1.00000
  3.981E+11 3.981E+11 3.582E+00 1.195E+04 2.088E+05 1.717E+05 3.924E+05 3.924E+05 1.634E+07 32.7139 1.00000
  4.467E+11 4.467E+11 3.599E+00 1.341E+04 2.342E+05 1.968E+05 4.444E+05 4.444E+05 1.646E+07 32.9442 1.00000
  5.012E+11 5.012E+11 3.616E+00 1.505E+04 2.628E+05 2.255E+05 5.034E+05 5.034E+05 1.657E+07 33.1744 1.00000
  5.623E+11 5.623E+11 3.633E+00 1.689E+04 2.949E+05 2.585E+05 5.702E+05 5.702E+05 1.669E+07 33.4047 1.00000
  6.310E+11 6.310E+11 3.651E+00 1.895E+04 3.308E+05 2.962E+05 6.460E+05 6.460E+05 1.680E+07 33.6349 1.00000
  7.079E+11 7.079E+11 3.668E+00 2.126E+04 3.712E+05 3.395E+05 7.320E+05 7.320E+05 1.691E+07 33.8652 1.00000
  7.943E+11 7.943E+11 3.686E+00 2.386E+04 4.164E+05 3.892E+05 8.295E+05 8.295E+05 1.702E+07 34.0955 1.00000
  8.913E+11 8.913E+11 3.704E+00 2.677E+04 4.672E+05 4.461E+05 9.401E+05 9.402E+05 1.713E+07 34.3257 1.00000
  1.000E+12 1.000E+12 3.722E+00 3.003E+04 5.242E+05 5.114E+05 1.066E+06 1.066E+06 1.724E+07 34.5560 1.00000
  1.122E+12 1.122E+12 3.739E+00 3.370E+04 5.882E+05 5.863E+05 1.208E+06 1.208E+06 1.735E+07 34.7862 1.00000
  1.259E+12 1.259E+12 3.757E+00 3.781E+04 6.599E+05 6.722E+05 1.370E+06 1.370E+06 1.746E+07 35.0165 1.00000
  1.413E+12 1.413E+12 3.776E+00 4.243E+04 7.404E+05 7.707E+05 1.554E+06 1.554E+06 1.756E+07 35.2468 1.00000
  1.585E+12 1.585E+12 3.794E+00 4.760E+04 8.307E+05 8.837E+05 1.762E+06 1.762E+06 1.767E+07 35.4770 1.00000
  1.778E+12 1.778E+12 3.812E+00 5.341E+04 9.321E+05 1.013E+06 1.999E+06 1.999E+06 1.777E+07 35.7073 1.00000
  1.995E+12 1.995E+12 3.831E+00 5.993E+04 1.046E+06 1.162E+06 2.268E+06 2.268E+06 1.787E+07 35.9375 1.00000
  2.239E+12 2.239E+12 3.849E+00 6.724E+04 1.173E+06 1.333E+06 2.573E+06 2.573E+06 1.797E+07 36.1678 1.00000
  2.512E+12 2.512E+12 3.868E+00 7.545E+04 1.316E+06 1.528E+06 2.920E+06 2.920E+06 1.807E+07 36.3980 1.00000
  2.818E+12 2.818E+12 3.886E+00 8.466E+04 1.477E+06 1.753E+06 3.314E+06 3.314E+06 1.817E+07 36.6283 1.00000
  3.162E+12 3.162E+12 3.905E+00 9.499E+04 1.657E+06 2.010E+06 3.762E+06 3.762E+06 1.827E+07 36.8586 1.00000
  3.548E+12 3.548E+12 3.924E+00 1.066E+05 1.859E+06 2.306E+06 4.272E+06 4.272E+06 1.837E+07 37.0888 1.00000
  3.981E+12 3.981E+12 3.943E+00 1.196E+05 2.086E+06 2.645E+06 4.850E+06 4.850E+06 1.846E+07 37.3191 1.00000
  4.467E+12 4.467E+12 3.962E+00 1.342E+05 2.340E+06 3.034E+06 5.509E+06 5.509E+06 1.856E+07 37.5493 1.00000
  5.012E+12 5.012E+12 3.982E+00 1.505E+05 2.626E+06 3.481E+06 6.257E+06 6.257E+06 1.865E+07 37.7796 1.00000
  5.623E+12 5.623E+12 4.001E+00 1.689E+05 2.946E+06 3.993E+06 7.108E+06 7.108E+06 1.874E+07 38.0099 1.00000
  6.310E+12 6.310E+12 4.020E+00 1.895E+05 3.305E+06 4.581E+06 8.076E+06 8.076E+06 1.883E+07 38.2401 1.00000
  7.079E+12 7.079E+12 4.040E+00 2.127E+05 3.709E+06 5.256E+06 9.177E+06 9.177E+06 1.892E+07 38.4704 1.00000
  7.943E+12 7.943E+12 4.060E+00 2.386E+05 4.161E+06 6.031E+06 1.043E+07 1.043E+07 1.901E+07 38.7006 1.00000
  8.913E+12 8.913E+12 4.079E+00 2.677E+05 4.668E+06 6.920E+06 1.186E+07 1.186E+07 1.910E+07 38.9309 1.00000
  1.000E+13 1.000E+13 4.099E+00 3.004E+05 5.238E+06 7.941E+06 1.348E+07 1.348E+07 1.918E+07 39.1612 1.00000
  1.122E+13 1.122E+13 4.119E+00 3.370E+05 5.877E+06 9.113E+06 1.533E+07 1.533E+07 1.927E+07 39.3914 1.00000
  1.259E+13 1.259E+13 4.139E+00 3.782E+05 6.593E+06 1.046E+07 1.743E+07 1.743E+07 1.935E+07 39.6217 1.00000
  1.413E+13 1.413E+13 4.160E+00 4.243E+05 7.398E+06 1.200E+07 1.982E+07 1.982E+07 1.944E+07 39.8519 1.00000
  1.585E+13 1.585E+13 4.180E+00 4.761E+05 8.300E+06 1.378E+07 2.255E+07 2.255E+07 1.952E+07 40.0822 1.00000
  1.778E+13 1.778E+13 4.200E+00 5.342E+05 9.312E+06 1.581E+07 2.566E+07 2.566E+07 1.960E+07 40.3124 1.00000
  1.995E+13 1.995E+13 4.221E+00 5.994E+05 1.045E+07 1.815E+07 2.920E+07 2.920E+07 1.968E+07 40.5427 1.00000
  2.239E+13 2.239E+13 4.242E+00 6.725E+05 1.172E+07 2.084E+07 3.323E+07 3.323E+07 1.976E+07 40.7730 1.00000
  2.512E+13 2.512E+13 4.262E+00 7.546E+05 1.315E+07 2.392E+07 3.782E+07 3.782E+07 1.983E+07 41.0032 1.00000
  2.818E+13 2.818E+13 4.283E+00 8.466E+05 1.476E+07 2.746E+07 4.306E+07 4.306E+07 1.991E+07 41.2335 1.00000
  3.162E+13 3.162E+13 4.304E+00 9.499E+05 1.655E+07 3.152E+07 4.903E+07 4.903E+07 1.998E+07 41.4637 1.00000
  3.548E+13 3.548E+13 4.325E+00 1.066E+06 1.857E+07 3.619E+07 5.583E+07 5.583E+07 2.006E+07 41.6940 1.00000
  3.981E+13 3.981E+13 4.347E+00 1.196E+06 2.084E+07 4.156E+07 6.359E+07 6.359E+07 2.013E+07 41.9243 1.00000
  4.467E+13 4.467E+13 4.368E+00 1.342E+06 2.338E+07 4.772E+07 7.244E+07 7.244E+07 2.020E+07 42.1545 1.00000
  5.012E+13 5.012E+13 4.389E+00 1.506E+06 2.623E+07 5.479E+07 8.253E+07 8.253E+07 2.027E+07 42.3848 1.00000
  5.623E+13 5.623E+13 4.411E+00 1.689E+06 2.943E+07 6.292E+07 9.404E+07 9.404E+07 2.034E+07 42.6150 1.00000
  6.310E+13 6.310E+13 4.433E+00 1.895E+06 3.302E+07 7.226E+07 1.072E+08 1.072E+08 2.041E+07 42.8453 1.00000
  7.079E+13 7.079E+13 4.454E+00 2.127E+06 3.705E+07 8.298E+07 1.222E+08 1.222E+08 2.048E+07 43.0755 1.00000
  7.943E+13 7.943E+13 4.476E+00 2.386E+06 4.157E+07 9.531E+07 1.393E+08 1.393E+08 2.054E+07 43.3058 1.00000
  8.913E+13 8.913E+13 4.498E+00 2.677E+06 4.663E+07 1.095E+08 1.588E+08 1.588E+08 2.061E+07 43.5361 1.00000
