 Incident particle is a Tau with M = 1776.82000 MeV
 Index = 0: Bohrium
      Absorber with <Z/A> = 0.39610
 Sternheimer coef:  a     k=m_s   x_0    x_1    I[eV]   Cbar  delta0
                 0.2739  3.0000  0.6345  3.0000 1087.0  6.5475 0.00

 *** Table generated with PUMAS v1.00 ***

      T         p     Ionization  brems     pair     photonuc  Radloss    dE/dx   CSDA Range  delta   beta
    [MeV]    [MeV/c]  -----------------------[MeV cm^2/g]------------------------  [g/cm^2]
  1.000E+05 1.018E+05 1.578E+00 1.333E-03 2.417E-02 7.479E-03 3.298E-02 1.611E+00 3.103E+04  2.0729 0.99985
  1.122E+05 1.140E+05 1.596E+00 1.547E-03 2.892E-02 8.388E-03 3.886E-02 1.635E+00 3.855E+04  2.2395 0.99988
  1.259E+05 1.277E+05 1.614E+00 1.793E-03 3.451E-02 9.359E-03 4.566E-02 1.659E+00 4.686E+04  2.4112 0.99990
  1.413E+05 1.430E+05 1.631E+00 2.078E-03 4.107E-02 1.044E-02 5.359E-02 1.685E+00 5.605E+04  2.5877 0.99992
  1.585E+05 1.603E+05 1.648E+00 2.407E-03 4.874E-02 1.165E-02 6.280E-02 1.711E+00 6.620E+04  2.7688 0.99994
  1.778E+05 1.796E+05 1.665E+00 2.786E-03 5.771E-02 1.299E-02 7.349E-02 1.739E+00 7.741E+04  2.9544 0.99995
  1.995E+05 2.013E+05 1.682E+00 3.223E-03 6.817E-02 1.451E-02 8.590E-02 1.768E+00 8.979E+04  3.1441 0.99996
  2.239E+05 2.256E+05 1.698E+00 3.727E-03 8.034E-02 1.615E-02 1.002E-01 1.799E+00 1.034E+05  3.3379 0.99997
  2.512E+05 2.530E+05 1.715E+00 4.306E-03 9.447E-02 1.798E-02 1.168E-01 1.831E+00 1.185E+05  3.5355 0.99998
  2.818E+05 2.836E+05 1.731E+00 4.973E-03 1.108E-01 2.004E-02 1.359E-01 1.867E+00 1.351E+05  3.7367 0.99998
  3.162E+05 3.180E+05 1.747E+00 5.739E-03 1.298E-01 2.234E-02 1.579E-01 1.905E+00 1.533E+05  3.9412 0.99998
  3.548E+05 3.566E+05 1.762E+00 6.620E-03 1.517E-01 2.492E-02 1.832E-01 1.946E+00 1.734E+05  4.1489 0.99999
  3.981E+05 3.999E+05 1.778E+00 7.631E-03 1.769E-01 2.778E-02 2.124E-01 1.990E+00 1.954E+05  4.3596 0.99999
  4.467E+05 4.485E+05 1.793E+00 8.792E-03 2.060E-01 3.097E-02 2.458E-01 2.039E+00 2.195E+05  4.5730 0.99999
  5.012E+05 5.030E+05 1.808E+00 1.012E-02 2.395E-01 3.454E-02 2.841E-01 2.092E+00 2.459E+05  4.7890 0.99999
  5.623E+05 5.641E+05 1.823E+00 1.165E-02 2.779E-01 3.839E-02 3.279E-01 2.151E+00 2.747E+05  5.0073 1.00000
  6.310E+05 6.327E+05 1.838E+00 1.340E-02 3.219E-01 4.271E-02 3.780E-01 2.216E+00 3.061E+05  5.2276 1.00000
  7.079E+05 7.097E+05 1.853E+00 1.541E-02 3.723E-01 4.756E-02 4.353E-01 2.288E+00 3.403E+05  5.4499 1.00000
  7.943E+05 7.961E+05 1.867E+00 1.771E-02 4.300E-01 5.302E-02 5.007E-01 2.368E+00 3.774E+05  5.6739 1.00000
  8.913E+05 8.930E+05 1.882E+00 2.034E-02 4.959E-01 5.917E-02 5.754E-01 2.457E+00 4.176E+05  5.8994 1.00000
  1.000E+06 1.002E+06 1.896E+00 2.335E-02 5.711E-01 6.611E-02 6.606E-01 2.557E+00 4.610E+05  6.1261 1.00000
  1.122E+06 1.124E+06 1.910E+00 2.679E-02 6.568E-01 7.395E-02 7.576E-01 2.668E+00 5.077E+05  6.3539 1.00000
  1.259E+06 1.261E+06 1.924E+00 3.073E-02 7.545E-01 8.280E-02 8.680E-01 2.792E+00 5.579E+05  6.5826 1.00000
  1.413E+06 1.414E+06 1.938E+00 3.522E-02 8.655E-01 9.281E-02 9.936E-01 2.932E+00 6.116E+05  6.8119 1.00000
  1.585E+06 1.587E+06 1.952E+00 4.036E-02 9.918E-01 1.041E-01 1.136E+00 3.088E+00 6.689E+05  7.0417 1.00000
  1.778E+06 1.780E+06 1.965E+00 4.623E-02 1.135E+00 1.170E-01 1.298E+00 3.264E+00 7.299E+05  7.2716 1.00000
  1.995E+06 1.997E+06 1.979E+00 5.293E-02 1.298E+00 1.315E-01 1.482E+00 3.461E+00 7.945E+05  7.5017 1.00000
  2.239E+06 2.240E+06 1.992E+00 6.057E-02 1.482E+00 1.480E-01 1.691E+00 3.683E+00 8.627E+05  7.7318 1.00000
  2.512E+06 2.514E+06 2.006E+00 6.928E-02 1.691E+00 1.667E-01 1.927E+00 3.933E+00 9.345E+05  7.9618 1.00000
  2.818E+06 2.820E+06 2.019E+00 7.922E-02 1.927E+00 1.879E-01 2.195E+00 4.213E+00 1.010E+06  8.1919 1.00000
  3.162E+06 3.164E+06 2.032E+00 9.055E-02 2.195E+00 2.120E-01 2.497E+00 4.529E+00 1.089E+06  8.4221 1.00000
  3.548E+06 3.550E+06 2.045E+00 1.035E-01 2.497E+00 2.395E-01 2.840E+00 4.885E+00 1.171E+06  8.6522 1.00000
  3.981E+06 3.983E+06 2.058E+00 1.182E-01 2.839E+00 2.706E-01 3.228E+00 5.285E+00 1.256E+06  8.8824 1.00000
  4.467E+06 4.469E+06 2.070E+00 1.349E-01 3.225E+00 3.060E-01 3.666E+00 5.736E+00 1.344E+06  9.1125 1.00000
  5.012E+06 5.014E+06 2.083E+00 1.539E-01 3.660E+00 3.464E-01 4.160E+00 6.243E+00 1.435E+06  9.3427 1.00000
  5.623E+06 5.625E+06 2.095E+00 1.756E-01 4.151E+00 3.922E-01 4.719E+00 6.815E+00 1.529E+06  9.5729 1.00000
  6.310E+06 6.311E+06 2.108E+00 2.003E-01 4.705E+00 4.444E-01 5.350E+00 7.458E+00 1.626E+06  9.8031 1.00000
  7.079E+06 7.081E+06 2.120E+00 2.283E-01 5.330E+00 5.039E-01 6.062E+00 8.182E+00 1.724E+06 10.0333 1.00000
  7.943E+06 7.945E+06 2.132E+00 2.602E-01 6.033E+00 5.716E-01 6.865E+00 8.997E+00 1.825E+06 10.2635 1.00000
  8.913E+06 8.914E+06 2.144E+00 2.964E-01 6.825E+00 6.487E-01 7.770E+00 9.914E+00 1.928E+06 10.4937 1.00000
  1.000E+07 1.000E+07 2.156E+00 3.375E-01 7.717E+00 7.366E-01 8.792E+00 1.095E+01 2.032E+06 10.7239 1.00000
  1.122E+07 1.122E+07 2.168E+00 3.841E-01 8.722E+00 8.368E-01 9.943E+00 1.211E+01 2.138E+06 10.9541 1.00000
  1.259E+07 1.259E+07 2.179E+00 4.371E-01 9.852E+00 9.510E-01 1.124E+01 1.342E+01 2.246E+06 11.1843 1.00000
  1.413E+07 1.413E+07 2.191E+00 4.972E-01 1.112E+01 1.081E+00 1.270E+01 1.489E+01 2.355E+06 11.4146 1.00000
  1.585E+07 1.585E+07 2.202E+00 5.654E-01 1.255E+01 1.230E+00 1.435E+01 1.655E+01 2.465E+06 11.6448 1.00000
  1.778E+07 1.778E+07 2.214E+00 6.427E-01 1.416E+01 1.399E+00 1.620E+01 1.842E+01 2.576E+06 11.8750 1.00000
  1.995E+07 1.995E+07 2.225E+00 7.303E-01 1.597E+01 1.592E+00 1.829E+01 2.051E+01 2.687E+06 12.1053 1.00000
  2.239E+07 2.239E+07 2.236E+00 8.296E-01 1.800E+01 1.812E+00 2.064E+01 2.288E+01 2.800E+06 12.3355 1.00000
  2.512E+07 2.512E+07 2.247E+00 9.421E-01 2.028E+01 2.063E+00 2.329E+01 2.554E+01 2.913E+06 12.5657 1.00000
  2.818E+07 2.819E+07 2.258E+00 1.069E+00 2.285E+01 2.350E+00 2.627E+01 2.853E+01 3.027E+06 12.7960 1.00000
  3.162E+07 3.162E+07 2.270E+00 1.214E+00 2.573E+01 2.677E+00 2.962E+01 3.189E+01 3.141E+06 13.0262 1.00000
  3.548E+07 3.548E+07 2.281E+00 1.377E+00 2.897E+01 3.050E+00 3.340E+01 3.568E+01 3.256E+06 13.2565 1.00000
  3.981E+07 3.981E+07 2.292E+00 1.561E+00 3.261E+01 3.476E+00 3.765E+01 3.994E+01 3.371E+06 13.4867 1.00000
  4.467E+07 4.467E+07 2.303E+00 1.770E+00 3.670E+01 3.962E+00 4.243E+01 4.473E+01 3.486E+06 13.7170 1.00000
  5.012E+07 5.012E+07 2.314E+00 2.006E+00 4.129E+01 4.517E+00 4.781E+01 5.012E+01 3.601E+06 13.9472 1.00000
  5.623E+07 5.624E+07 2.325E+00 2.273E+00 4.644E+01 5.150E+00 5.386E+01 5.619E+01 3.716E+06 14.1775 1.00000
  6.310E+07 6.310E+07 2.336E+00 2.574E+00 5.223E+01 5.873E+00 6.067E+01 6.301E+01 3.832E+06 14.4077 1.00000
  7.079E+07 7.080E+07 2.347E+00 2.914E+00 5.872E+01 6.698E+00 6.833E+01 7.068E+01 3.947E+06 14.6380 1.00000
  7.943E+07 7.943E+07 2.358E+00 3.298E+00 6.602E+01 7.641E+00 7.696E+01 7.931E+01 4.063E+06 14.8682 1.00000
  8.913E+07 8.913E+07 2.369E+00 3.732E+00 7.421E+01 8.717E+00 8.665E+01 8.902E+01 4.179E+06 15.0985 1.00000
  1.000E+08 1.000E+08 2.380E+00 4.221E+00 8.340E+01 9.946E+00 9.757E+01 9.995E+01 4.294E+06 15.3287 1.00000
  1.122E+08 1.122E+08 2.391E+00 4.773E+00 9.372E+01 1.135E+01 1.098E+02 1.122E+02 4.409E+06 15.5590 1.00000
  1.259E+08 1.259E+08 2.402E+00 5.396E+00 1.053E+02 1.295E+01 1.236E+02 1.261E+02 4.525E+06 15.7892 1.00000
  1.413E+08 1.413E+08 2.413E+00 6.098E+00 1.183E+02 1.478E+01 1.392E+02 1.416E+02 4.640E+06 16.0195 1.00000
  1.585E+08 1.585E+08 2.424E+00 6.889E+00 1.329E+02 1.687E+01 1.567E+02 1.591E+02 4.755E+06 16.2498 1.00000
  1.778E+08 1.778E+08 2.435E+00 7.781E+00 1.493E+02 1.926E+01 1.763E+02 1.788E+02 4.870E+06 16.4800 1.00000
  1.995E+08 1.995E+08 2.447E+00 8.785E+00 1.677E+02 2.199E+01 1.984E+02 2.009E+02 4.985E+06 16.7103 1.00000
  2.239E+08 2.239E+08 2.458E+00 9.917E+00 1.883E+02 2.511E+01 2.233E+02 2.258E+02 5.099E+06 16.9405 1.00000
  2.512E+08 2.512E+08 2.469E+00 1.119E+01 2.114E+02 2.867E+01 2.513E+02 2.538E+02 5.213E+06 17.1708 1.00000
  2.818E+08 2.818E+08 2.481E+00 1.263E+01 2.374E+02 3.274E+01 2.828E+02 2.853E+02 5.328E+06 17.4010 1.00000
  3.162E+08 3.162E+08 2.492E+00 1.424E+01 2.666E+02 3.739E+01 3.182E+02 3.207E+02 5.441E+06 17.6313 1.00000
  3.548E+08 3.548E+08 2.504E+00 1.606E+01 2.993E+02 4.270E+01 3.580E+02 3.606E+02 5.555E+06 17.8616 1.00000
  3.981E+08 3.981E+08 2.515E+00 1.810E+01 3.360E+02 4.877E+01 4.029E+02 4.054E+02 5.669E+06 18.0918 1.00000
  4.467E+08 4.467E+08 2.527E+00 2.040E+01 3.772E+02 5.571E+01 4.533E+02 4.558E+02 5.782E+06 18.3221 1.00000
  5.012E+08 5.012E+08 2.538E+00 2.299E+01 4.234E+02 6.364E+01 5.101E+02 5.126E+02 5.895E+06 18.5523 1.00000
  5.623E+08 5.623E+08 2.550E+00 2.590E+01 4.753E+02 7.270E+01 5.739E+02 5.765E+02 6.007E+06 18.7826 1.00000
  6.310E+08 6.310E+08 2.562E+00 2.917E+01 5.335E+02 8.306E+01 6.458E+02 6.483E+02 6.120E+06 19.0128 1.00000
  7.079E+08 7.079E+08 2.574E+00 3.285E+01 5.989E+02 9.489E+01 7.266E+02 7.292E+02 6.232E+06 19.2431 1.00000
  7.943E+08 7.943E+08 2.586E+00 3.699E+01 6.722E+02 1.084E+02 8.176E+02 8.202E+02 6.344E+06 19.4734 1.00000
  8.913E+08 8.913E+08 2.598E+00 4.163E+01 7.544E+02 1.239E+02 9.199E+02 9.225E+02 6.455E+06 19.7036 1.00000
  1.000E+09 1.000E+09 2.610E+00 4.686E+01 8.467E+02 1.416E+02 1.035E+03 1.038E+03 6.567E+06 19.9339 1.00000
  1.122E+09 1.122E+09 2.622E+00 5.272E+01 9.502E+02 1.618E+02 1.165E+03 1.167E+03 6.678E+06 20.1641 1.00000
  1.259E+09 1.259E+09 2.634E+00 5.932E+01 1.066E+03 1.849E+02 1.311E+03 1.313E+03 6.789E+06 20.3944 1.00000
  1.413E+09 1.413E+09 2.646E+00 6.672E+01 1.197E+03 2.113E+02 1.475E+03 1.478E+03 6.899E+06 20.6246 1.00000
  1.585E+09 1.585E+09 2.658E+00 7.504E+01 1.343E+03 2.416E+02 1.660E+03 1.662E+03 7.009E+06 20.8549 1.00000
  1.778E+09 1.778E+09 2.671E+00 8.439E+01 1.507E+03 2.761E+02 1.868E+03 1.870E+03 7.119E+06 21.0852 1.00000
  1.995E+09 1.995E+09 2.683E+00 9.488E+01 1.691E+03 3.157E+02 2.102E+03 2.105E+03 7.229E+06 21.3154 1.00000
  2.239E+09 2.239E+09 2.695E+00 1.067E+02 1.898E+03 3.609E+02 2.366E+03 2.368E+03 7.338E+06 21.5457 1.00000
  2.512E+09 2.512E+09 2.708E+00 1.199E+02 2.130E+03 4.125E+02 2.662E+03 2.665E+03 7.447E+06 21.7759 1.00000
  2.818E+09 2.818E+09 2.721E+00 1.348E+02 2.390E+03 4.717E+02 2.996E+03 2.999E+03 7.555E+06 22.0062 1.00000
  3.162E+09 3.162E+09 2.733E+00 1.514E+02 2.682E+03 5.393E+02 3.373E+03 3.375E+03 7.664E+06 22.2365 1.00000
  3.548E+09 3.548E+09 2.746E+00 1.702E+02 3.009E+03 6.167E+02 3.796E+03 3.799E+03 7.772E+06 22.4667 1.00000
  3.981E+09 3.981E+09 2.759E+00 1.912E+02 3.377E+03 7.051E+02 4.273E+03 4.276E+03 7.879E+06 22.6970 1.00000
  4.467E+09 4.467E+09 2.772E+00 2.148E+02 3.789E+03 8.064E+02 4.810E+03 4.813E+03 7.986E+06 22.9272 1.00000
  5.012E+09 5.012E+09 2.785E+00 2.413E+02 4.252E+03 9.222E+02 5.415E+03 5.418E+03 8.093E+06 23.1575 1.00000
  5.623E+09 5.623E+09 2.798E+00 2.710E+02 4.771E+03 1.055E+03 6.097E+03 6.099E+03 8.200E+06 23.3877 1.00000
  6.310E+09 6.310E+09 2.811E+00 3.044E+02 5.353E+03 1.206E+03 6.864E+03 6.867E+03 8.306E+06 23.6180 1.00000
  7.079E+09 7.079E+09 2.824E+00 3.419E+02 6.007E+03 1.380E+03 7.728E+03 7.731E+03 8.412E+06 23.8483 1.00000
  7.943E+09 7.943E+09 2.837E+00 3.839E+02 6.740E+03 1.578E+03 8.702E+03 8.705E+03 8.518E+06 24.0785 1.00000
  8.913E+09 8.913E+09 2.851E+00 4.311E+02 7.563E+03 1.805E+03 9.799E+03 9.802E+03 8.623E+06 24.3088 1.00000
  1.000E+10 1.000E+10 2.864E+00 4.841E+02 8.486E+03 2.065E+03 1.104E+04 1.104E+04 8.727E+06 24.5390 1.00000
  1.122E+10 1.122E+10 2.878E+00 5.436E+02 9.521E+03 2.363E+03 1.243E+04 1.243E+04 8.832E+06 24.7693 1.00000
  1.259E+10 1.259E+10 2.891E+00 6.103E+02 1.068E+04 2.703E+03 1.400E+04 1.400E+04 8.936E+06 24.9996 1.00000
  1.413E+10 1.413E+10 2.905E+00 6.851E+02 1.199E+04 3.093E+03 1.577E+04 1.577E+04 9.039E+06 25.2298 1.00000
  1.585E+10 1.585E+10 2.918E+00 7.692E+02 1.345E+04 3.539E+03 1.776E+04 1.776E+04 9.142E+06 25.4601 1.00000
  1.778E+10 1.778E+10 2.932E+00 8.634E+02 1.509E+04 4.050E+03 2.000E+04 2.001E+04 9.245E+06 25.6903 1.00000
  1.995E+10 1.995E+10 2.946E+00 9.692E+02 1.693E+04 4.635E+03 2.254E+04 2.254E+04 9.348E+06 25.9206 1.00000
  2.239E+10 2.239E+10 2.960E+00 1.088E+03 1.900E+04 5.304E+03 2.539E+04 2.539E+04 9.450E+06 26.1509 1.00000
  2.512E+10 2.512E+10 2.974E+00 1.221E+03 2.132E+04 6.070E+03 2.861E+04 2.861E+04 9.551E+06 26.3811 1.00000
  2.818E+10 2.818E+10 2.988E+00 1.371E+03 2.392E+04 6.947E+03 3.223E+04 3.224E+04 9.652E+06 26.6114 1.00000
  3.162E+10 3.162E+10 3.002E+00 1.538E+03 2.684E+04 7.952E+03 3.633E+04 3.633E+04 9.753E+06 26.8416 1.00000
  3.548E+10 3.548E+10 3.017E+00 1.727E+03 3.011E+04 9.102E+03 4.094E+04 4.094E+04 9.853E+06 27.0719 1.00000
  3.981E+10 3.981E+10 3.031E+00 1.938E+03 3.378E+04 1.042E+04 4.614E+04 4.614E+04 9.953E+06 27.3021 1.00000
  4.467E+10 4.467E+10 3.045E+00 2.175E+03 3.790E+04 1.193E+04 5.201E+04 5.201E+04 1.005E+07 27.5324 1.00000
  5.012E+10 5.012E+10 3.060E+00 2.441E+03 4.253E+04 1.365E+04 5.862E+04 5.863E+04 1.015E+07 27.7627 1.00000
  5.623E+10 5.623E+10 3.075E+00 2.739E+03 4.772E+04 1.563E+04 6.609E+04 6.609E+04 1.025E+07 27.9929 1.00000
  6.310E+10 6.310E+10 3.089E+00 3.074E+03 5.354E+04 1.790E+04 7.451E+04 7.452E+04 1.035E+07 28.2232 1.00000
  7.079E+10 7.079E+10 3.104E+00 3.450E+03 6.007E+04 2.049E+04 8.401E+04 8.402E+04 1.044E+07 28.4534 1.00000
  7.943E+10 7.943E+10 3.119E+00 3.871E+03 6.740E+04 2.347E+04 9.474E+04 9.474E+04 1.054E+07 28.6837 1.00000
  8.913E+10 8.913E+10 3.134E+00 4.344E+03 7.562E+04 2.687E+04 1.068E+05 1.068E+05 1.064E+07 28.9140 1.00000
  1.000E+11 1.000E+11 3.149E+00 4.875E+03 8.485E+04 3.078E+04 1.205E+05 1.205E+05 1.073E+07 29.1442 1.00000
  1.122E+11 1.122E+11 3.164E+00 5.471E+03 9.520E+04 3.525E+04 1.359E+05 1.359E+05 1.083E+07 29.3745 1.00000
  1.259E+11 1.259E+11 3.179E+00 6.139E+03 1.068E+05 4.037E+04 1.533E+05 1.533E+05 1.092E+07 29.6047 1.00000
  1.413E+11 1.413E+11 3.194E+00 6.888E+03 1.198E+05 4.623E+04 1.730E+05 1.730E+05 1.102E+07 29.8350 1.00000
  1.585E+11 1.585E+11 3.210E+00 7.730E+03 1.345E+05 5.296E+04 1.951E+05 1.952E+05 1.111E+07 30.0652 1.00000
  1.778E+11 1.778E+11 3.225E+00 8.674E+03 1.509E+05 6.066E+04 2.202E+05 2.202E+05 1.121E+07 30.2955 1.00000
  1.995E+11 1.995E+11 3.241E+00 9.733E+03 1.693E+05 6.949E+04 2.485E+05 2.485E+05 1.130E+07 30.5258 1.00000
  2.239E+11 2.239E+11 3.256E+00 1.092E+04 1.899E+05 7.961E+04 2.804E+05 2.804E+05 1.139E+07 30.7560 1.00000
  2.512E+11 2.512E+11 3.272E+00 1.225E+04 2.131E+05 9.121E+04 3.165E+05 3.165E+05 1.148E+07 30.9863 1.00000
  2.818E+11 2.818E+11 3.288E+00 1.375E+04 2.391E+05 1.045E+05 3.573E+05 3.573E+05 1.158E+07 31.2165 1.00000
  3.162E+11 3.162E+11 3.304E+00 1.543E+04 2.682E+05 1.197E+05 4.034E+05 4.034E+05 1.167E+07 31.4468 1.00000
  3.548E+11 3.548E+11 3.320E+00 1.731E+04 3.010E+05 1.372E+05 4.555E+05 4.555E+05 1.176E+07 31.6771 1.00000
  3.981E+11 3.981E+11 3.336E+00 1.943E+04 3.377E+05 1.572E+05 5.143E+05 5.143E+05 1.185E+07 31.9073 1.00000
  4.467E+11 4.467E+11 3.352E+00 2.180E+04 3.789E+05 1.802E+05 5.808E+05 5.808E+05 1.193E+07 32.1376 1.00000
  5.012E+11 5.012E+11 3.368E+00 2.446E+04 4.251E+05 2.065E+05 6.560E+05 6.560E+05 1.202E+07 32.3678 1.00000
  5.623E+11 5.623E+11 3.384E+00 2.744E+04 4.769E+05 2.366E+05 7.410E+05 7.410E+05 1.211E+07 32.5981 1.00000
  6.310E+11 6.310E+11 3.401E+00 3.079E+04 5.351E+05 2.712E+05 8.371E+05 8.371E+05 1.220E+07 32.8283 1.00000
  7.079E+11 7.079E+11 3.417E+00 3.455E+04 6.004E+05 3.108E+05 9.458E+05 9.458E+05 1.229E+07 33.0586 1.00000
  7.943E+11 7.943E+11 3.434E+00 3.876E+04 6.736E+05 3.563E+05 1.069E+06 1.069E+06 1.237E+07 33.2889 1.00000
  8.913E+11 8.913E+11 3.450E+00 4.350E+04 7.558E+05 4.084E+05 1.208E+06 1.208E+06 1.246E+07 33.5191 1.00000
  1.000E+12 1.000E+12 3.467E+00 4.880E+04 8.479E+05 4.682E+05 1.365E+06 1.365E+06 1.254E+07 33.7494 1.00000
  1.122E+12 1.122E+12 3.484E+00 5.476E+04 9.514E+05 5.368E+05 1.543E+06 1.543E+06 1.263E+07 33.9796 1.00000
  1.259E+12 1.259E+12 3.501E+00 6.144E+04 1.067E+06 6.154E+05 1.744E+06 1.744E+06 1.271E+07 34.2099 1.00000
  1.413E+12 1.413E+12 3.518E+00 6.894E+04 1.198E+06 7.056E+05 1.972E+06 1.972E+06 1.279E+07 34.4402 1.00000
  1.585E+12 1.585E+12 3.535E+00 7.735E+04 1.344E+06 8.090E+05 2.230E+06 2.230E+06 1.287E+07 34.6704 1.00000
  1.778E+12 1.778E+12 3.553E+00 8.679E+04 1.508E+06 9.277E+05 2.522E+06 2.522E+06 1.296E+07 34.9007 1.00000
  1.995E+12 1.995E+12 3.570E+00 9.738E+04 1.691E+06 1.064E+06 2.853E+06 2.853E+06 1.304E+07 35.1309 1.00000
  2.239E+12 2.239E+12 3.587E+00 1.093E+05 1.898E+06 1.220E+06 3.227E+06 3.227E+06 1.312E+07 35.3612 1.00000
  2.512E+12 2.512E+12 3.605E+00 1.226E+05 2.129E+06 1.399E+06 3.651E+06 3.651E+06 1.320E+07 35.5914 1.00000
  2.818E+12 2.818E+12 3.623E+00 1.376E+05 2.389E+06 1.605E+06 4.131E+06 4.131E+06 1.328E+07 35.8217 1.00000
  3.162E+12 3.162E+12 3.640E+00 1.543E+05 2.680E+06 1.840E+06 4.675E+06 4.675E+06 1.336E+07 36.0520 1.00000
  3.548E+12 3.548E+12 3.658E+00 1.732E+05 3.007E+06 2.111E+06 5.291E+06 5.291E+06 1.343E+07 36.2822 1.00000
  3.981E+12 3.981E+12 3.676E+00 1.943E+05 3.374E+06 2.421E+06 5.990E+06 5.990E+06 1.351E+07 36.5125 1.00000
  4.467E+12 4.467E+12 3.694E+00 2.180E+05 3.786E+06 2.778E+06 6.781E+06 6.781E+06 1.359E+07 36.7427 1.00000
  5.012E+12 5.012E+12 3.712E+00 2.446E+05 4.247E+06 3.186E+06 7.678E+06 7.678E+06 1.366E+07 36.9730 1.00000
  5.623E+12 5.623E+12 3.730E+00 2.745E+05 4.765E+06 3.656E+06 8.695E+06 8.695E+06 1.374E+07 37.2033 1.00000
  6.310E+12 6.310E+12 3.749E+00 3.080E+05 5.347E+06 4.194E+06 9.849E+06 9.849E+06 1.381E+07 37.4335 1.00000
  7.079E+12 7.079E+12 3.767E+00 3.455E+05 5.999E+06 4.812E+06 1.116E+07 1.116E+07 1.388E+07 37.6638 1.00000
  7.943E+12 7.943E+12 3.786E+00 3.877E+05 6.730E+06 5.521E+06 1.264E+07 1.264E+07 1.396E+07 37.8940 1.00000
  8.913E+12 8.913E+12 3.804E+00 4.350E+05 7.551E+06 6.335E+06 1.432E+07 1.432E+07 1.403E+07 38.1243 1.00000
  1.000E+13 1.000E+13 3.823E+00 4.881E+05 8.472E+06 7.270E+06 1.623E+07 1.623E+07 1.410E+07 38.3546 1.00000
  1.122E+13 1.122E+13 3.842E+00 5.477E+05 9.505E+06 8.343E+06 1.840E+07 1.840E+07 1.417E+07 38.5848 1.00000
  1.259E+13 1.259E+13 3.861E+00 6.145E+05 1.066E+07 9.575E+06 2.085E+07 2.085E+07 1.424E+07 38.8151 1.00000
  1.413E+13 1.413E+13 3.880E+00 6.895E+05 1.197E+07 1.099E+07 2.364E+07 2.364E+07 1.431E+07 39.0453 1.00000
  1.585E+13 1.585E+13 3.899E+00 7.736E+05 1.342E+07 1.261E+07 2.681E+07 2.681E+07 1.438E+07 39.2756 1.00000
  1.778E+13 1.778E+13 3.918E+00 8.680E+05 1.506E+07 1.448E+07 3.041E+07 3.041E+07 1.445E+07 39.5058 1.00000
  1.995E+13 1.995E+13 3.938E+00 9.739E+05 1.690E+07 1.662E+07 3.449E+07 3.449E+07 1.452E+07 39.7361 1.00000
  2.239E+13 2.239E+13 3.957E+00 1.093E+06 1.896E+07 1.907E+07 3.913E+07 3.913E+07 1.458E+07 39.9664 1.00000
  2.512E+13 2.512E+13 3.977E+00 1.226E+06 2.127E+07 2.190E+07 4.439E+07 4.439E+07 1.465E+07 40.1966 1.00000
  2.818E+13 2.818E+13 3.996E+00 1.376E+06 2.387E+07 2.514E+07 5.038E+07 5.038E+07 1.471E+07 40.4269 1.00000
  3.162E+13 3.162E+13 4.016E+00 1.544E+06 2.678E+07 2.886E+07 5.718E+07 5.718E+07 1.478E+07 40.6571 1.00000
  3.548E+13 3.548E+13 4.036E+00 1.732E+06 3.004E+07 3.313E+07 6.491E+07 6.491E+07 1.484E+07 40.8874 1.00000
  3.981E+13 3.981E+13 4.056E+00 1.943E+06 3.371E+07 3.804E+07 7.369E+07 7.369E+07 1.490E+07 41.1177 1.00000
  4.467E+13 4.467E+13 4.076E+00 2.180E+06 3.782E+07 4.368E+07 8.368E+07 8.368E+07 1.496E+07 41.3479 1.00000
  5.012E+13 5.012E+13 4.096E+00 2.446E+06 4.243E+07 5.016E+07 9.504E+07 9.504E+07 1.503E+07 41.5782 1.00000
  5.623E+13 5.623E+13 4.117E+00 2.745E+06 4.760E+07 5.760E+07 1.080E+08 1.080E+08 1.509E+07 41.8084 1.00000
  6.310E+13 6.310E+13 4.137E+00 3.080E+06 5.341E+07 6.615E+07 1.226E+08 1.226E+08 1.515E+07 42.0387 1.00000
  7.079E+13 7.079E+13 4.158E+00 3.455E+06 5.992E+07 7.597E+07 1.393E+08 1.393E+08 1.521E+07 42.2689 1.00000
  7.943E+13 7.943E+13 4.178E+00 3.877E+06 6.723E+07 8.725E+07 1.584E+08 1.584E+08 1.526E+07 42.4992 1.00000
  8.913E+13 8.913E+13 4.199E+00 4.350E+06 7.543E+07 1.002E+08 1.800E+08 1.800E+08 1.532E+07 42.7295 1.00000
