 Incident particle is a Tau with M = 1776.82000 MeV
 Index = 0: BoronCarbide
      Absorber with <Z/A> = 0.47035
 Sternheimer coef:  a     k=m_s   x_0    x_1    I[eV]   Cbar  delta0
                 0.3709  2.8076  0.0093  2.1006   84.7  2.9859 0.00

 *** Table generated with PUMAS v1.00 ***

      T         p     Ionization  brems     pair     photonuc  Radloss    dE/dx   CSDA Range  delta   beta
    [MeV]    [MeV/c]  -----------------------[MeV cm^2/g]------------------------  [g/cm^2]
  1.000E+05 1.018E+05 2.022E+00 9.929E-05 1.542E-03 8.385E-03 1.003E-02 2.032E+00 2.460E+04  5.1280 0.99985
  1.122E+05 1.140E+05 2.039E+00 1.147E-04 1.865E-03 9.473E-03 1.145E-02 2.051E+00 3.058E+04  5.3481 0.99988
  1.259E+05 1.277E+05 2.057E+00 1.324E-04 2.247E-03 1.064E-02 1.302E-02 2.070E+00 3.723E+04  5.5702 0.99990
  1.413E+05 1.430E+05 2.074E+00 1.527E-04 2.698E-03 1.196E-02 1.482E-02 2.089E+00 4.461E+04  5.7942 0.99992
  1.585E+05 1.603E+05 2.091E+00 1.761E-04 3.229E-03 1.344E-02 1.685E-02 2.108E+00 5.283E+04  6.0197 0.99994
  1.778E+05 1.796E+05 2.108E+00 2.030E-04 3.852E-03 1.509E-02 1.915E-02 2.127E+00 6.196E+04  6.2464 0.99995
  1.995E+05 2.013E+05 2.125E+00 2.339E-04 4.582E-03 1.698E-02 2.179E-02 2.147E+00 7.211E+04  6.4741 0.99996
  2.239E+05 2.256E+05 2.142E+00 2.694E-04 5.437E-03 1.904E-02 2.474E-02 2.167E+00 8.340E+04  6.7023 0.99997
  2.512E+05 2.530E+05 2.159E+00 3.102E-04 6.434E-03 2.135E-02 2.809E-02 2.188E+00 9.595E+04  6.9309 0.99998
  2.818E+05 2.836E+05 2.177E+00 3.570E-04 7.597E-03 2.395E-02 3.190E-02 2.208E+00 1.099E+05  7.1596 0.99998
  3.162E+05 3.180E+05 2.194E+00 4.107E-04 8.950E-03 2.689E-02 3.625E-02 2.230E+00 1.254E+05  7.3885 0.99998
  3.548E+05 3.566E+05 2.211E+00 4.722E-04 1.052E-02 3.020E-02 4.119E-02 2.252E+00 1.426E+05  7.6176 0.99999
  3.981E+05 3.999E+05 2.228E+00 5.428E-04 1.234E-02 3.389E-02 4.677E-02 2.275E+00 1.617E+05  7.8468 0.99999
  4.467E+05 4.485E+05 2.245E+00 6.238E-04 1.445E-02 3.803E-02 5.310E-02 2.298E+00 1.830E+05  8.0761 0.99999
  5.012E+05 5.030E+05 2.262E+00 7.165E-04 1.689E-02 4.269E-02 6.029E-02 2.322E+00 2.066E+05  8.3055 0.99999
  5.623E+05 5.641E+05 2.279E+00 8.228E-04 1.971E-02 4.774E-02 6.827E-02 2.347E+00 2.328E+05  8.5350 1.00000
  6.310E+05 6.327E+05 2.296E+00 9.445E-04 2.296E-02 5.343E-02 7.734E-02 2.373E+00 2.618E+05  8.7645 1.00000
  7.079E+05 7.097E+05 2.313E+00 1.084E-03 2.671E-02 5.986E-02 8.765E-02 2.400E+00 2.941E+05  8.9942 1.00000
  7.943E+05 7.961E+05 2.330E+00 1.243E-03 3.101E-02 6.712E-02 9.938E-02 2.429E+00 3.299E+05  9.2239 1.00000
  8.913E+05 8.930E+05 2.346E+00 1.426E-03 3.597E-02 7.533E-02 1.127E-01 2.459E+00 3.695E+05  9.4537 1.00000
  1.000E+06 1.002E+06 2.363E+00 1.635E-03 4.165E-02 8.462E-02 1.279E-01 2.491E+00 4.135E+05  9.6835 1.00000
  1.122E+06 1.124E+06 2.380E+00 1.874E-03 4.817E-02 9.513E-02 1.452E-01 2.525E+00 4.621E+05  9.9134 1.00000
  1.259E+06 1.261E+06 2.396E+00 2.148E-03 5.563E-02 1.070E-01 1.648E-01 2.561E+00 5.160E+05 10.1433 1.00000
  1.413E+06 1.414E+06 2.413E+00 2.461E-03 6.418E-02 1.205E-01 1.872E-01 2.600E+00 5.755E+05 10.3732 1.00000
  1.585E+06 1.587E+06 2.429E+00 2.818E-03 7.394E-02 1.358E-01 2.126E-01 2.642E+00 6.413E+05 10.6032 1.00000
  1.778E+06 1.780E+06 2.445E+00 3.227E-03 8.509E-02 1.532E-01 2.415E-01 2.687E+00 7.139E+05 10.8332 1.00000
  1.995E+06 1.997E+06 2.461E+00 3.695E-03 9.782E-02 1.729E-01 2.744E-01 2.736E+00 7.939E+05 11.0633 1.00000
  2.239E+06 2.240E+06 2.477E+00 4.229E-03 1.123E-01 1.953E-01 3.119E-01 2.789E+00 8.820E+05 11.2934 1.00000
  2.512E+06 2.514E+06 2.493E+00 4.839E-03 1.288E-01 2.208E-01 3.545E-01 2.847E+00 9.790E+05 11.5234 1.00000
  2.818E+06 2.820E+06 2.509E+00 5.536E-03 1.476E-01 2.497E-01 4.029E-01 2.911E+00 1.085E+06 11.7535 1.00000
  3.162E+06 3.164E+06 2.524E+00 6.332E-03 1.690E-01 2.826E-01 4.579E-01 2.982E+00 1.202E+06 11.9837 1.00000
  3.548E+06 3.550E+06 2.540E+00 7.241E-03 1.932E-01 3.200E-01 5.205E-01 3.060E+00 1.330E+06 12.2138 1.00000
  3.981E+06 3.983E+06 2.555E+00 8.278E-03 2.208E-01 3.626E-01 5.917E-01 3.146E+00 1.469E+06 12.4440 1.00000
  4.467E+06 4.469E+06 2.570E+00 9.461E-03 2.520E-01 4.111E-01 6.725E-01 3.242E+00 1.622E+06 12.6741 1.00000
  5.012E+06 5.014E+06 2.585E+00 1.081E-02 2.874E-01 4.662E-01 7.645E-01 3.349E+00 1.787E+06 12.9043 1.00000
  5.623E+06 5.625E+06 2.600E+00 1.235E-02 3.275E-01 5.290E-01 8.689E-01 3.469E+00 1.966E+06 13.1345 1.00000
  6.310E+06 6.311E+06 2.614E+00 1.411E-02 3.729E-01 6.006E-01 9.876E-01 3.602E+00 2.161E+06 13.3647 1.00000
  7.079E+06 7.081E+06 2.629E+00 1.611E-02 4.243E-01 6.821E-01 1.123E+00 3.751E+00 2.370E+06 13.5949 1.00000
  7.943E+06 7.945E+06 2.643E+00 1.839E-02 4.824E-01 7.750E-01 1.276E+00 3.919E+00 2.595E+06 13.8251 1.00000
  8.913E+06 8.914E+06 2.657E+00 2.099E-02 5.480E-01 8.808E-01 1.450E+00 4.107E+00 2.837E+06 14.0553 1.00000
  1.000E+07 1.000E+07 2.671E+00 2.394E-02 6.221E-01 1.001E+00 1.648E+00 4.319E+00 3.095E+06 14.2855 1.00000
  1.122E+07 1.122E+07 2.685E+00 2.731E-02 7.058E-01 1.139E+00 1.872E+00 4.557E+00 3.370E+06 14.5157 1.00000
  1.259E+07 1.259E+07 2.699E+00 3.115E-02 8.003E-01 1.296E+00 2.127E+00 4.826E+00 3.663E+06 14.7459 1.00000
  1.413E+07 1.413E+07 2.713E+00 3.551E-02 9.068E-01 1.475E+00 2.417E+00 5.130E+00 3.971E+06 14.9762 1.00000
  1.585E+07 1.585E+07 2.726E+00 4.048E-02 1.027E+00 1.679E+00 2.746E+00 5.472E+00 4.297E+06 15.2064 1.00000
  1.778E+07 1.778E+07 2.740E+00 4.612E-02 1.162E+00 1.911E+00 3.120E+00 5.860E+00 4.639E+06 15.4366 1.00000
  1.995E+07 1.995E+07 2.753E+00 5.254E-02 1.315E+00 2.177E+00 3.544E+00 6.297E+00 4.996E+06 15.6669 1.00000
  2.239E+07 2.239E+07 2.767E+00 5.984E-02 1.487E+00 2.479E+00 4.026E+00 6.792E+00 5.369E+06 15.8971 1.00000
  2.512E+07 2.512E+07 2.780E+00 6.813E-02 1.680E+00 2.825E+00 4.573E+00 7.353E+00 5.755E+06 16.1273 1.00000
  2.818E+07 2.819E+07 2.793E+00 7.755E-02 1.898E+00 3.219E+00 5.194E+00 7.987E+00 6.156E+06 16.3576 1.00000
  3.162E+07 3.162E+07 2.806E+00 8.824E-02 2.143E+00 3.669E+00 5.899E+00 8.706E+00 6.568E+06 16.5878 1.00000
  3.548E+07 3.548E+07 2.820E+00 1.004E-01 2.418E+00 4.182E+00 6.701E+00 9.520E+00 6.993E+06 16.8181 1.00000
  3.981E+07 3.981E+07 2.833E+00 1.142E-01 2.728E+00 4.768E+00 7.610E+00 1.044E+01 7.427E+06 17.0483 1.00000
  4.467E+07 4.467E+07 2.846E+00 1.298E-01 3.077E+00 5.436E+00 8.643E+00 1.149E+01 7.871E+06 17.2786 1.00000
  5.012E+07 5.012E+07 2.859E+00 1.475E-01 3.469E+00 6.200E+00 9.816E+00 1.267E+01 8.324E+06 17.5088 1.00000
  5.623E+07 5.624E+07 2.872E+00 1.676E-01 3.910E+00 7.071E+00 1.115E+01 1.402E+01 8.783E+06 17.7391 1.00000
  6.310E+07 6.310E+07 2.885E+00 1.904E-01 4.405E+00 8.066E+00 1.266E+01 1.555E+01 9.248E+06 17.9693 1.00000
  7.079E+07 7.080E+07 2.898E+00 2.162E-01 4.961E+00 9.202E+00 1.438E+01 1.728E+01 9.719E+06 18.1996 1.00000
  7.943E+07 7.943E+07 2.911E+00 2.455E-01 5.586E+00 1.050E+01 1.633E+01 1.924E+01 1.019E+07 18.4298 1.00000
  8.913E+07 8.913E+07 2.924E+00 2.786E-01 6.289E+00 1.198E+01 1.855E+01 2.147E+01 1.067E+07 18.6601 1.00000
  1.000E+08 1.000E+08 2.937E+00 3.161E-01 7.077E+00 1.367E+01 2.106E+01 2.400E+01 1.115E+07 18.8903 1.00000
  1.122E+08 1.122E+08 2.950E+00 3.585E-01 7.963E+00 1.560E+01 2.392E+01 2.687E+01 1.163E+07 19.1206 1.00000
  1.259E+08 1.259E+08 2.964E+00 4.066E-01 8.958E+00 1.781E+01 2.717E+01 3.014E+01 1.211E+07 19.3508 1.00000
  1.413E+08 1.413E+08 2.977E+00 4.609E-01 1.008E+01 2.033E+01 3.086E+01 3.384E+01 1.260E+07 19.5811 1.00000
  1.585E+08 1.585E+08 2.990E+00 5.223E-01 1.133E+01 2.321E+01 3.506E+01 3.805E+01 1.308E+07 19.8114 1.00000
  1.778E+08 1.778E+08 3.003E+00 5.918E-01 1.274E+01 2.649E+01 3.982E+01 4.283E+01 1.356E+07 20.0416 1.00000
  1.995E+08 1.995E+08 3.017E+00 6.703E-01 1.432E+01 3.025E+01 4.524E+01 4.825E+01 1.403E+07 20.2719 1.00000
  2.239E+08 2.239E+08 3.030E+00 7.590E-01 1.609E+01 3.454E+01 5.139E+01 5.442E+01 1.451E+07 20.5021 1.00000
  2.512E+08 2.512E+08 3.044E+00 8.592E-01 1.809E+01 3.944E+01 5.839E+01 6.143E+01 1.498E+07 20.7324 1.00000
  2.818E+08 2.818E+08 3.057E+00 9.723E-01 2.032E+01 4.504E+01 6.634E+01 6.939E+01 1.545E+07 20.9626 1.00000
  3.162E+08 3.162E+08 3.071E+00 1.100E+00 2.283E+01 5.144E+01 7.537E+01 7.844E+01 1.592E+07 21.1929 1.00000
  3.548E+08 3.548E+08 3.084E+00 1.244E+00 2.565E+01 5.875E+01 8.565E+01 8.873E+01 1.638E+07 21.4232 1.00000
  3.981E+08 3.981E+08 3.098E+00 1.407E+00 2.882E+01 6.711E+01 9.733E+01 1.004E+02 1.684E+07 21.6534 1.00000
  4.467E+08 4.467E+08 3.112E+00 1.590E+00 3.236E+01 7.665E+01 1.106E+02 1.137E+02 1.730E+07 21.8837 1.00000
  5.012E+08 5.012E+08 3.126E+00 1.797E+00 3.635E+01 8.757E+01 1.257E+02 1.288E+02 1.775E+07 22.1139 1.00000
  5.623E+08 5.623E+08 3.140E+00 2.031E+00 4.082E+01 1.000E+02 1.429E+02 1.460E+02 1.820E+07 22.3442 1.00000
  6.310E+08 6.310E+08 3.154E+00 2.294E+00 4.584E+01 1.143E+02 1.624E+02 1.656E+02 1.864E+07 22.5744 1.00000
  7.079E+08 7.079E+08 3.168E+00 2.590E+00 5.147E+01 1.306E+02 1.846E+02 1.878E+02 1.908E+07 22.8047 1.00000
  7.943E+08 7.943E+08 3.182E+00 2.924E+00 5.778E+01 1.492E+02 2.099E+02 2.131E+02 1.951E+07 23.0350 1.00000
  8.913E+08 8.913E+08 3.196E+00 3.300E+00 6.487E+01 1.705E+02 2.387E+02 2.419E+02 1.994E+07 23.2652 1.00000
  1.000E+09 1.000E+09 3.210E+00 3.724E+00 7.283E+01 1.949E+02 2.714E+02 2.746E+02 2.036E+07 23.4955 1.00000
  1.122E+09 1.122E+09 3.224E+00 4.202E+00 8.176E+01 2.227E+02 3.086E+02 3.119E+02 2.078E+07 23.7257 1.00000
  1.259E+09 1.259E+09 3.239E+00 4.739E+00 9.177E+01 2.545E+02 3.510E+02 3.543E+02 2.119E+07 23.9560 1.00000
  1.413E+09 1.413E+09 3.253E+00 5.344E+00 1.030E+02 2.909E+02 3.992E+02 4.025E+02 2.160E+07 24.1862 1.00000
  1.585E+09 1.585E+09 3.268E+00 6.024E+00 1.156E+02 3.325E+02 4.541E+02 4.574E+02 2.200E+07 24.4165 1.00000
  1.778E+09 1.778E+09 3.283E+00 6.790E+00 1.298E+02 3.801E+02 5.166E+02 5.199E+02 2.240E+07 24.6468 1.00000
  1.995E+09 1.995E+09 3.297E+00 7.652E+00 1.457E+02 4.345E+02 5.878E+02 5.911E+02 2.279E+07 24.8770 1.00000
  2.239E+09 2.239E+09 3.312E+00 8.621E+00 1.635E+02 4.967E+02 6.688E+02 6.721E+02 2.318E+07 25.1073 1.00000
  2.512E+09 2.512E+09 3.327E+00 9.712E+00 1.835E+02 5.678E+02 7.610E+02 7.643E+02 2.356E+07 25.3375 1.00000
  2.818E+09 2.818E+09 3.342E+00 1.094E+01 2.059E+02 6.492E+02 8.661E+02 8.694E+02 2.394E+07 25.5678 1.00000
  3.162E+09 3.162E+09 3.357E+00 1.232E+01 2.311E+02 7.423E+02 9.857E+02 9.891E+02 2.431E+07 25.7981 1.00000
  3.548E+09 3.548E+09 3.372E+00 1.387E+01 2.593E+02 8.488E+02 1.122E+03 1.125E+03 2.467E+07 26.0283 1.00000
  3.981E+09 3.981E+09 3.387E+00 1.561E+01 2.910E+02 9.706E+02 1.277E+03 1.281E+03 2.504E+07 26.2586 1.00000
  4.467E+09 4.467E+09 3.403E+00 1.756E+01 3.266E+02 1.110E+03 1.454E+03 1.457E+03 2.539E+07 26.4888 1.00000
  5.012E+09 5.012E+09 3.418E+00 1.976E+01 3.665E+02 1.269E+03 1.656E+03 1.659E+03 2.574E+07 26.7191 1.00000
  5.623E+09 5.623E+09 3.434E+00 2.224E+01 4.113E+02 1.452E+03 1.885E+03 1.889E+03 2.609E+07 26.9493 1.00000
  6.310E+09 6.310E+09 3.449E+00 2.501E+01 4.615E+02 1.660E+03 2.147E+03 2.150E+03 2.643E+07 27.1796 1.00000
  7.079E+09 7.079E+09 3.465E+00 2.813E+01 5.179E+02 1.899E+03 2.445E+03 2.449E+03 2.677E+07 27.4099 1.00000
  7.943E+09 7.943E+09 3.481E+00 3.164E+01 5.811E+02 2.172E+03 2.785E+03 2.789E+03 2.710E+07 27.6401 1.00000
  8.913E+09 8.913E+09 3.496E+00 3.558E+01 6.520E+02 2.485E+03 3.173E+03 3.176E+03 2.742E+07 27.8704 1.00000
  1.000E+10 1.000E+10 3.512E+00 4.000E+01 7.317E+02 2.843E+03 3.615E+03 3.618E+03 2.775E+07 28.1006 1.00000
  1.122E+10 1.122E+10 3.528E+00 4.496E+01 8.210E+02 3.252E+03 4.118E+03 4.122E+03 2.806E+07 28.3309 1.00000
  1.259E+10 1.259E+10 3.544E+00 5.054E+01 9.212E+02 3.721E+03 4.693E+03 4.696E+03 2.837E+07 28.5612 1.00000
  1.413E+10 1.413E+10 3.561E+00 5.680E+01 1.034E+03 4.258E+03 5.348E+03 5.352E+03 2.868E+07 28.7914 1.00000
  1.585E+10 1.585E+10 3.577E+00 6.383E+01 1.160E+03 4.872E+03 6.095E+03 6.099E+03 2.898E+07 29.0217 1.00000
  1.778E+10 1.778E+10 3.593E+00 7.173E+01 1.301E+03 5.575E+03 6.948E+03 6.951E+03 2.928E+07 29.2519 1.00000
  1.995E+10 1.995E+10 3.610E+00 8.059E+01 1.460E+03 6.379E+03 7.920E+03 7.924E+03 2.957E+07 29.4822 1.00000
  2.239E+10 2.239E+10 3.626E+00 9.054E+01 1.638E+03 7.300E+03 9.029E+03 9.033E+03 2.986E+07 29.7125 1.00000
  2.512E+10 2.512E+10 3.643E+00 1.017E+02 1.838E+03 8.355E+03 1.030E+04 1.030E+04 3.015E+07 29.9427 1.00000
  2.818E+10 2.818E+10 3.660E+00 1.142E+02 2.063E+03 9.563E+03 1.174E+04 1.174E+04 3.043E+07 30.1730 1.00000
  3.162E+10 3.162E+10 3.677E+00 1.283E+02 2.314E+03 1.095E+04 1.339E+04 1.339E+04 3.070E+07 30.4032 1.00000
  3.548E+10 3.548E+10 3.694E+00 1.441E+02 2.597E+03 1.253E+04 1.527E+04 1.527E+04 3.097E+07 30.6335 1.00000
  3.981E+10 3.981E+10 3.711E+00 1.618E+02 2.914E+03 1.434E+04 1.742E+04 1.742E+04 3.124E+07 30.8637 1.00000
  4.467E+10 4.467E+10 3.728E+00 1.817E+02 3.269E+03 1.642E+04 1.987E+04 1.987E+04 3.150E+07 31.0940 1.00000
  5.012E+10 5.012E+10 3.745E+00 2.041E+02 3.668E+03 1.880E+04 2.267E+04 2.267E+04 3.176E+07 31.3243 1.00000
  5.623E+10 5.623E+10 3.762E+00 2.291E+02 4.116E+03 2.152E+04 2.586E+04 2.587E+04 3.201E+07 31.5545 1.00000
  6.310E+10 6.310E+10 3.780E+00 2.573E+02 4.618E+03 2.464E+04 2.951E+04 2.952E+04 3.226E+07 31.7848 1.00000
  7.079E+10 7.079E+10 3.797E+00 2.889E+02 5.181E+03 2.821E+04 3.368E+04 3.368E+04 3.250E+07 32.0150 1.00000
  7.943E+10 7.943E+10 3.815E+00 3.243E+02 5.813E+03 3.230E+04 3.844E+04 3.844E+04 3.274E+07 32.2453 1.00000
  8.913E+10 8.913E+10 3.833E+00 3.640E+02 6.523E+03 3.699E+04 4.388E+04 4.388E+04 3.298E+07 32.4756 1.00000
  1.000E+11 1.000E+11 3.850E+00 4.087E+02 7.318E+03 4.236E+04 5.009E+04 5.009E+04 3.321E+07 32.7058 1.00000
  1.122E+11 1.122E+11 3.868E+00 4.587E+02 8.211E+03 4.851E+04 5.718E+04 5.719E+04 3.344E+07 32.9361 1.00000
  1.259E+11 1.259E+11 3.886E+00 5.149E+02 9.213E+03 5.556E+04 6.529E+04 6.529E+04 3.367E+07 33.1663 1.00000
  1.413E+11 1.413E+11 3.904E+00 5.780E+02 1.034E+04 6.364E+04 7.455E+04 7.456E+04 3.389E+07 33.3966 1.00000
  1.585E+11 1.585E+11 3.923E+00 6.487E+02 1.160E+04 7.289E+04 8.514E+04 8.514E+04 3.410E+07 33.6268 1.00000
  1.778E+11 1.778E+11 3.941E+00 7.281E+02 1.301E+04 8.350E+04 9.724E+04 9.724E+04 3.432E+07 33.8571 1.00000
  1.995E+11 1.995E+11 3.959E+00 8.172E+02 1.460E+04 9.565E+04 1.111E+05 1.111E+05 3.453E+07 34.0874 1.00000
  2.239E+11 2.239E+11 3.978E+00 9.172E+02 1.638E+04 1.096E+05 1.269E+05 1.269E+05 3.473E+07 34.3176 1.00000
  2.512E+11 2.512E+11 3.997E+00 1.029E+03 1.838E+04 1.255E+05 1.449E+05 1.450E+05 3.493E+07 34.5479 1.00000
  2.818E+11 2.818E+11 4.015E+00 1.155E+03 2.062E+04 1.438E+05 1.656E+05 1.656E+05 3.513E+07 34.7781 1.00000
  3.162E+11 3.162E+11 4.034E+00 1.296E+03 2.314E+04 1.648E+05 1.892E+05 1.892E+05 3.533E+07 35.0084 1.00000
  3.548E+11 3.548E+11 4.053E+00 1.455E+03 2.596E+04 1.888E+05 2.163E+05 2.163E+05 3.552E+07 35.2387 1.00000
  3.981E+11 3.981E+11 4.072E+00 1.633E+03 2.913E+04 2.164E+05 2.471E+05 2.472E+05 3.570E+07 35.4689 1.00000
  4.467E+11 4.467E+11 4.091E+00 1.832E+03 3.268E+04 2.480E+05 2.825E+05 2.825E+05 3.589E+07 35.6992 1.00000
  5.012E+11 5.012E+11 4.111E+00 2.056E+03 3.667E+04 2.842E+05 3.229E+05 3.229E+05 3.607E+07 35.9294 1.00000
  5.623E+11 5.623E+11 4.130E+00 2.307E+03 4.114E+04 3.257E+05 3.691E+05 3.691E+05 3.625E+07 36.1597 1.00000
  6.310E+11 6.310E+11 4.150E+00 2.589E+03 4.616E+04 3.733E+05 4.220E+05 4.220E+05 3.642E+07 36.3899 1.00000
  7.079E+11 7.079E+11 4.169E+00 2.905E+03 5.179E+04 4.279E+05 4.825E+05 4.826E+05 3.659E+07 36.6202 1.00000
  7.943E+11 7.943E+11 4.189E+00 3.260E+03 5.810E+04 4.904E+05 5.518E+05 5.518E+05 3.676E+07 36.8505 1.00000
  8.913E+11 8.913E+11 4.209E+00 3.658E+03 6.519E+04 5.622E+05 6.310E+05 6.310E+05 3.692E+07 37.0807 1.00000
  1.000E+12 1.000E+12 4.229E+00 4.105E+03 7.314E+04 6.445E+05 7.217E+05 7.217E+05 3.709E+07 37.3110 1.00000
  1.122E+12 1.122E+12 4.249E+00 4.606E+03 8.207E+04 7.388E+05 8.255E+05 8.255E+05 3.724E+07 37.5412 1.00000
  1.259E+12 1.259E+12 4.269E+00 5.169E+03 9.208E+04 8.471E+05 9.443E+05 9.443E+05 3.740E+07 37.7715 1.00000
  1.413E+12 1.413E+12 4.289E+00 5.800E+03 1.033E+05 9.712E+05 1.080E+06 1.080E+06 3.755E+07 38.0018 1.00000
  1.585E+12 1.585E+12 4.309E+00 6.508E+03 1.159E+05 1.114E+06 1.236E+06 1.236E+06 3.770E+07 38.2320 1.00000
  1.778E+12 1.778E+12 4.330E+00 7.302E+03 1.300E+05 1.277E+06 1.414E+06 1.414E+06 3.785E+07 38.4623 1.00000
  1.995E+12 1.995E+12 4.350E+00 8.194E+03 1.459E+05 1.464E+06 1.618E+06 1.618E+06 3.799E+07 38.6925 1.00000
  2.239E+12 2.239E+12 4.371E+00 9.194E+03 1.637E+05 1.679E+06 1.852E+06 1.852E+06 3.813E+07 38.9228 1.00000
  2.512E+12 2.512E+12 4.392E+00 1.032E+04 1.837E+05 1.926E+06 2.120E+06 2.120E+06 3.827E+07 39.1530 1.00000
  2.818E+12 2.818E+12 4.413E+00 1.158E+04 2.061E+05 2.209E+06 2.426E+06 2.426E+06 3.841E+07 39.3833 1.00000
  3.162E+12 3.162E+12 4.434E+00 1.299E+04 2.312E+05 2.533E+06 2.777E+06 2.777E+06 3.854E+07 39.6136 1.00000
  3.548E+12 3.548E+12 4.455E+00 1.457E+04 2.594E+05 2.906E+06 3.180E+06 3.180E+06 3.867E+07 39.8438 1.00000
  3.981E+12 3.981E+12 4.477E+00 1.635E+04 2.910E+05 3.333E+06 3.640E+06 3.640E+06 3.880E+07 40.0741 1.00000
  4.467E+12 4.467E+12 4.498E+00 1.835E+04 3.265E+05 3.823E+06 4.168E+06 4.168E+06 3.892E+07 40.3043 1.00000
  5.012E+12 5.012E+12 4.519E+00 2.059E+04 3.664E+05 4.386E+06 4.773E+06 4.773E+06 3.904E+07 40.5346 1.00000
  5.623E+12 5.623E+12 4.541E+00 2.310E+04 4.111E+05 5.032E+06 5.466E+06 5.466E+06 3.916E+07 40.7649 1.00000
  6.310E+12 6.310E+12 4.563E+00 2.592E+04 4.612E+05 5.773E+06 6.260E+06 6.260E+06 3.928E+07 40.9951 1.00000
  7.079E+12 7.079E+12 4.585E+00 2.908E+04 5.174E+05 6.623E+06 7.170E+06 7.170E+06 3.940E+07 41.2254 1.00000
  7.943E+12 7.943E+12 4.607E+00 3.263E+04 5.806E+05 7.600E+06 8.213E+06 8.213E+06 3.951E+07 41.4556 1.00000
  8.913E+12 8.913E+12 4.629E+00 3.661E+04 6.514E+05 8.720E+06 9.408E+06 9.408E+06 3.962E+07 41.6859 1.00000
  1.000E+13 1.000E+13 4.651E+00 4.108E+04 7.308E+05 1.001E+07 1.078E+07 1.078E+07 3.973E+07 41.9162 1.00000
  1.122E+13 1.122E+13 4.673E+00 4.609E+04 8.199E+05 1.148E+07 1.235E+07 1.235E+07 3.984E+07 42.1464 1.00000
  1.259E+13 1.259E+13 4.696E+00 5.172E+04 9.199E+05 1.318E+07 1.415E+07 1.415E+07 3.994E+07 42.3767 1.00000
  1.413E+13 1.413E+13 4.719E+00 5.803E+04 1.032E+06 1.513E+07 1.622E+07 1.622E+07 4.004E+07 42.6069 1.00000
  1.585E+13 1.585E+13 4.741E+00 6.511E+04 1.158E+06 1.736E+07 1.858E+07 1.858E+07 4.014E+07 42.8372 1.00000
  1.778E+13 1.778E+13 4.764E+00 7.305E+04 1.299E+06 1.993E+07 2.130E+07 2.130E+07 4.024E+07 43.0674 1.00000
  1.995E+13 1.995E+13 4.787E+00 8.197E+04 1.458E+06 2.287E+07 2.441E+07 2.441E+07 4.033E+07 43.2977 1.00000
  2.239E+13 2.239E+13 4.810E+00 9.197E+04 1.635E+06 2.625E+07 2.798E+07 2.798E+07 4.043E+07 43.5280 1.00000
  2.512E+13 2.512E+13 4.833E+00 1.032E+05 1.835E+06 3.014E+07 3.208E+07 3.208E+07 4.052E+07 43.7582 1.00000
  2.818E+13 2.818E+13 4.857E+00 1.158E+05 2.059E+06 3.460E+07 3.677E+07 3.677E+07 4.061E+07 43.9885 1.00000
  3.162E+13 3.162E+13 4.880E+00 1.299E+05 2.310E+06 3.972E+07 4.216E+07 4.216E+07 4.069E+07 44.2187 1.00000
  3.548E+13 3.548E+13 4.904E+00 1.458E+05 2.592E+06 4.561E+07 4.835E+07 4.835E+07 4.078E+07 44.4490 1.00000
  3.981E+13 3.981E+13 4.928E+00 1.636E+05 2.908E+06 5.237E+07 5.544E+07 5.544E+07 4.086E+07 44.6793 1.00000
  4.467E+13 4.467E+13 4.951E+00 1.835E+05 3.262E+06 6.013E+07 6.357E+07 6.357E+07 4.095E+07 44.9095 1.00000
  5.012E+13 5.012E+13 4.975E+00 2.059E+05 3.660E+06 6.904E+07 7.291E+07 7.291E+07 4.103E+07 45.1398 1.00000
  5.623E+13 5.623E+13 5.000E+00 2.310E+05 4.106E+06 7.929E+07 8.362E+07 8.362E+07 4.110E+07 45.3700 1.00000
  6.310E+13 6.310E+13 5.024E+00 2.592E+05 4.607E+06 9.105E+07 9.592E+07 9.592E+07 4.118E+07 45.6003 1.00000
  7.079E+13 7.079E+13 5.048E+00 2.908E+05 5.169E+06 1.046E+08 1.100E+08 1.100E+08 4.126E+07 45.8305 1.00000
  7.943E+13 7.943E+13 5.073E+00 3.263E+05 5.799E+06 1.201E+08 1.262E+08 1.262E+08 4.133E+07 46.0608 1.00000
  8.913E+13 8.913E+13 5.097E+00 3.662E+05 6.507E+06 1.379E+08 1.448E+08 1.448E+08 4.140E+07 46.2911 1.00000
