 Incident particle is a Tau with M = 1776.82000 MeV
 Index = 0: BoronOxide
      Absorber with <Z/A> = 0.48829
 Sternheimer coef:  a     k=m_s   x_0    x_1    I[eV]   Cbar  delta0
                 0.1155  3.3832  0.1843  2.7379   99.6  3.6027 0.00

 *** Table generated with PUMAS v1.00 ***

      T         p     Ionization  brems     pair     photonuc  Radloss    dE/dx   CSDA Range  delta   beta
    [MeV]    [MeV/c]  -----------------------[MeV cm^2/g]------------------------  [g/cm^2]
  1.000E+05 1.018E+05 2.115E+00 1.373E-04 2.135E-03 8.309E-03 1.058E-02 2.125E+00 2.353E+04  4.6008 0.99985
  1.122E+05 1.140E+05 2.133E+00 1.586E-04 2.576E-03 9.381E-03 1.212E-02 2.145E+00 2.924E+04  4.8100 0.99988
  1.259E+05 1.277E+05 2.152E+00 1.832E-04 3.097E-03 1.054E-02 1.382E-02 2.166E+00 3.559E+04  5.0217 0.99990
  1.413E+05 1.430E+05 2.171E+00 2.114E-04 3.711E-03 1.184E-02 1.576E-02 2.186E+00 4.265E+04  5.2356 0.99992
  1.585E+05 1.603E+05 2.189E+00 2.438E-04 4.433E-03 1.329E-02 1.797E-02 2.207E+00 5.050E+04  5.4516 0.99994
  1.778E+05 1.796E+05 2.208E+00 2.812E-04 5.279E-03 1.491E-02 2.047E-02 2.228E+00 5.922E+04  5.6695 0.99995
  1.995E+05 2.013E+05 2.226E+00 3.240E-04 6.271E-03 1.677E-02 2.336E-02 2.249E+00 6.891E+04  5.8891 0.99996
  2.239E+05 2.256E+05 2.244E+00 3.733E-04 7.430E-03 1.879E-02 2.659E-02 2.271E+00 7.969E+04  6.1103 0.99997
  2.512E+05 2.530E+05 2.262E+00 4.298E-04 8.783E-03 2.106E-02 3.027E-02 2.293E+00 9.166E+04  6.3329 0.99998
  2.818E+05 2.836E+05 2.280E+00 4.947E-04 1.036E-02 2.361E-02 3.446E-02 2.315E+00 1.050E+05  6.5567 0.99998
  3.162E+05 3.180E+05 2.299E+00 5.692E-04 1.219E-02 2.650E-02 3.926E-02 2.338E+00 1.197E+05  6.7817 0.99998
  3.548E+05 3.566E+05 2.317E+00 6.546E-04 1.431E-02 2.974E-02 4.471E-02 2.361E+00 1.362E+05  7.0077 0.99999
  3.981E+05 3.999E+05 2.334E+00 7.525E-04 1.677E-02 3.336E-02 5.088E-02 2.385E+00 1.544E+05  7.2346 0.99999
  4.467E+05 4.485E+05 2.352E+00 8.647E-04 1.962E-02 3.741E-02 5.790E-02 2.410E+00 1.747E+05  7.4622 0.99999
  5.012E+05 5.030E+05 2.370E+00 9.932E-04 2.292E-02 4.198E-02 6.589E-02 2.436E+00 1.972E+05  7.6903 0.99999
  5.623E+05 5.641E+05 2.388E+00 1.141E-03 2.672E-02 4.692E-02 7.478E-02 2.463E+00 2.221E+05  7.9190 1.00000
  6.310E+05 6.327E+05 2.405E+00 1.309E-03 3.110E-02 5.250E-02 8.490E-02 2.490E+00 2.498E+05  8.1481 1.00000
  7.079E+05 7.097E+05 2.423E+00 1.502E-03 3.614E-02 5.879E-02 9.643E-02 2.519E+00 2.806E+05  8.3775 1.00000
  7.943E+05 7.961E+05 2.440E+00 1.723E-03 4.194E-02 6.589E-02 1.095E-01 2.550E+00 3.147E+05  8.6071 1.00000
  8.913E+05 8.930E+05 2.458E+00 1.976E-03 4.859E-02 7.392E-02 1.245E-01 2.582E+00 3.524E+05  8.8369 1.00000
  1.000E+06 1.002E+06 2.475E+00 2.265E-03 5.623E-02 8.300E-02 1.415E-01 2.617E+00 3.943E+05  9.0667 1.00000
  1.122E+06 1.124E+06 2.492E+00 2.596E-03 6.498E-02 9.328E-02 1.608E-01 2.653E+00 4.406E+05  9.2966 1.00000
  1.259E+06 1.261E+06 2.510E+00 2.974E-03 7.499E-02 1.049E-01 1.829E-01 2.692E+00 4.918E+05  9.5265 1.00000
  1.413E+06 1.414E+06 2.527E+00 3.406E-03 8.644E-02 1.181E-01 2.080E-01 2.735E+00 5.484E+05  9.7564 1.00000
  1.585E+06 1.587E+06 2.544E+00 3.900E-03 9.952E-02 1.331E-01 2.365E-01 2.780E+00 6.109E+05  9.9864 1.00000
  1.778E+06 1.780E+06 2.560E+00 4.464E-03 1.144E-01 1.500E-01 2.689E-01 2.829E+00 6.799E+05 10.2164 1.00000
  1.995E+06 1.997E+06 2.577E+00 5.108E-03 1.315E-01 1.693E-01 3.059E-01 2.883E+00 7.559E+05 10.4465 1.00000
  2.239E+06 2.240E+06 2.594E+00 5.844E-03 1.508E-01 1.912E-01 3.479E-01 2.941E+00 8.395E+05 10.6766 1.00000
  2.512E+06 2.514E+06 2.610E+00 6.685E-03 1.729E-01 2.160E-01 3.956E-01 3.006E+00 9.314E+05 10.9066 1.00000
  2.818E+06 2.820E+06 2.626E+00 7.644E-03 1.980E-01 2.443E-01 4.499E-01 3.076E+00 1.032E+06 11.1367 1.00000
  3.162E+06 3.164E+06 2.642E+00 8.738E-03 2.265E-01 2.764E-01 5.116E-01 3.154E+00 1.143E+06 11.3669 1.00000
  3.548E+06 3.550E+06 2.658E+00 9.987E-03 2.588E-01 3.129E-01 5.817E-01 3.240E+00 1.263E+06 11.5970 1.00000
  3.981E+06 3.983E+06 2.674E+00 1.141E-02 2.955E-01 3.545E-01 6.614E-01 3.336E+00 1.395E+06 11.8272 1.00000
  4.467E+06 4.469E+06 2.690E+00 1.303E-02 3.370E-01 4.018E-01 7.519E-01 3.442E+00 1.538E+06 12.0573 1.00000
  5.012E+06 5.014E+06 2.705E+00 1.489E-02 3.841E-01 4.556E-01 8.547E-01 3.560E+00 1.694E+06 12.2875 1.00000
  5.623E+06 5.625E+06 2.721E+00 1.700E-02 4.375E-01 5.170E-01 9.714E-01 3.692E+00 1.863E+06 12.5177 1.00000
  6.310E+06 6.311E+06 2.736E+00 1.940E-02 4.978E-01 5.868E-01 1.104E+00 3.840E+00 2.045E+06 12.7479 1.00000
  7.079E+06 7.081E+06 2.751E+00 2.214E-02 5.660E-01 6.663E-01 1.254E+00 4.005E+00 2.241E+06 12.9781 1.00000
  7.943E+06 7.945E+06 2.766E+00 2.525E-02 6.430E-01 7.570E-01 1.425E+00 4.191E+00 2.452E+06 13.2083 1.00000
  8.913E+06 8.914E+06 2.781E+00 2.880E-02 7.301E-01 8.603E-01 1.619E+00 4.400E+00 2.678E+06 13.4385 1.00000
  1.000E+07 1.000E+07 2.795E+00 3.284E-02 8.283E-01 9.780E-01 1.839E+00 4.634E+00 2.919E+06 13.6687 1.00000
  1.122E+07 1.122E+07 2.810E+00 3.744E-02 9.392E-01 1.112E+00 2.089E+00 4.899E+00 3.175E+06 13.8989 1.00000
  1.259E+07 1.259E+07 2.824E+00 4.267E-02 1.064E+00 1.265E+00 2.372E+00 5.196E+00 3.447E+06 14.1291 1.00000
  1.413E+07 1.413E+07 2.838E+00 4.861E-02 1.205E+00 1.440E+00 2.694E+00 5.532E+00 3.733E+06 14.3594 1.00000
  1.585E+07 1.585E+07 2.852E+00 5.537E-02 1.364E+00 1.639E+00 3.058E+00 5.911E+00 4.035E+06 14.5896 1.00000
  1.778E+07 1.778E+07 2.866E+00 6.305E-02 1.543E+00 1.866E+00 3.472E+00 6.338E+00 4.351E+06 14.8198 1.00000
  1.995E+07 1.995E+07 2.880E+00 7.177E-02 1.745E+00 2.125E+00 3.941E+00 6.822E+00 4.681E+06 15.0501 1.00000
  2.239E+07 2.239E+07 2.894E+00 8.168E-02 1.972E+00 2.420E+00 4.474E+00 7.368E+00 5.025E+06 15.2803 1.00000
  2.512E+07 2.512E+07 2.908E+00 9.293E-02 2.227E+00 2.757E+00 5.077E+00 7.985E+00 5.381E+06 15.5105 1.00000
  2.818E+07 2.819E+07 2.922E+00 1.057E-01 2.515E+00 3.142E+00 5.762E+00 8.684E+00 5.750E+06 15.7408 1.00000
  3.162E+07 3.162E+07 2.935E+00 1.202E-01 2.838E+00 3.581E+00 6.539E+00 9.474E+00 6.129E+06 15.9710 1.00000
  3.548E+07 3.548E+07 2.949E+00 1.366E-01 3.202E+00 4.081E+00 7.420E+00 1.037E+01 6.519E+06 16.2013 1.00000
  3.981E+07 3.981E+07 2.963E+00 1.553E-01 3.611E+00 4.653E+00 8.419E+00 1.138E+01 6.918E+06 16.4315 1.00000
  4.467E+07 4.467E+07 2.976E+00 1.764E-01 4.070E+00 5.306E+00 9.552E+00 1.253E+01 7.325E+06 16.6618 1.00000
  5.012E+07 5.012E+07 2.990E+00 2.004E-01 4.587E+00 6.050E+00 1.084E+01 1.383E+01 7.740E+06 16.8920 1.00000
  5.623E+07 5.624E+07 3.003E+00 2.275E-01 5.168E+00 6.901E+00 1.230E+01 1.530E+01 8.161E+06 17.1223 1.00000
  6.310E+07 6.310E+07 3.017E+00 2.583E-01 5.821E+00 7.871E+00 1.395E+01 1.697E+01 8.587E+06 17.3525 1.00000
  7.079E+07 7.080E+07 3.030E+00 2.931E-01 6.554E+00 8.980E+00 1.583E+01 1.886E+01 9.018E+06 17.5828 1.00000
  7.943E+07 7.943E+07 3.044E+00 3.326E-01 7.378E+00 1.025E+01 1.796E+01 2.100E+01 9.453E+06 17.8130 1.00000
  8.913E+07 8.913E+07 3.058E+00 3.772E-01 8.303E+00 1.169E+01 2.037E+01 2.343E+01 9.891E+06 18.0433 1.00000
  1.000E+08 1.000E+08 3.071E+00 4.277E-01 9.342E+00 1.334E+01 2.311E+01 2.618E+01 1.033E+07 18.2735 1.00000
  1.122E+08 1.122E+08 3.085E+00 4.848E-01 1.051E+01 1.523E+01 2.622E+01 2.930E+01 1.077E+07 18.5038 1.00000
  1.259E+08 1.259E+08 3.099E+00 5.493E-01 1.182E+01 1.738E+01 2.975E+01 3.284E+01 1.121E+07 18.7340 1.00000
  1.413E+08 1.413E+08 3.112E+00 6.223E-01 1.329E+01 1.984E+01 3.375E+01 3.686E+01 1.166E+07 18.9643 1.00000
  1.585E+08 1.585E+08 3.126E+00 7.049E-01 1.494E+01 2.264E+01 3.829E+01 4.142E+01 1.210E+07 19.1946 1.00000
  1.778E+08 1.778E+08 3.140E+00 7.981E-01 1.680E+01 2.585E+01 4.345E+01 4.659E+01 1.254E+07 19.4248 1.00000
  1.995E+08 1.995E+08 3.154E+00 9.034E-01 1.888E+01 2.952E+01 4.930E+01 5.245E+01 1.298E+07 19.6551 1.00000
  2.239E+08 2.239E+08 3.168E+00 1.022E+00 2.122E+01 3.370E+01 5.594E+01 5.911E+01 1.342E+07 19.8853 1.00000
  2.512E+08 2.512E+08 3.182E+00 1.157E+00 2.384E+01 3.848E+01 6.348E+01 6.666E+01 1.385E+07 20.1156 1.00000
  2.818E+08 2.818E+08 3.196E+00 1.308E+00 2.678E+01 4.395E+01 7.204E+01 7.524E+01 1.429E+07 20.3458 1.00000
  3.162E+08 3.162E+08 3.210E+00 1.479E+00 3.009E+01 5.019E+01 8.176E+01 8.497E+01 1.472E+07 20.5761 1.00000
  3.548E+08 3.548E+08 3.224E+00 1.672E+00 3.380E+01 5.733E+01 9.280E+01 9.602E+01 1.514E+07 20.8064 1.00000
  3.981E+08 3.981E+08 3.238E+00 1.889E+00 3.796E+01 6.548E+01 1.053E+02 1.086E+02 1.557E+07 21.0366 1.00000
  4.467E+08 4.467E+08 3.252E+00 2.134E+00 4.263E+01 7.480E+01 1.196E+02 1.228E+02 1.599E+07 21.2669 1.00000
  5.012E+08 5.012E+08 3.267E+00 2.411E+00 4.788E+01 8.545E+01 1.357E+02 1.390E+02 1.641E+07 21.4971 1.00000
  5.623E+08 5.623E+08 3.281E+00 2.722E+00 5.376E+01 9.761E+01 1.541E+02 1.574E+02 1.682E+07 21.7274 1.00000
  6.310E+08 6.310E+08 3.296E+00 3.073E+00 6.036E+01 1.115E+02 1.750E+02 1.783E+02 1.723E+07 21.9576 1.00000
  7.079E+08 7.079E+08 3.310E+00 3.468E+00 6.777E+01 1.274E+02 1.987E+02 2.020E+02 1.764E+07 22.1879 1.00000
  7.943E+08 7.943E+08 3.325E+00 3.913E+00 7.609E+01 1.456E+02 2.256E+02 2.289E+02 1.804E+07 22.4182 1.00000
  8.913E+08 8.913E+08 3.340E+00 4.415E+00 8.542E+01 1.664E+02 2.562E+02 2.596E+02 1.844E+07 22.6484 1.00000
  1.000E+09 1.000E+09 3.355E+00 4.979E+00 9.589E+01 1.901E+02 2.910E+02 2.944E+02 1.884E+07 22.8787 1.00000
  1.122E+09 1.122E+09 3.369E+00 5.614E+00 1.076E+02 2.173E+02 3.305E+02 3.339E+02 1.923E+07 23.1089 1.00000
  1.259E+09 1.259E+09 3.384E+00 6.329E+00 1.208E+02 2.483E+02 3.755E+02 3.789E+02 1.961E+07 23.3392 1.00000
  1.413E+09 1.413E+09 3.399E+00 7.133E+00 1.356E+02 2.838E+02 4.266E+02 4.300E+02 1.999E+07 23.5694 1.00000
  1.585E+09 1.585E+09 3.415E+00 8.038E+00 1.522E+02 3.244E+02 4.847E+02 4.881E+02 2.037E+07 23.7997 1.00000
  1.778E+09 1.778E+09 3.430E+00 9.056E+00 1.709E+02 3.708E+02 5.507E+02 5.542E+02 2.074E+07 24.0300 1.00000
  1.995E+09 1.995E+09 3.445E+00 1.020E+01 1.918E+02 4.239E+02 6.259E+02 6.293E+02 2.111E+07 24.2602 1.00000
  2.239E+09 2.239E+09 3.460E+00 1.149E+01 2.152E+02 4.846E+02 7.113E+02 7.148E+02 2.147E+07 24.4905 1.00000
  2.512E+09 2.512E+09 3.476E+00 1.293E+01 2.415E+02 5.540E+02 8.085E+02 8.120E+02 2.183E+07 24.7207 1.00000
  2.818E+09 2.818E+09 3.491E+00 1.456E+01 2.710E+02 6.335E+02 9.191E+02 9.226E+02 2.219E+07 24.9510 1.00000
  3.162E+09 3.162E+09 3.507E+00 1.639E+01 3.042E+02 7.243E+02 1.045E+03 1.048E+03 2.254E+07 25.1813 1.00000
  3.548E+09 3.548E+09 3.523E+00 1.844E+01 3.414E+02 8.282E+02 1.188E+03 1.192E+03 2.288E+07 25.4115 1.00000
  3.981E+09 3.981E+09 3.539E+00 2.075E+01 3.831E+02 9.470E+02 1.351E+03 1.354E+03 2.323E+07 25.6418 1.00000
  4.467E+09 4.467E+09 3.554E+00 2.335E+01 4.299E+02 1.083E+03 1.536E+03 1.540E+03 2.356E+07 25.8720 1.00000
  5.012E+09 5.012E+09 3.570E+00 2.626E+01 4.824E+02 1.239E+03 1.747E+03 1.751E+03 2.390E+07 26.1023 1.00000
  5.623E+09 5.623E+09 3.587E+00 2.954E+01 5.413E+02 1.417E+03 1.987E+03 1.991E+03 2.422E+07 26.3325 1.00000
  6.310E+09 6.310E+09 3.603E+00 3.322E+01 6.074E+02 1.620E+03 2.261E+03 2.264E+03 2.455E+07 26.5628 1.00000
  7.079E+09 7.079E+09 3.619E+00 3.735E+01 6.816E+02 1.853E+03 2.572E+03 2.576E+03 2.487E+07 26.7931 1.00000
  7.943E+09 7.943E+09 3.635E+00 4.199E+01 7.648E+02 2.120E+03 2.927E+03 2.930E+03 2.518E+07 27.0233 1.00000
  8.913E+09 8.913E+09 3.652E+00 4.720E+01 8.582E+02 2.425E+03 3.330E+03 3.334E+03 2.549E+07 27.2536 1.00000
  1.000E+10 1.000E+10 3.668E+00 5.306E+01 9.630E+02 2.774E+03 3.790E+03 3.794E+03 2.580E+07 27.4838 1.00000
  1.122E+10 1.122E+10 3.685E+00 5.963E+01 1.081E+03 3.174E+03 4.314E+03 4.317E+03 2.610E+07 27.7141 1.00000
  1.259E+10 1.259E+10 3.702E+00 6.701E+01 1.212E+03 3.631E+03 4.910E+03 4.914E+03 2.640E+07 27.9444 1.00000
  1.413E+10 1.413E+10 3.718E+00 7.529E+01 1.360E+03 4.154E+03 5.590E+03 5.594E+03 2.669E+07 28.1746 1.00000
  1.585E+10 1.585E+10 3.735E+00 8.459E+01 1.526E+03 4.753E+03 6.365E+03 6.368E+03 2.698E+07 28.4049 1.00000
  1.778E+10 1.778E+10 3.752E+00 9.503E+01 1.713E+03 5.439E+03 7.247E+03 7.251E+03 2.727E+07 28.6351 1.00000
  1.995E+10 1.995E+10 3.769E+00 1.068E+02 1.922E+03 6.225E+03 8.253E+03 8.257E+03 2.755E+07 28.8654 1.00000
  2.239E+10 2.239E+10 3.787E+00 1.199E+02 2.156E+03 7.123E+03 9.400E+03 9.403E+03 2.783E+07 29.0957 1.00000
  2.512E+10 2.512E+10 3.804E+00 1.347E+02 2.419E+03 8.152E+03 1.071E+04 1.071E+04 2.810E+07 29.3259 1.00000
  2.818E+10 2.818E+10 3.821E+00 1.513E+02 2.715E+03 9.331E+03 1.220E+04 1.220E+04 2.837E+07 29.5562 1.00000
  3.162E+10 3.162E+10 3.839E+00 1.699E+02 3.046E+03 1.068E+04 1.390E+04 1.390E+04 2.863E+07 29.7864 1.00000
  3.548E+10 3.548E+10 3.856E+00 1.908E+02 3.418E+03 1.222E+04 1.583E+04 1.584E+04 2.889E+07 30.0167 1.00000
  3.981E+10 3.981E+10 3.874E+00 2.142E+02 3.835E+03 1.399E+04 1.804E+04 1.805E+04 2.915E+07 30.2469 1.00000
  4.467E+10 4.467E+10 3.892E+00 2.405E+02 4.303E+03 1.602E+04 2.056E+04 2.057E+04 2.940E+07 30.4772 1.00000
  5.012E+10 5.012E+10 3.910E+00 2.700E+02 4.828E+03 1.834E+04 2.344E+04 2.344E+04 2.965E+07 30.7075 1.00000
  5.623E+10 5.623E+10 3.928E+00 3.032E+02 5.417E+03 2.100E+04 2.672E+04 2.672E+04 2.990E+07 30.9377 1.00000
  6.310E+10 6.310E+10 3.946E+00 3.403E+02 6.077E+03 2.404E+04 3.046E+04 3.046E+04 3.014E+07 31.1680 1.00000
  7.079E+10 7.079E+10 3.964E+00 3.821E+02 6.819E+03 2.753E+04 3.473E+04 3.473E+04 3.037E+07 31.3982 1.00000
  7.943E+10 7.943E+10 3.982E+00 4.289E+02 7.651E+03 3.152E+04 3.960E+04 3.960E+04 3.061E+07 31.6285 1.00000
  8.913E+10 8.913E+10 4.001E+00 4.814E+02 8.584E+03 3.609E+04 4.516E+04 4.516E+04 3.084E+07 31.8588 1.00000
  1.000E+11 1.000E+11 4.019E+00 5.404E+02 9.632E+03 4.133E+04 5.151E+04 5.151E+04 3.106E+07 32.0890 1.00000
  1.122E+11 1.122E+11 4.038E+00 6.066E+02 1.081E+04 4.734E+04 5.875E+04 5.875E+04 3.128E+07 32.3193 1.00000
  1.259E+11 1.259E+11 4.056E+00 6.808E+02 1.212E+04 5.421E+04 6.702E+04 6.702E+04 3.150E+07 32.5495 1.00000
  1.413E+11 1.413E+11 4.075E+00 7.641E+02 1.360E+04 6.210E+04 7.646E+04 7.647E+04 3.172E+07 32.7798 1.00000
  1.585E+11 1.585E+11 4.094E+00 8.576E+02 1.526E+04 7.113E+04 8.725E+04 8.725E+04 3.193E+07 33.0100 1.00000
  1.778E+11 1.778E+11 4.113E+00 9.625E+02 1.713E+04 8.147E+04 9.956E+04 9.957E+04 3.214E+07 33.2403 1.00000
  1.995E+11 1.995E+11 4.132E+00 1.080E+03 1.921E+04 9.333E+04 1.136E+05 1.136E+05 3.234E+07 33.4706 1.00000
  2.239E+11 2.239E+11 4.152E+00 1.212E+03 2.156E+04 1.069E+05 1.297E+05 1.297E+05 3.254E+07 33.7008 1.00000
  2.512E+11 2.512E+11 4.171E+00 1.361E+03 2.419E+04 1.225E+05 1.480E+05 1.480E+05 3.274E+07 33.9311 1.00000
  2.818E+11 2.818E+11 4.190E+00 1.527E+03 2.714E+04 1.403E+05 1.690E+05 1.690E+05 3.294E+07 34.1613 1.00000
  3.162E+11 3.162E+11 4.210E+00 1.713E+03 3.045E+04 1.608E+05 1.930E+05 1.930E+05 3.313E+07 34.3916 1.00000
  3.548E+11 3.548E+11 4.230E+00 1.923E+03 3.416E+04 1.843E+05 2.203E+05 2.203E+05 3.331E+07 34.6219 1.00000
  3.981E+11 3.981E+11 4.249E+00 2.158E+03 3.833E+04 2.111E+05 2.516E+05 2.516E+05 3.350E+07 34.8521 1.00000
  4.467E+11 4.467E+11 4.269E+00 2.421E+03 4.301E+04 2.420E+05 2.874E+05 2.874E+05 3.368E+07 35.0824 1.00000
  5.012E+11 5.012E+11 4.289E+00 2.717E+03 4.825E+04 2.773E+05 3.283E+05 3.283E+05 3.386E+07 35.3126 1.00000
  5.623E+11 5.623E+11 4.309E+00 3.049E+03 5.414E+04 3.178E+05 3.750E+05 3.750E+05 3.403E+07 35.5429 1.00000
  6.310E+11 6.310E+11 4.330E+00 3.421E+03 6.074E+04 3.642E+05 4.284E+05 4.284E+05 3.420E+07 35.7731 1.00000
  7.079E+11 7.079E+11 4.350E+00 3.839E+03 6.815E+04 4.175E+05 4.895E+05 4.895E+05 3.437E+07 36.0034 1.00000
  7.943E+11 7.943E+11 4.371E+00 4.308E+03 7.647E+04 4.785E+05 5.593E+05 5.593E+05 3.454E+07 36.2337 1.00000
  8.913E+11 8.913E+11 4.391E+00 4.834E+03 8.580E+04 5.486E+05 6.392E+05 6.392E+05 3.470E+07 36.4639 1.00000
  1.000E+12 1.000E+12 4.412E+00 5.424E+03 9.626E+04 6.288E+05 7.305E+05 7.305E+05 3.486E+07 36.6942 1.00000
  1.122E+12 1.122E+12 4.433E+00 6.086E+03 1.080E+05 7.209E+05 8.350E+05 8.350E+05 3.502E+07 36.9244 1.00000
  1.259E+12 1.259E+12 4.454E+00 6.830E+03 1.212E+05 8.265E+05 9.545E+05 9.545E+05 3.517E+07 37.1547 1.00000
  1.413E+12 1.413E+12 4.475E+00 7.663E+03 1.360E+05 9.476E+05 1.091E+06 1.091E+06 3.532E+07 37.3850 1.00000
  1.585E+12 1.585E+12 4.496E+00 8.599E+03 1.525E+05 1.087E+06 1.248E+06 1.248E+06 3.547E+07 37.6152 1.00000
  1.778E+12 1.778E+12 4.517E+00 9.648E+03 1.711E+05 1.246E+06 1.427E+06 1.427E+06 3.561E+07 37.8455 1.00000
  1.995E+12 1.995E+12 4.538E+00 1.083E+04 1.920E+05 1.429E+06 1.632E+06 1.632E+06 3.576E+07 38.0757 1.00000
  2.239E+12 2.239E+12 4.560E+00 1.215E+04 2.154E+05 1.638E+06 1.866E+06 1.866E+06 3.590E+07 38.3060 1.00000
  2.512E+12 2.512E+12 4.582E+00 1.363E+04 2.417E+05 1.879E+06 2.134E+06 2.134E+06 3.603E+07 38.5362 1.00000
  2.818E+12 2.818E+12 4.603E+00 1.529E+04 2.712E+05 2.155E+06 2.442E+06 2.442E+06 3.617E+07 38.7665 1.00000
  3.162E+12 3.162E+12 4.625E+00 1.716E+04 3.043E+05 2.472E+06 2.793E+06 2.793E+06 3.630E+07 38.9968 1.00000
  3.548E+12 3.548E+12 4.647E+00 1.925E+04 3.414E+05 2.835E+06 3.196E+06 3.196E+06 3.643E+07 39.2270 1.00000
  3.981E+12 3.981E+12 4.669E+00 2.160E+04 3.830E+05 3.252E+06 3.657E+06 3.657E+06 3.656E+07 39.4573 1.00000
  4.467E+12 4.467E+12 4.691E+00 2.424E+04 4.297E+05 3.730E+06 4.184E+06 4.184E+06 3.668E+07 39.6875 1.00000
  5.012E+12 5.012E+12 4.714E+00 2.720E+04 4.822E+05 4.280E+06 4.789E+06 4.789E+06 3.680E+07 39.9178 1.00000
  5.623E+12 5.623E+12 4.736E+00 3.052E+04 5.410E+05 4.910E+06 5.481E+06 5.481E+06 3.692E+07 40.1481 1.00000
  6.310E+12 6.310E+12 4.759E+00 3.424E+04 6.070E+05 5.633E+06 6.274E+06 6.274E+06 3.704E+07 40.3783 1.00000
  7.079E+12 7.079E+12 4.782E+00 3.842E+04 6.810E+05 6.463E+06 7.182E+06 7.182E+06 3.715E+07 40.6086 1.00000
  7.943E+12 7.943E+12 4.804E+00 4.311E+04 7.640E+05 7.415E+06 8.223E+06 8.223E+06 3.727E+07 40.8388 1.00000
  8.913E+12 8.913E+12 4.827E+00 4.837E+04 8.572E+05 8.509E+06 9.414E+06 9.414E+06 3.738E+07 41.0691 1.00000
  1.000E+13 1.000E+13 4.850E+00 5.427E+04 9.618E+05 9.764E+06 1.078E+07 1.078E+07 3.749E+07 41.2994 1.00000
  1.122E+13 1.122E+13 4.874E+00 6.089E+04 1.079E+06 1.121E+07 1.235E+07 1.235E+07 3.759E+07 41.5296 1.00000
  1.259E+13 1.259E+13 4.897E+00 6.833E+04 1.211E+06 1.286E+07 1.414E+07 1.414E+07 3.770E+07 41.7599 1.00000
  1.413E+13 1.413E+13 4.920E+00 7.666E+04 1.358E+06 1.476E+07 1.619E+07 1.619E+07 3.780E+07 41.9901 1.00000
  1.585E+13 1.585E+13 4.944E+00 8.602E+04 1.524E+06 1.694E+07 1.855E+07 1.855E+07 3.790E+07 42.2204 1.00000
  1.778E+13 1.778E+13 4.968E+00 9.651E+04 1.710E+06 1.944E+07 2.125E+07 2.125E+07 3.799E+07 42.4506 1.00000
  1.995E+13 1.995E+13 4.992E+00 1.083E+05 1.918E+06 2.232E+07 2.434E+07 2.434E+07 3.809E+07 42.6809 1.00000
  2.239E+13 2.239E+13 5.016E+00 1.215E+05 2.152E+06 2.562E+07 2.789E+07 2.789E+07 3.818E+07 42.9112 1.00000
  2.512E+13 2.512E+13 5.040E+00 1.363E+05 2.415E+06 2.941E+07 3.196E+07 3.196E+07 3.828E+07 43.1414 1.00000
  2.818E+13 2.818E+13 5.064E+00 1.530E+05 2.709E+06 3.376E+07 3.662E+07 3.662E+07 3.837E+07 43.3717 1.00000
  3.162E+13 3.162E+13 5.088E+00 1.716E+05 3.040E+06 3.876E+07 4.197E+07 4.197E+07 3.845E+07 43.6019 1.00000
  3.548E+13 3.548E+13 5.113E+00 1.926E+05 3.411E+06 4.450E+07 4.810E+07 4.810E+07 3.854E+07 43.8322 1.00000
  3.981E+13 3.981E+13 5.138E+00 2.161E+05 3.826E+06 5.110E+07 5.514E+07 5.514E+07 3.862E+07 44.0625 1.00000
  4.467E+13 4.467E+13 5.162E+00 2.424E+05 4.293E+06 5.867E+07 6.321E+07 6.321E+07 3.871E+07 44.2927 1.00000
  5.012E+13 5.012E+13 5.187E+00 2.720E+05 4.817E+06 6.737E+07 7.246E+07 7.246E+07 3.879E+07 44.5230 1.00000
  5.623E+13 5.623E+13 5.212E+00 3.052E+05 5.404E+06 7.736E+07 8.307E+07 8.307E+07 3.887E+07 44.7532 1.00000
  6.310E+13 6.310E+13 5.237E+00 3.425E+05 6.063E+06 8.884E+07 9.525E+07 9.525E+07 3.894E+07 44.9835 1.00000
  7.079E+13 7.079E+13 5.263E+00 3.842E+05 6.803E+06 1.020E+08 1.092E+08 1.092E+08 3.902E+07 45.2137 1.00000
  7.943E+13 7.943E+13 5.288E+00 4.311E+05 7.632E+06 1.172E+08 1.252E+08 1.252E+08 3.909E+07 45.4440 1.00000
  8.913E+13 8.913E+13 5.314E+00 4.837E+05 8.563E+06 1.346E+08 1.436E+08 1.436E+08 3.916E+07 45.6743 1.00000
