 Incident particle is a Tau with M = 1776.82000 MeV
 Index = 0: Brain
      Absorber with <Z/A> = 0.55414
 Sternheimer coef:  a     k=m_s   x_0    x_1    I[eV]   Cbar  delta0
                 0.0825  3.5585  0.2206  2.8021   73.3  3.4279 0.00

 *** Table generated with PUMAS v1.00 ***

      T         p     Ionization  brems     pair     photonuc  Radloss    dE/dx   CSDA Range  delta   beta
    [MeV]    [MeV/c]  -----------------------[MeV cm^2/g]------------------------  [g/cm^2]
  1.000E+05 1.018E+05 2.438E+00 1.418E-04 2.212E-03 8.383E-03 1.074E-02 2.449E+00 2.042E+04  4.7639 0.99985
  1.122E+05 1.140E+05 2.459E+00 1.638E-04 2.671E-03 9.470E-03 1.230E-02 2.471E+00 2.538E+04  4.9753 0.99988
  1.259E+05 1.277E+05 2.480E+00 1.891E-04 3.213E-03 1.064E-02 1.404E-02 2.494E+00 3.089E+04  5.1888 0.99990
  1.413E+05 1.430E+05 2.501E+00 2.182E-04 3.852E-03 1.196E-02 1.603E-02 2.517E+00 3.702E+04  5.4043 0.99992
  1.585E+05 1.603E+05 2.522E+00 2.518E-04 4.603E-03 1.344E-02 1.829E-02 2.540E+00 4.384E+04  5.6217 0.99994
  1.778E+05 1.796E+05 2.543E+00 2.903E-04 5.485E-03 1.509E-02 2.086E-02 2.564E+00 5.142E+04  5.8407 0.99995
  1.995E+05 2.013E+05 2.564E+00 3.346E-04 6.518E-03 1.697E-02 2.383E-02 2.587E+00 5.984E+04  6.0613 0.99996
  2.239E+05 2.256E+05 2.584E+00 3.854E-04 7.725E-03 1.903E-02 2.714E-02 2.611E+00 6.921E+04  6.2833 0.99997
  2.512E+05 2.530E+05 2.605E+00 4.438E-04 9.134E-03 2.134E-02 3.092E-02 2.636E+00 7.962E+04  6.5066 0.99998
  2.818E+05 2.836E+05 2.625E+00 5.109E-04 1.077E-02 2.395E-02 3.523E-02 2.661E+00 9.119E+04  6.7310 0.99998
  3.162E+05 3.180E+05 2.646E+00 5.878E-04 1.268E-02 2.689E-02 4.016E-02 2.686E+00 1.041E+05  6.9563 0.99998
  3.548E+05 3.566E+05 2.666E+00 6.760E-04 1.490E-02 3.019E-02 4.577E-02 2.712E+00 1.184E+05  7.1826 0.99999
  3.981E+05 3.999E+05 2.687E+00 7.771E-04 1.746E-02 3.388E-02 5.212E-02 2.739E+00 1.342E+05  7.4096 0.99999
  4.467E+05 4.485E+05 2.707E+00 8.931E-04 2.043E-02 3.802E-02 5.935E-02 2.766E+00 1.519E+05  7.6372 0.99999
  5.012E+05 5.030E+05 2.727E+00 1.026E-03 2.387E-02 4.268E-02 6.758E-02 2.795E+00 1.715E+05  7.8654 0.99999
  5.623E+05 5.641E+05 2.747E+00 1.178E-03 2.783E-02 4.774E-02 7.674E-02 2.824E+00 1.933E+05  8.0941 1.00000
  6.310E+05 6.327E+05 2.767E+00 1.352E-03 3.240E-02 5.343E-02 8.718E-02 2.854E+00 2.174E+05  8.3231 1.00000
  7.079E+05 7.097E+05 2.787E+00 1.552E-03 3.766E-02 5.986E-02 9.907E-02 2.886E+00 2.443E+05  8.5525 1.00000
  7.943E+05 7.961E+05 2.807E+00 1.780E-03 4.370E-02 6.713E-02 1.126E-01 2.920E+00 2.740E+05  8.7820 1.00000
  8.913E+05 8.930E+05 2.827E+00 2.042E-03 5.065E-02 7.534E-02 1.280E-01 2.955E+00 3.070E+05  9.0117 1.00000
  1.000E+06 1.002E+06 2.846E+00 2.341E-03 5.862E-02 8.463E-02 1.456E-01 2.992E+00 3.436E+05  9.2415 1.00000
  1.122E+06 1.124E+06 2.866E+00 2.683E-03 6.775E-02 9.515E-02 1.656E-01 3.031E+00 3.841E+05  9.4714 1.00000
  1.259E+06 1.261E+06 2.885E+00 3.074E-03 7.820E-02 1.071E-01 1.883E-01 3.074E+00 4.290E+05  9.7013 1.00000
  1.413E+06 1.414E+06 2.905E+00 3.521E-03 9.015E-02 1.206E-01 2.142E-01 3.119E+00 4.786E+05  9.9312 1.00000
  1.585E+06 1.587E+06 2.924E+00 4.032E-03 1.038E-01 1.359E-01 2.437E-01 3.168E+00 5.334E+05 10.1612 1.00000
  1.778E+06 1.780E+06 2.943E+00 4.616E-03 1.194E-01 1.533E-01 2.773E-01 3.220E+00 5.940E+05 10.3912 1.00000
  1.995E+06 1.997E+06 2.962E+00 5.283E-03 1.371E-01 1.730E-01 3.154E-01 3.277E+00 6.608E+05 10.6213 1.00000
  2.239E+06 2.240E+06 2.981E+00 6.046E-03 1.574E-01 1.954E-01 3.588E-01 3.339E+00 7.344E+05 10.8514 1.00000
  2.512E+06 2.514E+06 2.999E+00 6.916E-03 1.804E-01 2.209E-01 4.082E-01 3.407E+00 8.153E+05 11.0814 1.00000
  2.818E+06 2.820E+06 3.018E+00 7.909E-03 2.066E-01 2.498E-01 4.643E-01 3.482E+00 9.043E+05 11.3115 1.00000
  3.162E+06 3.164E+06 3.036E+00 9.044E-03 2.363E-01 2.827E-01 5.281E-01 3.564E+00 1.002E+06 11.5417 1.00000
  3.548E+06 3.550E+06 3.054E+00 1.034E-02 2.701E-01 3.202E-01 6.006E-01 3.655E+00 1.109E+06 11.7718 1.00000
  3.981E+06 3.983E+06 3.072E+00 1.181E-02 3.084E-01 3.628E-01 6.830E-01 3.755E+00 1.226E+06 12.0020 1.00000
  4.467E+06 4.469E+06 3.090E+00 1.350E-02 3.519E-01 4.112E-01 7.766E-01 3.867E+00 1.353E+06 12.2321 1.00000
  5.012E+06 5.014E+06 3.108E+00 1.542E-02 4.011E-01 4.664E-01 8.829E-01 3.990E+00 1.492E+06 12.4623 1.00000
  5.623E+06 5.625E+06 3.125E+00 1.761E-02 4.568E-01 5.293E-01 1.004E+00 4.129E+00 1.643E+06 12.6925 1.00000
  6.310E+06 6.311E+06 3.142E+00 2.010E-02 5.198E-01 6.009E-01 1.141E+00 4.283E+00 1.806E+06 12.9227 1.00000
  7.079E+06 7.081E+06 3.159E+00 2.294E-02 5.911E-01 6.824E-01 1.296E+00 4.456E+00 1.982E+06 13.1529 1.00000
  7.943E+06 7.945E+06 3.176E+00 2.618E-02 6.716E-01 7.754E-01 1.473E+00 4.649E+00 2.172E+06 13.3831 1.00000
  8.913E+06 8.914E+06 3.193E+00 2.986E-02 7.626E-01 8.813E-01 1.674E+00 4.867E+00 2.376E+06 13.6133 1.00000
  1.000E+07 1.000E+07 3.209E+00 3.406E-02 8.653E-01 1.002E+00 1.901E+00 5.111E+00 2.594E+06 13.8435 1.00000
  1.122E+07 1.122E+07 3.226E+00 3.883E-02 9.812E-01 1.140E+00 2.160E+00 5.386E+00 2.827E+06 14.0737 1.00000
  1.259E+07 1.259E+07 3.242E+00 4.426E-02 1.112E+00 1.296E+00 2.453E+00 5.695E+00 3.074E+06 14.3039 1.00000
  1.413E+07 1.413E+07 3.258E+00 5.044E-02 1.259E+00 1.475E+00 2.785E+00 6.044E+00 3.336E+06 14.5342 1.00000
  1.585E+07 1.585E+07 3.274E+00 5.746E-02 1.425E+00 1.679E+00 3.162E+00 6.437E+00 3.612E+06 14.7644 1.00000
  1.778E+07 1.778E+07 3.290E+00 6.544E-02 1.613E+00 1.912E+00 3.590E+00 6.881E+00 3.903E+06 14.9946 1.00000
  1.995E+07 1.995E+07 3.306E+00 7.451E-02 1.823E+00 2.178E+00 4.076E+00 7.382E+00 4.208E+06 15.2249 1.00000
  2.239E+07 2.239E+07 3.322E+00 8.482E-02 2.061E+00 2.481E+00 4.626E+00 7.948E+00 4.526E+06 15.4551 1.00000
  2.512E+07 2.512E+07 3.337E+00 9.652E-02 2.328E+00 2.826E+00 5.251E+00 8.588E+00 4.857E+06 15.6853 1.00000
  2.818E+07 2.819E+07 3.353E+00 1.098E-01 2.628E+00 3.221E+00 5.959E+00 9.312E+00 5.200E+06 15.9156 1.00000
  3.162E+07 3.162E+07 3.369E+00 1.249E-01 2.967E+00 3.671E+00 6.762E+00 1.013E+01 5.554E+06 16.1458 1.00000
  3.548E+07 3.548E+07 3.384E+00 1.420E-01 3.347E+00 4.184E+00 7.673E+00 1.106E+01 5.919E+06 16.3761 1.00000
  3.981E+07 3.981E+07 3.399E+00 1.614E-01 3.775E+00 4.770E+00 8.706E+00 1.211E+01 6.294E+06 16.6063 1.00000
  4.467E+07 4.467E+07 3.415E+00 1.834E-01 4.255E+00 5.439E+00 9.878E+00 1.329E+01 6.677E+06 16.8366 1.00000
  5.012E+07 5.012E+07 3.430E+00 2.083E-01 4.796E+00 6.203E+00 1.121E+01 1.464E+01 7.068E+06 17.0668 1.00000
  5.623E+07 5.624E+07 3.446E+00 2.366E-01 5.403E+00 7.075E+00 1.271E+01 1.616E+01 7.466E+06 17.2971 1.00000
  6.310E+07 6.310E+07 3.461E+00 2.686E-01 6.086E+00 8.070E+00 1.442E+01 1.789E+01 7.870E+06 17.5273 1.00000
  7.079E+07 7.080E+07 3.476E+00 3.049E-01 6.853E+00 9.207E+00 1.636E+01 1.984E+01 8.280E+06 17.7576 1.00000
  7.943E+07 7.943E+07 3.492E+00 3.460E-01 7.714E+00 1.050E+01 1.856E+01 2.206E+01 8.693E+06 17.9878 1.00000
  8.913E+07 8.913E+07 3.507E+00 3.925E-01 8.682E+00 1.199E+01 2.106E+01 2.457E+01 9.110E+06 18.2181 1.00000
  1.000E+08 1.000E+08 3.523E+00 4.451E-01 9.768E+00 1.368E+01 2.389E+01 2.741E+01 9.530E+06 18.4483 1.00000
  1.122E+08 1.122E+08 3.538E+00 5.046E-01 1.099E+01 1.561E+01 2.710E+01 3.064E+01 9.951E+06 18.6786 1.00000
  1.259E+08 1.259E+08 3.554E+00 5.719E-01 1.236E+01 1.782E+01 3.075E+01 3.430E+01 1.037E+07 18.9088 1.00000
  1.413E+08 1.413E+08 3.569E+00 6.480E-01 1.390E+01 2.034E+01 3.489E+01 3.845E+01 1.080E+07 19.1391 1.00000
  1.585E+08 1.585E+08 3.585E+00 7.340E-01 1.563E+01 2.322E+01 3.958E+01 4.316E+01 1.122E+07 19.3694 1.00000
  1.778E+08 1.778E+08 3.601E+00 8.312E-01 1.757E+01 2.651E+01 4.491E+01 4.851E+01 1.165E+07 19.5996 1.00000
  1.995E+08 1.995E+08 3.616E+00 9.410E-01 1.974E+01 3.027E+01 5.095E+01 5.457E+01 1.207E+07 19.8299 1.00000
  2.239E+08 2.239E+08 3.632E+00 1.065E+00 2.219E+01 3.456E+01 5.781E+01 6.144E+01 1.249E+07 20.0601 1.00000
  2.512E+08 2.512E+08 3.648E+00 1.205E+00 2.493E+01 3.946E+01 6.560E+01 6.925E+01 1.291E+07 20.2904 1.00000
  2.818E+08 2.818E+08 3.664E+00 1.363E+00 2.801E+01 4.507E+01 7.444E+01 7.811E+01 1.333E+07 20.5206 1.00000
  3.162E+08 3.162E+08 3.680E+00 1.541E+00 3.147E+01 5.147E+01 8.448E+01 8.816E+01 1.374E+07 20.7509 1.00000
  3.548E+08 3.548E+08 3.696E+00 1.742E+00 3.535E+01 5.879E+01 9.588E+01 9.957E+01 1.415E+07 20.9812 1.00000
  3.981E+08 3.981E+08 3.712E+00 1.969E+00 3.970E+01 6.715E+01 1.088E+02 1.125E+02 1.456E+07 21.2114 1.00000
  4.467E+08 4.467E+08 3.728E+00 2.225E+00 4.459E+01 7.670E+01 1.235E+02 1.272E+02 1.497E+07 21.4417 1.00000
  5.012E+08 5.012E+08 3.745E+00 2.513E+00 5.007E+01 8.762E+01 1.402E+02 1.440E+02 1.537E+07 21.6719 1.00000
  5.623E+08 5.623E+08 3.761E+00 2.838E+00 5.623E+01 1.001E+02 1.592E+02 1.629E+02 1.577E+07 21.9022 1.00000
  6.310E+08 6.310E+08 3.778E+00 3.205E+00 6.314E+01 1.144E+02 1.807E+02 1.845E+02 1.617E+07 22.1324 1.00000
  7.079E+08 7.079E+08 3.794E+00 3.617E+00 7.089E+01 1.307E+02 2.052E+02 2.090E+02 1.656E+07 22.3627 1.00000
  7.943E+08 7.943E+08 3.811E+00 4.082E+00 7.959E+01 1.493E+02 2.330E+02 2.368E+02 1.695E+07 22.5930 1.00000
  8.913E+08 8.913E+08 3.827E+00 4.606E+00 8.935E+01 1.706E+02 2.646E+02 2.684E+02 1.734E+07 22.8232 1.00000
  1.000E+09 1.000E+09 3.844E+00 5.195E+00 1.003E+02 1.950E+02 3.005E+02 3.043E+02 1.772E+07 23.0535 1.00000
  1.122E+09 1.122E+09 3.861E+00 5.858E+00 1.126E+02 2.228E+02 3.413E+02 3.451E+02 1.810E+07 23.2837 1.00000
  1.259E+09 1.259E+09 3.878E+00 6.605E+00 1.264E+02 2.547E+02 3.876E+02 3.915E+02 1.847E+07 23.5140 1.00000
  1.413E+09 1.413E+09 3.895E+00 7.445E+00 1.419E+02 2.911E+02 4.404E+02 4.443E+02 1.884E+07 23.7442 1.00000
  1.585E+09 1.585E+09 3.912E+00 8.390E+00 1.592E+02 3.327E+02 5.003E+02 5.042E+02 1.920E+07 23.9745 1.00000
  1.778E+09 1.778E+09 3.930E+00 9.453E+00 1.787E+02 3.803E+02 5.684E+02 5.724E+02 1.956E+07 24.2048 1.00000
  1.995E+09 1.995E+09 3.947E+00 1.065E+01 2.006E+02 4.347E+02 6.459E+02 6.499E+02 1.992E+07 24.4350 1.00000
  2.239E+09 2.239E+09 3.964E+00 1.199E+01 2.251E+02 4.970E+02 7.341E+02 7.380E+02 2.027E+07 24.6653 1.00000
  2.512E+09 2.512E+09 3.982E+00 1.351E+01 2.526E+02 5.682E+02 8.343E+02 8.383E+02 2.062E+07 24.8955 1.00000
  2.818E+09 2.818E+09 4.000E+00 1.521E+01 2.835E+02 6.496E+02 9.483E+02 9.523E+02 2.096E+07 25.1258 1.00000
  3.162E+09 3.162E+09 4.017E+00 1.712E+01 3.182E+02 7.427E+02 1.078E+03 1.082E+03 2.130E+07 25.3561 1.00000
  3.548E+09 3.548E+09 4.035E+00 1.926E+01 3.571E+02 8.493E+02 1.226E+03 1.230E+03 2.164E+07 25.5863 1.00000
  3.981E+09 3.981E+09 4.053E+00 2.168E+01 4.007E+02 9.711E+02 1.394E+03 1.398E+03 2.197E+07 25.8166 1.00000
  4.467E+09 4.467E+09 4.071E+00 2.439E+01 4.497E+02 1.111E+03 1.585E+03 1.589E+03 2.230E+07 26.0468 1.00000
  5.012E+09 5.012E+09 4.089E+00 2.744E+01 5.046E+02 1.270E+03 1.802E+03 1.806E+03 2.262E+07 26.2771 1.00000
  5.623E+09 5.623E+09 4.108E+00 3.086E+01 5.662E+02 1.453E+03 2.050E+03 2.054E+03 2.294E+07 26.5073 1.00000
  6.310E+09 6.310E+09 4.126E+00 3.470E+01 6.354E+02 1.661E+03 2.331E+03 2.336E+03 2.325E+07 26.7376 1.00000
  7.079E+09 7.079E+09 4.144E+00 3.902E+01 7.130E+02 1.900E+03 2.652E+03 2.656E+03 2.356E+07 26.9679 1.00000
  7.943E+09 7.943E+09 4.163E+00 4.387E+01 8.000E+02 2.174E+03 3.018E+03 3.022E+03 2.387E+07 27.1981 1.00000
  8.913E+09 8.913E+09 4.182E+00 4.932E+01 8.977E+02 2.487E+03 3.434E+03 3.438E+03 2.417E+07 27.4284 1.00000
  1.000E+10 1.000E+10 4.200E+00 5.544E+01 1.007E+03 2.845E+03 3.907E+03 3.912E+03 2.446E+07 27.6586 1.00000
  1.122E+10 1.122E+10 4.219E+00 6.231E+01 1.130E+03 3.254E+03 4.447E+03 4.451E+03 2.476E+07 27.8889 1.00000
  1.259E+10 1.259E+10 4.238E+00 7.003E+01 1.268E+03 3.723E+03 5.062E+03 5.066E+03 2.505E+07 28.1192 1.00000
  1.413E+10 1.413E+10 4.257E+00 7.869E+01 1.423E+03 4.260E+03 5.762E+03 5.766E+03 2.533E+07 28.3494 1.00000
  1.585E+10 1.585E+10 4.276E+00 8.841E+01 1.597E+03 4.875E+03 6.560E+03 6.564E+03 2.561E+07 28.5797 1.00000
  1.778E+10 1.778E+10 4.296E+00 9.933E+01 1.792E+03 5.578E+03 7.469E+03 7.473E+03 2.589E+07 28.8099 1.00000
  1.995E+10 1.995E+10 4.315E+00 1.116E+02 2.010E+03 6.383E+03 8.505E+03 8.509E+03 2.616E+07 29.0402 1.00000
  2.239E+10 2.239E+10 4.335E+00 1.253E+02 2.256E+03 7.305E+03 9.686E+03 9.690E+03 2.643E+07 29.2705 1.00000
  2.512E+10 2.512E+10 4.354E+00 1.408E+02 2.531E+03 8.360E+03 1.103E+04 1.104E+04 2.670E+07 29.5007 1.00000
  2.818E+10 2.818E+10 4.374E+00 1.581E+02 2.840E+03 9.568E+03 1.257E+04 1.257E+04 2.696E+07 29.7310 1.00000
  3.162E+10 3.162E+10 4.394E+00 1.776E+02 3.186E+03 1.095E+04 1.432E+04 1.432E+04 2.721E+07 29.9612 1.00000
  3.548E+10 3.548E+10 4.414E+00 1.994E+02 3.575E+03 1.254E+04 1.631E+04 1.631E+04 2.747E+07 30.1915 1.00000
  3.981E+10 3.981E+10 4.434E+00 2.239E+02 4.011E+03 1.435E+04 1.859E+04 1.859E+04 2.771E+07 30.4217 1.00000
  4.467E+10 4.467E+10 4.454E+00 2.514E+02 4.501E+03 1.643E+04 2.118E+04 2.118E+04 2.796E+07 30.6520 1.00000
  5.012E+10 5.012E+10 4.474E+00 2.823E+02 5.050E+03 1.881E+04 2.414E+04 2.414E+04 2.820E+07 30.8823 1.00000
  5.623E+10 5.623E+10 4.495E+00 3.169E+02 5.666E+03 2.153E+04 2.751E+04 2.752E+04 2.844E+07 31.1125 1.00000
  6.310E+10 6.310E+10 4.515E+00 3.558E+02 6.357E+03 2.465E+04 3.137E+04 3.137E+04 2.867E+07 31.3428 1.00000
  7.079E+10 7.079E+10 4.536E+00 3.995E+02 7.133E+03 2.823E+04 3.576E+04 3.576E+04 2.890E+07 31.5730 1.00000
  7.943E+10 7.943E+10 4.557E+00 4.484E+02 8.003E+03 3.232E+04 4.077E+04 4.078E+04 2.913E+07 31.8033 1.00000
  8.913E+10 8.913E+10 4.578E+00 5.034E+02 8.980E+03 3.701E+04 4.650E+04 4.650E+04 2.935E+07 32.0336 1.00000
  1.000E+11 1.000E+11 4.599E+00 5.650E+02 1.008E+04 4.239E+04 5.303E+04 5.303E+04 2.957E+07 32.2638 1.00000
  1.122E+11 1.122E+11 4.620E+00 6.342E+02 1.130E+04 4.854E+04 6.048E+04 6.049E+04 2.979E+07 32.4941 1.00000
  1.259E+11 1.259E+11 4.641E+00 7.119E+02 1.268E+04 5.560E+04 6.899E+04 6.900E+04 3.000E+07 32.7243 1.00000
  1.413E+11 1.413E+11 4.662E+00 7.990E+02 1.423E+04 6.368E+04 7.871E+04 7.871E+04 3.021E+07 32.9546 1.00000
  1.585E+11 1.585E+11 4.684E+00 8.968E+02 1.597E+04 7.294E+04 8.980E+04 8.981E+04 3.042E+07 33.1848 1.00000
  1.778E+11 1.778E+11 4.705E+00 1.006E+03 1.791E+04 8.355E+04 1.025E+05 1.025E+05 3.062E+07 33.4151 1.00000
  1.995E+11 1.995E+11 4.727E+00 1.130E+03 2.010E+04 9.571E+04 1.169E+05 1.169E+05 3.082E+07 33.6454 1.00000
  2.239E+11 2.239E+11 4.749E+00 1.268E+03 2.255E+04 1.096E+05 1.335E+05 1.335E+05 3.101E+07 33.8756 1.00000
  2.512E+11 2.512E+11 4.771E+00 1.423E+03 2.530E+04 1.256E+05 1.523E+05 1.523E+05 3.120E+07 34.1059 1.00000
  2.818E+11 2.818E+11 4.793E+00 1.597E+03 2.839E+04 1.439E+05 1.739E+05 1.739E+05 3.139E+07 34.3361 1.00000
  3.162E+11 3.162E+11 4.815E+00 1.792E+03 3.185E+04 1.649E+05 1.985E+05 1.985E+05 3.158E+07 34.5664 1.00000
  3.548E+11 3.548E+11 4.837E+00 2.011E+03 3.574E+04 1.889E+05 2.267E+05 2.267E+05 3.176E+07 34.7967 1.00000
  3.981E+11 3.981E+11 4.860E+00 2.256E+03 4.010E+04 2.165E+05 2.589E+05 2.589E+05 3.194E+07 35.0269 1.00000
  4.467E+11 4.467E+11 4.882E+00 2.532E+03 4.499E+04 2.481E+05 2.956E+05 2.956E+05 3.212E+07 35.2572 1.00000
  5.012E+11 5.012E+11 4.905E+00 2.841E+03 5.048E+04 2.843E+05 3.377E+05 3.377E+05 3.229E+07 35.4874 1.00000
  5.623E+11 5.623E+11 4.928E+00 3.189E+03 5.663E+04 3.259E+05 3.857E+05 3.857E+05 3.246E+07 35.7177 1.00000
  6.310E+11 6.310E+11 4.951E+00 3.578E+03 6.354E+04 3.735E+05 4.406E+05 4.406E+05 3.262E+07 35.9479 1.00000
  7.079E+11 7.079E+11 4.974E+00 4.015E+03 7.129E+04 4.281E+05 5.034E+05 5.034E+05 3.279E+07 36.1782 1.00000
  7.943E+11 7.943E+11 4.997E+00 4.505E+03 7.999E+04 4.907E+05 5.752E+05 5.752E+05 3.295E+07 36.4085 1.00000
  8.913E+11 8.913E+11 5.021E+00 5.055E+03 8.975E+04 5.625E+05 6.573E+05 6.573E+05 3.311E+07 36.6387 1.00000
  1.000E+12 1.000E+12 5.044E+00 5.673E+03 1.007E+05 6.449E+05 7.512E+05 7.512E+05 3.326E+07 36.8690 1.00000
  1.122E+12 1.122E+12 5.068E+00 6.365E+03 1.130E+05 7.393E+05 8.586E+05 8.586E+05 3.341E+07 37.0992 1.00000
  1.259E+12 1.259E+12 5.091E+00 7.142E+03 1.268E+05 8.476E+05 9.815E+05 9.815E+05 3.356E+07 37.3295 1.00000
  1.413E+12 1.413E+12 5.115E+00 8.014E+03 1.422E+05 9.718E+05 1.122E+06 1.122E+06 3.371E+07 37.5598 1.00000
  1.585E+12 1.585E+12 5.139E+00 8.992E+03 1.596E+05 1.114E+06 1.283E+06 1.283E+06 3.385E+07 37.7900 1.00000
  1.778E+12 1.778E+12 5.164E+00 1.009E+04 1.790E+05 1.278E+06 1.467E+06 1.467E+06 3.400E+07 38.0203 1.00000
  1.995E+12 1.995E+12 5.188E+00 1.132E+04 2.009E+05 1.465E+06 1.677E+06 1.677E+06 3.413E+07 38.2505 1.00000
  2.239E+12 2.239E+12 5.212E+00 1.270E+04 2.254E+05 1.680E+06 1.918E+06 1.918E+06 3.427E+07 38.4808 1.00000
  2.512E+12 2.512E+12 5.237E+00 1.425E+04 2.529E+05 1.927E+06 2.194E+06 2.194E+06 3.440E+07 38.7110 1.00000
  2.818E+12 2.818E+12 5.261E+00 1.599E+04 2.837E+05 2.210E+06 2.510E+06 2.510E+06 3.454E+07 38.9413 1.00000
  3.162E+12 3.162E+12 5.286E+00 1.795E+04 3.183E+05 2.535E+06 2.871E+06 2.871E+06 3.466E+07 39.1716 1.00000
  3.548E+12 3.548E+12 5.311E+00 2.014E+04 3.571E+05 2.907E+06 3.285E+06 3.285E+06 3.479E+07 39.4018 1.00000
  3.981E+12 3.981E+12 5.336E+00 2.259E+04 4.007E+05 3.335E+06 3.758E+06 3.758E+06 3.491E+07 39.6321 1.00000
  4.467E+12 4.467E+12 5.361E+00 2.535E+04 4.495E+05 3.825E+06 4.300E+06 4.300E+06 3.503E+07 39.8623 1.00000
  5.012E+12 5.012E+12 5.387E+00 2.844E+04 5.044E+05 4.389E+06 4.921E+06 4.921E+06 3.515E+07 40.0926 1.00000
  5.623E+12 5.623E+12 5.412E+00 3.192E+04 5.659E+05 5.035E+06 5.632E+06 5.632E+06 3.527E+07 40.3229 1.00000
  6.310E+12 6.310E+12 5.438E+00 3.581E+04 6.349E+05 5.776E+06 6.447E+06 6.447E+06 3.538E+07 40.5531 1.00000
  7.079E+12 7.079E+12 5.464E+00 4.018E+04 7.123E+05 6.627E+06 7.380E+06 7.380E+06 3.550E+07 40.7834 1.00000
  7.943E+12 7.943E+12 5.490E+00 4.508E+04 7.992E+05 7.604E+06 8.449E+06 8.449E+06 3.560E+07 41.0136 1.00000
  8.913E+12 8.913E+12 5.516E+00 5.059E+04 8.967E+05 8.726E+06 9.673E+06 9.673E+06 3.571E+07 41.2439 1.00000
  1.000E+13 1.000E+13 5.542E+00 5.676E+04 1.006E+06 1.001E+07 1.108E+07 1.108E+07 3.582E+07 41.4742 1.00000
  1.122E+13 1.122E+13 5.568E+00 6.368E+04 1.129E+06 1.149E+07 1.268E+07 1.268E+07 3.592E+07 41.7044 1.00000
  1.259E+13 1.259E+13 5.595E+00 7.145E+04 1.266E+06 1.319E+07 1.452E+07 1.452E+07 3.602E+07 41.9347 1.00000
  1.413E+13 1.413E+13 5.621E+00 8.017E+04 1.421E+06 1.513E+07 1.664E+07 1.664E+07 3.612E+07 42.1649 1.00000
  1.585E+13 1.585E+13 5.648E+00 8.996E+04 1.594E+06 1.737E+07 1.905E+07 1.905E+07 3.622E+07 42.3952 1.00000
  1.778E+13 1.778E+13 5.675E+00 1.009E+05 1.789E+06 1.994E+07 2.183E+07 2.183E+07 3.631E+07 42.6254 1.00000
  1.995E+13 1.995E+13 5.702E+00 1.133E+05 2.007E+06 2.289E+07 2.501E+07 2.501E+07 3.641E+07 42.8557 1.00000
  2.239E+13 2.239E+13 5.729E+00 1.271E+05 2.252E+06 2.627E+07 2.865E+07 2.865E+07 3.650E+07 43.0860 1.00000
  2.512E+13 2.512E+13 5.757E+00 1.426E+05 2.526E+06 3.016E+07 3.283E+07 3.283E+07 3.659E+07 43.3162 1.00000
  2.818E+13 2.818E+13 5.784E+00 1.600E+05 2.834E+06 3.462E+07 3.762E+07 3.762E+07 3.667E+07 43.5465 1.00000
  3.162E+13 3.162E+13 5.812E+00 1.795E+05 3.180E+06 3.975E+07 4.311E+07 4.311E+07 3.676E+07 43.7767 1.00000
  3.548E+13 3.548E+13 5.840E+00 2.014E+05 3.568E+06 4.563E+07 4.940E+07 4.940E+07 3.684E+07 44.0070 1.00000
  3.981E+13 3.981E+13 5.868E+00 2.260E+05 4.003E+06 5.240E+07 5.663E+07 5.663E+07 3.693E+07 44.2373 1.00000
  4.467E+13 4.467E+13 5.896E+00 2.535E+05 4.491E+06 6.016E+07 6.491E+07 6.491E+07 3.701E+07 44.4675 1.00000
  5.012E+13 5.012E+13 5.924E+00 2.845E+05 5.039E+06 6.909E+07 7.441E+07 7.441E+07 3.708E+07 44.6978 1.00000
  5.623E+13 5.623E+13 5.952E+00 3.192E+05 5.653E+06 7.933E+07 8.531E+07 8.531E+07 3.716E+07 44.9280 1.00000
  6.310E+13 6.310E+13 5.981E+00 3.581E+05 6.342E+06 9.111E+07 9.781E+07 9.781E+07 3.724E+07 45.1583 1.00000
  7.079E+13 7.079E+13 6.010E+00 4.018E+05 7.116E+06 1.046E+08 1.121E+08 1.121E+08 3.731E+07 45.3885 1.00000
  7.943E+13 7.943E+13 6.039E+00 4.509E+05 7.984E+06 1.202E+08 1.286E+08 1.286E+08 3.738E+07 45.6188 1.00000
  8.913E+13 8.913E+13 6.068E+00 5.059E+05 8.957E+06 1.380E+08 1.475E+08 1.475E+08 3.745E+07 45.8491 1.00000
