 Incident particle is a Tau with M = 1776.82000 MeV
 Index = 0: BromineGas
      Absorber with <Z/A> = 0.43803
 Sternheimer coef:  a     k=m_s   x_0    x_1    I[eV]   Cbar  delta0
                 0.0633  3.4670  1.5262  4.9899  343.0 11.7307 0.00

 *** Table generated with PUMAS v1.00 ***

      T         p     Ionization  brems     pair     photonuc  Radloss    dE/dx   CSDA Range  delta   beta
    [MeV]    [MeV/c]  -----------------------[MeV cm^2/g]------------------------  [g/cm^2]
  1.000E+05 1.018E+05 2.036E+00 5.323E-04 8.928E-03 7.802E-03 1.726E-02 2.053E+00 2.435E+04  0.0608 0.99985
  1.122E+05 1.140E+05 2.064E+00 6.164E-04 1.070E-02 8.775E-03 2.009E-02 2.085E+00 3.025E+04  0.0960 0.99988
  1.259E+05 1.277E+05 2.093E+00 7.134E-04 1.279E-02 9.816E-03 2.332E-02 2.116E+00 3.677E+04  0.1383 0.99990
  1.413E+05 1.430E+05 2.120E+00 8.252E-04 1.525E-02 1.098E-02 2.706E-02 2.147E+00 4.398E+04  0.1878 0.99992
  1.585E+05 1.603E+05 2.148E+00 9.540E-04 1.812E-02 1.229E-02 3.136E-02 2.179E+00 5.194E+04  0.2443 0.99994
  1.778E+05 1.796E+05 2.175E+00 1.102E-03 2.149E-02 1.373E-02 3.632E-02 2.211E+00 6.076E+04  0.3075 0.99995
  1.995E+05 2.013E+05 2.201E+00 1.273E-03 2.542E-02 1.538E-02 4.207E-02 2.243E+00 7.050E+04  0.3775 0.99996
  2.239E+05 2.256E+05 2.227E+00 1.469E-03 3.000E-02 1.717E-02 4.864E-02 2.276E+00 8.127E+04  0.4540 0.99997
  2.512E+05 2.530E+05 2.253E+00 1.695E-03 3.533E-02 1.917E-02 5.619E-02 2.309E+00 9.319E+04  0.5368 0.99998
  2.818E+05 2.836E+05 2.278E+00 1.954E-03 4.152E-02 2.141E-02 6.489E-02 2.343E+00 1.064E+05  0.6259 0.99998
  3.162E+05 3.180E+05 2.303E+00 2.251E-03 4.869E-02 2.394E-02 7.488E-02 2.378E+00 1.209E+05  0.7211 0.99998
  3.548E+05 3.566E+05 2.328E+00 2.593E-03 5.699E-02 2.677E-02 8.636E-02 2.414E+00 1.370E+05  0.8221 0.99999
  3.981E+05 3.999E+05 2.352E+00 2.985E-03 6.658E-02 2.992E-02 9.949E-02 2.451E+00 1.548E+05  0.9290 0.99999
  4.467E+05 4.485E+05 2.376E+00 3.434E-03 7.765E-02 3.344E-02 1.145E-01 2.490E+00 1.745E+05  1.0415 0.99999
  5.012E+05 5.030E+05 2.399E+00 3.950E-03 9.040E-02 3.739E-02 1.317E-01 2.531E+00 1.962E+05  1.1594 0.99999
  5.623E+05 5.641E+05 2.422E+00 4.540E-03 1.051E-01 4.166E-02 1.513E-01 2.573E+00 2.202E+05  1.2827 1.00000
  6.310E+05 6.327E+05 2.445E+00 5.216E-03 1.219E-01 4.645E-02 1.736E-01 2.618E+00 2.466E+05  1.4111 1.00000
  7.079E+05 7.097E+05 2.467E+00 5.990E-03 1.413E-01 5.185E-02 1.991E-01 2.666E+00 2.758E+05  1.5446 1.00000
  7.943E+05 7.961E+05 2.489E+00 6.876E-03 1.634E-01 5.794E-02 2.282E-01 2.717E+00 3.079E+05  1.6829 1.00000
  8.913E+05 8.930E+05 2.510E+00 7.889E-03 1.888E-01 6.480E-02 2.615E-01 2.772E+00 3.432E+05  1.8260 1.00000
  1.000E+06 1.002E+06 2.531E+00 9.048E-03 2.178E-01 7.255E-02 2.994E-01 2.831E+00 3.820E+05  1.9736 1.00000
  1.122E+06 1.124E+06 2.552E+00 1.037E-02 2.510E-01 8.131E-02 3.427E-01 2.894E+00 4.246E+05  2.1256 1.00000
  1.259E+06 1.261E+06 2.572E+00 1.189E-02 2.888E-01 9.122E-02 3.919E-01 2.964E+00 4.714E+05  2.2820 1.00000
  1.413E+06 1.414E+06 2.592E+00 1.362E-02 3.319E-01 1.024E-01 4.479E-01 3.040E+00 5.226E+05  2.4425 1.00000
  1.585E+06 1.587E+06 2.612E+00 1.559E-02 3.810E-01 1.151E-01 5.117E-01 3.123E+00 5.785E+05  2.6069 1.00000
  1.778E+06 1.780E+06 2.631E+00 1.784E-02 4.368E-01 1.295E-01 5.842E-01 3.215E+00 6.395E+05  2.7753 1.00000
  1.995E+06 1.997E+06 2.650E+00 2.042E-02 5.003E-01 1.459E-01 6.665E-01 3.316E+00 7.060E+05  2.9474 1.00000
  2.239E+06 2.240E+06 2.668E+00 2.335E-02 5.723E-01 1.644E-01 7.601E-01 3.428E+00 7.782E+05  3.1230 1.00000
  2.512E+06 2.514E+06 2.686E+00 2.670E-02 6.541E-01 1.854E-01 8.662E-01 3.553E+00 8.565E+05  3.3021 1.00000
  2.818E+06 2.820E+06 2.704E+00 3.051E-02 7.468E-01 2.093E-01 9.866E-01 3.691E+00 9.411E+05  3.4846 1.00000
  3.162E+06 3.164E+06 2.722E+00 3.486E-02 8.519E-01 2.364E-01 1.123E+00 3.845E+00 1.032E+06  3.6702 1.00000
  3.548E+06 3.550E+06 2.739E+00 3.982E-02 9.708E-01 2.673E-01 1.278E+00 4.017E+00 1.131E+06  3.8588 1.00000
  3.981E+06 3.983E+06 2.756E+00 4.546E-02 1.105E+00 3.024E-01 1.453E+00 4.209E+00 1.236E+06  4.0504 1.00000
  4.467E+06 4.469E+06 2.772E+00 5.189E-02 1.257E+00 3.423E-01 1.652E+00 4.424E+00 1.349E+06  4.2449 1.00000
  5.012E+06 5.014E+06 2.788E+00 5.920E-02 1.429E+00 3.877E-01 1.876E+00 4.664E+00 1.469E+06  4.4419 1.00000
  5.623E+06 5.625E+06 2.804E+00 6.752E-02 1.623E+00 4.395E-01 2.130E+00 4.934E+00 1.596E+06  4.6416 1.00000
  6.310E+06 6.311E+06 2.820E+00 7.699E-02 1.843E+00 4.983E-01 2.418E+00 5.237E+00 1.731E+06  4.8436 1.00000
  7.079E+06 7.081E+06 2.835E+00 8.776E-02 2.090E+00 5.654E-01 2.743E+00 5.578E+00 1.874E+06  5.0480 1.00000
  7.943E+06 7.945E+06 2.850E+00 1.000E-01 2.369E+00 6.418E-01 3.110E+00 5.960E+00 2.024E+06  5.2546 1.00000
  8.913E+06 8.914E+06 2.864E+00 1.139E-01 2.683E+00 7.288E-01 3.526E+00 6.390E+00 2.181E+06  5.4633 1.00000
  1.000E+07 1.000E+07 2.879E+00 1.297E-01 3.037E+00 8.279E-01 3.995E+00 6.874E+00 2.345E+06  5.6739 1.00000
  1.122E+07 1.122E+07 2.893E+00 1.477E-01 3.436E+00 9.410E-01 4.525E+00 7.418E+00 2.516E+06  5.8864 1.00000
  1.259E+07 1.259E+07 2.907E+00 1.681E-01 3.886E+00 1.070E+00 5.123E+00 8.030E+00 2.693E+06  6.1007 1.00000
  1.413E+07 1.413E+07 2.921E+00 1.912E-01 4.391E+00 1.217E+00 5.799E+00 8.720E+00 2.877E+06  6.3166 1.00000
  1.585E+07 1.585E+07 2.934E+00 2.174E-01 4.961E+00 1.384E+00 6.562E+00 9.496E+00 3.067E+06  6.5340 1.00000
  1.778E+07 1.778E+07 2.948E+00 2.472E-01 5.601E+00 1.575E+00 7.424E+00 1.037E+01 3.262E+06  6.7528 1.00000
  1.995E+07 1.995E+07 2.961E+00 2.810E-01 6.321E+00 1.793E+00 8.396E+00 1.136E+01 3.462E+06  6.9730 1.00000
  2.239E+07 2.239E+07 2.974E+00 3.193E-01 7.131E+00 2.042E+00 9.493E+00 1.247E+01 3.667E+06  7.1945 1.00000
  2.512E+07 2.512E+07 2.987E+00 3.627E-01 8.042E+00 2.325E+00 1.073E+01 1.372E+01 3.876E+06  7.4171 1.00000
  2.818E+07 2.819E+07 2.999E+00 4.119E-01 9.066E+00 2.649E+00 1.213E+01 1.513E+01 4.089E+06  7.6407 1.00000
  3.162E+07 3.162E+07 3.012E+00 4.676E-01 1.022E+01 3.018E+00 1.370E+01 1.671E+01 4.306E+06  7.8653 1.00000
  3.548E+07 3.548E+07 3.025E+00 5.306E-01 1.151E+01 3.440E+00 1.548E+01 1.851E+01 4.525E+06  8.0907 1.00000
  3.981E+07 3.981E+07 3.037E+00 6.020E-01 1.296E+01 3.921E+00 1.749E+01 2.052E+01 4.748E+06  8.3170 1.00000
  4.467E+07 4.467E+07 3.049E+00 6.828E-01 1.460E+01 4.469E+00 1.975E+01 2.280E+01 4.973E+06  8.5439 1.00000
  5.012E+07 5.012E+07 3.062E+00 7.742E-01 1.643E+01 5.096E+00 2.230E+01 2.536E+01 5.200E+06  8.7715 1.00000
  5.623E+07 5.624E+07 3.074E+00 8.775E-01 1.849E+01 5.811E+00 2.518E+01 2.825E+01 5.428E+06  8.9996 1.00000
  6.310E+07 6.310E+07 3.086E+00 9.944E-01 2.080E+01 6.628E+00 2.843E+01 3.151E+01 5.659E+06  9.2282 1.00000
  7.079E+07 7.080E+07 3.099E+00 1.126E+00 2.340E+01 7.560E+00 3.209E+01 3.519E+01 5.890E+06  9.4572 1.00000
  7.943E+07 7.943E+07 3.111E+00 1.276E+00 2.632E+01 8.625E+00 3.622E+01 3.933E+01 6.123E+06  9.6865 1.00000
  8.913E+07 8.913E+07 3.123E+00 1.444E+00 2.959E+01 9.840E+00 4.088E+01 4.400E+01 6.356E+06  9.9161 1.00000
  1.000E+08 1.000E+08 3.135E+00 1.635E+00 3.327E+01 1.123E+01 4.613E+01 4.927E+01 6.590E+06 10.1460 1.00000
  1.122E+08 1.122E+08 3.148E+00 1.849E+00 3.740E+01 1.281E+01 5.206E+01 5.521E+01 6.824E+06 10.3760 1.00000
  1.259E+08 1.259E+08 3.160E+00 2.092E+00 4.204E+01 1.462E+01 5.875E+01 6.191E+01 7.059E+06 10.6061 1.00000
  1.413E+08 1.413E+08 3.172E+00 2.366E+00 4.724E+01 1.669E+01 6.630E+01 6.947E+01 7.294E+06 10.8363 1.00000
  1.585E+08 1.585E+08 3.185E+00 2.674E+00 5.308E+01 1.905E+01 7.481E+01 7.799E+01 7.528E+06 11.0666 1.00000
  1.778E+08 1.778E+08 3.197E+00 3.022E+00 5.963E+01 2.175E+01 8.441E+01 8.760E+01 7.762E+06 11.2968 1.00000
  1.995E+08 1.995E+08 3.209E+00 3.415E+00 6.699E+01 2.483E+01 9.524E+01 9.845E+01 7.996E+06 11.5271 1.00000
  2.239E+08 2.239E+08 3.222E+00 3.857E+00 7.525E+01 2.835E+01 1.075E+02 1.107E+02 8.230E+06 11.7573 1.00000
  2.512E+08 2.512E+08 3.234E+00 4.356E+00 8.452E+01 3.238E+01 1.213E+02 1.245E+02 8.463E+06 11.9876 1.00000
  2.818E+08 2.818E+08 3.247E+00 4.918E+00 9.492E+01 3.697E+01 1.368E+02 1.401E+02 8.696E+06 12.2178 1.00000
  3.162E+08 3.162E+08 3.260E+00 5.550E+00 1.066E+02 4.222E+01 1.544E+02 1.576E+02 8.928E+06 12.4481 1.00000
  3.548E+08 3.548E+08 3.272E+00 6.263E+00 1.197E+02 4.822E+01 1.742E+02 1.775E+02 9.159E+06 12.6784 1.00000
  3.981E+08 3.981E+08 3.285E+00 7.065E+00 1.344E+02 5.508E+01 1.965E+02 1.998E+02 9.389E+06 12.9086 1.00000
  4.467E+08 4.467E+08 3.298E+00 7.968E+00 1.509E+02 6.292E+01 2.218E+02 2.251E+02 9.618E+06 13.1389 1.00000
  5.012E+08 5.012E+08 3.311E+00 8.984E+00 1.694E+02 7.187E+01 2.503E+02 2.536E+02 9.847E+06 13.3691 1.00000
  5.623E+08 5.623E+08 3.324E+00 1.013E+01 1.902E+02 8.211E+01 2.824E+02 2.857E+02 1.007E+07 13.5994 1.00000
  6.310E+08 6.310E+08 3.337E+00 1.141E+01 2.135E+02 9.381E+01 3.187E+02 3.221E+02 1.030E+07 13.8296 1.00000
  7.079E+08 7.079E+08 3.350E+00 1.286E+01 2.397E+02 1.072E+02 3.597E+02 3.631E+02 1.053E+07 14.0599 1.00000
  7.943E+08 7.943E+08 3.363E+00 1.449E+01 2.690E+02 1.225E+02 4.060E+02 4.093E+02 1.075E+07 14.2902 1.00000
  8.913E+08 8.913E+08 3.376E+00 1.632E+01 3.020E+02 1.399E+02 4.582E+02 4.616E+02 1.097E+07 14.5204 1.00000
  1.000E+09 1.000E+09 3.390E+00 1.837E+01 3.389E+02 1.599E+02 5.172E+02 5.206E+02 1.120E+07 14.7507 1.00000
  1.122E+09 1.122E+09 3.403E+00 2.069E+01 3.804E+02 1.827E+02 5.838E+02 5.872E+02 1.142E+07 14.9809 1.00000
  1.259E+09 1.259E+09 3.416E+00 2.329E+01 4.269E+02 2.089E+02 6.591E+02 6.625E+02 1.164E+07 15.2112 1.00000
  1.413E+09 1.413E+09 3.430E+00 2.621E+01 4.792E+02 2.387E+02 7.441E+02 7.475E+02 1.186E+07 15.4414 1.00000
  1.585E+09 1.585E+09 3.443E+00 2.949E+01 5.378E+02 2.729E+02 8.401E+02 8.435E+02 1.207E+07 15.6717 1.00000
  1.778E+09 1.778E+09 3.457E+00 3.318E+01 6.035E+02 3.119E+02 9.486E+02 9.520E+02 1.229E+07 15.9020 1.00000
  1.995E+09 1.995E+09 3.471E+00 3.732E+01 6.773E+02 3.565E+02 1.071E+03 1.075E+03 1.251E+07 16.1322 1.00000
  2.239E+09 2.239E+09 3.485E+00 4.197E+01 7.600E+02 4.076E+02 1.210E+03 1.213E+03 1.272E+07 16.3625 1.00000
  2.512E+09 2.512E+09 3.498E+00 4.720E+01 8.529E+02 4.660E+02 1.366E+03 1.370E+03 1.293E+07 16.5927 1.00000
  2.818E+09 2.818E+09 3.512E+00 5.307E+01 9.571E+02 5.328E+02 1.543E+03 1.546E+03 1.314E+07 16.8230 1.00000
  3.162E+09 3.162E+09 3.526E+00 5.967E+01 1.074E+03 6.091E+02 1.743E+03 1.746E+03 1.335E+07 17.0533 1.00000
  3.548E+09 3.548E+09 3.540E+00 6.707E+01 1.205E+03 6.965E+02 1.969E+03 1.972E+03 1.356E+07 17.2835 1.00000
  3.981E+09 3.981E+09 3.555E+00 7.539E+01 1.352E+03 7.965E+02 2.224E+03 2.228E+03 1.377E+07 17.5138 1.00000
  4.467E+09 4.467E+09 3.569E+00 8.472E+01 1.518E+03 9.108E+02 2.513E+03 2.517E+03 1.397E+07 17.7440 1.00000
  5.012E+09 5.012E+09 3.583E+00 9.520E+01 1.703E+03 1.042E+03 2.840E+03 2.843E+03 1.418E+07 17.9743 1.00000
  5.623E+09 5.623E+09 3.598E+00 1.070E+02 1.911E+03 1.191E+03 3.209E+03 3.213E+03 1.438E+07 18.2045 1.00000
  6.310E+09 6.310E+09 3.612E+00 1.202E+02 2.144E+03 1.363E+03 3.627E+03 3.631E+03 1.458E+07 18.4348 1.00000
  7.079E+09 7.079E+09 3.627E+00 1.350E+02 2.406E+03 1.559E+03 4.099E+03 4.103E+03 1.478E+07 18.6651 1.00000
  7.943E+09 7.943E+09 3.641E+00 1.517E+02 2.700E+03 1.783E+03 4.634E+03 4.638E+03 1.498E+07 18.8953 1.00000
  8.913E+09 8.913E+09 3.656E+00 1.703E+02 3.029E+03 2.039E+03 5.239E+03 5.242E+03 1.518E+07 19.1256 1.00000
  1.000E+10 1.000E+10 3.671E+00 1.913E+02 3.399E+03 2.333E+03 5.923E+03 5.927E+03 1.537E+07 19.3558 1.00000
  1.122E+10 1.122E+10 3.686E+00 2.149E+02 3.814E+03 2.669E+03 6.698E+03 6.701E+03 1.557E+07 19.5861 1.00000
  1.259E+10 1.259E+10 3.701E+00 2.413E+02 4.279E+03 3.054E+03 7.574E+03 7.578E+03 1.576E+07 19.8164 1.00000
  1.413E+10 1.413E+10 3.716E+00 2.709E+02 4.801E+03 3.494E+03 8.566E+03 8.570E+03 1.595E+07 20.0466 1.00000
  1.585E+10 1.585E+10 3.731E+00 3.042E+02 5.387E+03 3.998E+03 9.689E+03 9.693E+03 1.614E+07 20.2769 1.00000
  1.778E+10 1.778E+10 3.746E+00 3.416E+02 6.045E+03 4.575E+03 1.096E+04 1.096E+04 1.633E+07 20.5071 1.00000
  1.995E+10 1.995E+10 3.762E+00 3.835E+02 6.782E+03 5.235E+03 1.240E+04 1.240E+04 1.651E+07 20.7374 1.00000
  2.239E+10 2.239E+10 3.777E+00 4.305E+02 7.610E+03 5.991E+03 1.403E+04 1.404E+04 1.670E+07 20.9677 1.00000
  2.512E+10 2.512E+10 3.793E+00 4.833E+02 8.539E+03 6.856E+03 1.588E+04 1.588E+04 1.688E+07 21.1979 1.00000
  2.818E+10 2.818E+10 3.808E+00 5.426E+02 9.581E+03 7.847E+03 1.797E+04 1.797E+04 1.706E+07 21.4282 1.00000
  3.162E+10 3.162E+10 3.824E+00 6.091E+02 1.075E+04 8.982E+03 2.034E+04 2.034E+04 1.724E+07 21.6584 1.00000
  3.548E+10 3.548E+10 3.840E+00 6.837E+02 1.206E+04 1.028E+04 2.303E+04 2.303E+04 1.742E+07 21.8887 1.00000
  3.981E+10 3.981E+10 3.856E+00 7.674E+02 1.353E+04 1.177E+04 2.607E+04 2.607E+04 1.760E+07 22.1189 1.00000
  4.467E+10 4.467E+10 3.872E+00 8.613E+02 1.518E+04 1.347E+04 2.952E+04 2.952E+04 1.777E+07 22.3492 1.00000
  5.012E+10 5.012E+10 3.888E+00 9.667E+02 1.704E+04 1.542E+04 3.343E+04 3.343E+04 1.795E+07 22.5795 1.00000
  5.623E+10 5.623E+10 3.904E+00 1.085E+03 1.911E+04 1.766E+04 3.786E+04 3.786E+04 1.812E+07 22.8097 1.00000
  6.310E+10 6.310E+10 3.920E+00 1.218E+03 2.145E+04 2.022E+04 4.288E+04 4.289E+04 1.829E+07 23.0400 1.00000
  7.079E+10 7.079E+10 3.936E+00 1.367E+03 2.406E+04 2.315E+04 4.858E+04 4.858E+04 1.846E+07 23.2702 1.00000
  7.943E+10 7.943E+10 3.953E+00 1.534E+03 2.700E+04 2.651E+04 5.504E+04 5.504E+04 1.863E+07 23.5005 1.00000
  8.913E+10 8.913E+10 3.969E+00 1.721E+03 3.029E+04 3.035E+04 6.237E+04 6.237E+04 1.879E+07 23.7308 1.00000
  1.000E+11 1.000E+11 3.986E+00 1.932E+03 3.399E+04 3.476E+04 7.068E+04 7.069E+04 1.896E+07 23.9610 1.00000
  1.122E+11 1.122E+11 4.002E+00 2.168E+03 3.813E+04 3.981E+04 8.011E+04 8.012E+04 1.912E+07 24.1913 1.00000
  1.259E+11 1.259E+11 4.019E+00 2.433E+03 4.279E+04 4.560E+04 9.081E+04 9.082E+04 1.928E+07 24.4215 1.00000
  1.413E+11 1.413E+11 4.036E+00 2.730E+03 4.801E+04 5.222E+04 1.030E+05 1.030E+05 1.944E+07 24.6518 1.00000
  1.585E+11 1.585E+11 4.053E+00 3.063E+03 5.386E+04 5.982E+04 1.167E+05 1.167E+05 1.960E+07 24.8820 1.00000
  1.778E+11 1.778E+11 4.070E+00 3.438E+03 6.043E+04 6.852E+04 1.324E+05 1.324E+05 1.975E+07 25.1123 1.00000
  1.995E+11 1.995E+11 4.087E+00 3.858E+03 6.781E+04 7.849E+04 1.502E+05 1.502E+05 1.991E+07 25.3426 1.00000
  2.239E+11 2.239E+11 4.105E+00 4.329E+03 7.608E+04 8.992E+04 1.703E+05 1.703E+05 2.006E+07 25.5728 1.00000
  2.512E+11 2.512E+11 4.122E+00 4.857E+03 8.536E+04 1.030E+05 1.932E+05 1.932E+05 2.021E+07 25.8031 1.00000
  2.818E+11 2.818E+11 4.139E+00 5.450E+03 9.577E+04 1.180E+05 2.193E+05 2.193E+05 2.036E+07 26.0333 1.00000
  3.162E+11 3.162E+11 4.157E+00 6.116E+03 1.075E+05 1.352E+05 2.488E+05 2.488E+05 2.051E+07 26.2636 1.00000
  3.548E+11 3.548E+11 4.175E+00 6.863E+03 1.206E+05 1.550E+05 2.824E+05 2.824E+05 2.065E+07 26.4939 1.00000
  3.981E+11 3.981E+11 4.192E+00 7.701E+03 1.353E+05 1.776E+05 3.205E+05 3.205E+05 2.080E+07 26.7241 1.00000
  4.467E+11 4.467E+11 4.210E+00 8.641E+03 1.518E+05 2.035E+05 3.639E+05 3.639E+05 2.094E+07 26.9544 1.00000
  5.012E+11 5.012E+11 4.228E+00 9.695E+03 1.703E+05 2.332E+05 4.132E+05 4.132E+05 2.108E+07 27.1846 1.00000
  5.623E+11 5.623E+11 4.246E+00 1.088E+04 1.910E+05 2.673E+05 4.692E+05 4.692E+05 2.122E+07 27.4149 1.00000
  6.310E+11 6.310E+11 4.264E+00 1.221E+04 2.144E+05 3.063E+05 5.329E+05 5.329E+05 2.136E+07 27.6451 1.00000
  7.079E+11 7.079E+11 4.283E+00 1.370E+04 2.405E+05 3.511E+05 6.053E+05 6.053E+05 2.149E+07 27.8754 1.00000
  7.943E+11 7.943E+11 4.301E+00 1.537E+04 2.698E+05 4.025E+05 6.877E+05 6.877E+05 2.163E+07 28.1057 1.00000
  8.913E+11 8.913E+11 4.319E+00 1.724E+04 3.028E+05 4.613E+05 7.813E+05 7.813E+05 2.176E+07 28.3359 1.00000
  1.000E+12 1.000E+12 4.338E+00 1.935E+04 3.397E+05 5.289E+05 8.879E+05 8.879E+05 2.189E+07 28.5662 1.00000
  1.122E+12 1.122E+12 4.357E+00 2.171E+04 3.811E+05 6.063E+05 1.009E+06 1.009E+06 2.202E+07 28.7964 1.00000
  1.259E+12 1.259E+12 4.375E+00 2.436E+04 4.276E+05 6.951E+05 1.147E+06 1.147E+06 2.215E+07 29.0267 1.00000
  1.413E+12 1.413E+12 4.394E+00 2.733E+04 4.798E+05 7.970E+05 1.304E+06 1.304E+06 2.227E+07 29.2570 1.00000
  1.585E+12 1.585E+12 4.413E+00 3.067E+04 5.383E+05 9.138E+05 1.483E+06 1.483E+06 2.240E+07 29.4872 1.00000
  1.778E+12 1.778E+12 4.432E+00 3.441E+04 6.039E+05 1.048E+06 1.686E+06 1.686E+06 2.252E+07 29.7175 1.00000
  1.995E+12 1.995E+12 4.452E+00 3.861E+04 6.776E+05 1.202E+06 1.918E+06 1.918E+06 2.264E+07 29.9477 1.00000
  2.239E+12 2.239E+12 4.471E+00 4.332E+04 7.602E+05 1.378E+06 2.182E+06 2.182E+06 2.276E+07 30.1780 1.00000
  2.512E+12 2.512E+12 4.490E+00 4.861E+04 8.530E+05 1.580E+06 2.482E+06 2.482E+06 2.288E+07 30.4082 1.00000
  2.818E+12 2.818E+12 4.510E+00 5.454E+04 9.570E+05 1.812E+06 2.824E+06 2.824E+06 2.299E+07 30.6385 1.00000
  3.162E+12 3.162E+12 4.529E+00 6.120E+04 1.074E+06 2.079E+06 3.214E+06 3.214E+06 2.311E+07 30.8688 1.00000
  3.548E+12 3.548E+12 4.549E+00 6.866E+04 1.205E+06 2.384E+06 3.658E+06 3.658E+06 2.322E+07 31.0990 1.00000
  3.981E+12 3.981E+12 4.569E+00 7.704E+04 1.352E+06 2.735E+06 4.164E+06 4.164E+06 2.333E+07 31.3293 1.00000
  4.467E+12 4.467E+12 4.589E+00 8.644E+04 1.516E+06 3.137E+06 4.740E+06 4.740E+06 2.344E+07 31.5595 1.00000
  5.012E+12 5.012E+12 4.609E+00 9.699E+04 1.701E+06 3.599E+06 5.398E+06 5.398E+06 2.355E+07 31.7898 1.00000
  5.623E+12 5.623E+12 4.629E+00 1.088E+05 1.909E+06 4.129E+06 6.147E+06 6.147E+06 2.366E+07 32.0201 1.00000
  6.310E+12 6.310E+12 4.649E+00 1.221E+05 2.142E+06 4.737E+06 7.001E+06 7.001E+06 2.376E+07 32.2503 1.00000
  7.079E+12 7.079E+12 4.670E+00 1.370E+05 2.403E+06 5.435E+06 7.975E+06 7.975E+06 2.386E+07 32.4806 1.00000
  7.943E+12 7.943E+12 4.690E+00 1.537E+05 2.696E+06 6.236E+06 9.086E+06 9.086E+06 2.397E+07 32.7108 1.00000
  8.913E+12 8.913E+12 4.711E+00 1.725E+05 3.025E+06 7.156E+06 1.035E+07 1.035E+07 2.407E+07 32.9411 1.00000
  1.000E+13 1.000E+13 4.731E+00 1.935E+05 3.394E+06 8.212E+06 1.180E+07 1.180E+07 2.416E+07 33.1714 1.00000
  1.122E+13 1.122E+13 4.752E+00 2.171E+05 3.808E+06 9.424E+06 1.345E+07 1.345E+07 2.426E+07 33.4016 1.00000
  1.259E+13 1.259E+13 4.773E+00 2.436E+05 4.272E+06 1.081E+07 1.533E+07 1.533E+07 2.436E+07 33.6319 1.00000
  1.413E+13 1.413E+13 4.794E+00 2.734E+05 4.793E+06 1.241E+07 1.748E+07 1.748E+07 2.445E+07 33.8621 1.00000
  1.585E+13 1.585E+13 4.815E+00 3.067E+05 5.378E+06 1.425E+07 1.993E+07 1.993E+07 2.454E+07 34.0924 1.00000
  1.778E+13 1.778E+13 4.837E+00 3.442E+05 6.034E+06 1.635E+07 2.273E+07 2.273E+07 2.463E+07 34.3226 1.00000
  1.995E+13 1.995E+13 4.858E+00 3.861E+05 6.770E+06 1.877E+07 2.592E+07 2.592E+07 2.472E+07 34.5529 1.00000
  2.239E+13 2.239E+13 4.880E+00 4.333E+05 7.595E+06 2.154E+07 2.957E+07 2.957E+07 2.481E+07 34.7832 1.00000
  2.512E+13 2.512E+13 4.901E+00 4.861E+05 8.522E+06 2.473E+07 3.374E+07 3.374E+07 2.490E+07 35.0134 1.00000
  2.818E+13 2.818E+13 4.923E+00 5.455E+05 9.561E+06 2.839E+07 3.850E+07 3.850E+07 2.498E+07 35.2437 1.00000
  3.162E+13 3.162E+13 4.945E+00 6.120E+05 1.073E+07 3.260E+07 4.394E+07 4.394E+07 2.507E+07 35.4739 1.00000
  3.548E+13 3.548E+13 4.967E+00 6.867E+05 1.204E+07 3.743E+07 5.015E+07 5.015E+07 2.515E+07 35.7042 1.00000
  3.981E+13 3.981E+13 4.989E+00 7.705E+05 1.350E+07 4.297E+07 5.725E+07 5.725E+07 2.523E+07 35.9345 1.00000
  4.467E+13 4.467E+13 5.011E+00 8.645E+05 1.515E+07 4.934E+07 6.536E+07 6.536E+07 2.531E+07 36.1647 1.00000
  5.012E+13 5.012E+13 5.034E+00 9.700E+05 1.700E+07 5.666E+07 7.463E+07 7.463E+07 2.539E+07 36.3950 1.00000
  5.623E+13 5.623E+13 5.056E+00 1.088E+06 1.907E+07 6.506E+07 8.522E+07 8.522E+07 2.547E+07 36.6252 1.00000
  6.310E+13 6.310E+13 5.079E+00 1.221E+06 2.140E+07 7.472E+07 9.734E+07 9.734E+07 2.554E+07 36.8555 1.00000
  7.079E+13 7.079E+13 5.101E+00 1.370E+06 2.400E+07 8.581E+07 1.112E+08 1.112E+08 2.562E+07 37.0857 1.00000
  7.943E+13 7.943E+13 5.124E+00 1.537E+06 2.693E+07 9.855E+07 1.270E+08 1.270E+08 2.569E+07 37.3160 1.00000
  8.913E+13 8.913E+13 5.147E+00 1.725E+06 3.022E+07 1.132E+08 1.451E+08 1.451E+08 2.576E+07 37.5463 1.00000
