 Incident particle is a Tau with M = 1776.82000 MeV
 Index = 0: Butane
      Absorber with <Z/A> = 0.58484
 Sternheimer coef:  a     k=m_s   x_0    x_1    I[eV]   Cbar  delta0
                 0.1085  3.4884  1.3792  3.7528   48.3  8.5651 0.00

 *** Table generated with PUMAS v1.00 ***

      T         p     Ionization  brems     pair     photonuc  Radloss    dE/dx   CSDA Range  delta   beta
    [MeV]    [MeV/c]  -----------------------[MeV cm^2/g]------------------------  [g/cm^2]
  1.000E+05 1.018E+05 3.010E+00 1.077E-04 1.677E-03 8.506E-03 1.029E-02 3.020E+00 1.656E+04  0.7373 0.99985
  1.122E+05 1.140E+05 3.040E+00 1.243E-04 2.032E-03 9.618E-03 1.177E-02 3.051E+00 2.058E+04  0.8632 0.99988
  1.259E+05 1.277E+05 3.069E+00 1.435E-04 2.452E-03 1.082E-02 1.341E-02 3.082E+00 2.504E+04  0.9954 0.99990
  1.413E+05 1.430E+05 3.098E+00 1.655E-04 2.947E-03 1.217E-02 1.528E-02 3.113E+00 3.000E+04  1.1338 0.99992
  1.585E+05 1.603E+05 3.127E+00 1.909E-04 3.530E-03 1.368E-02 1.740E-02 3.144E+00 3.551E+04  1.2781 0.99994
  1.778E+05 1.796E+05 3.155E+00 2.200E-04 4.214E-03 1.538E-02 1.981E-02 3.175E+00 4.163E+04  1.4281 0.99995
  1.995E+05 2.013E+05 3.183E+00 2.535E-04 5.017E-03 1.731E-02 2.258E-02 3.205E+00 4.843E+04  1.5836 0.99996
  2.239E+05 2.256E+05 3.210E+00 2.920E-04 5.957E-03 1.943E-02 2.568E-02 3.236E+00 5.599E+04  1.7443 0.99997
  2.512E+05 2.530E+05 3.237E+00 3.362E-04 7.055E-03 2.181E-02 2.920E-02 3.266E+00 6.439E+04  1.9101 0.99998
  2.818E+05 2.836E+05 3.263E+00 3.869E-04 8.334E-03 2.449E-02 3.321E-02 3.297E+00 7.374E+04  2.0806 0.99998
  3.162E+05 3.180E+05 3.289E+00 4.451E-04 9.823E-03 2.752E-02 3.779E-02 3.327E+00 8.412E+04  2.2557 0.99998
  3.548E+05 3.566E+05 3.315E+00 5.118E-04 1.155E-02 3.093E-02 4.299E-02 3.358E+00 9.566E+04  2.4353 0.99999
  3.981E+05 3.999E+05 3.340E+00 5.884E-04 1.356E-02 3.474E-02 4.889E-02 3.389E+00 1.085E+05  2.6189 0.99999
  4.467E+05 4.485E+05 3.365E+00 6.762E-04 1.588E-02 3.901E-02 5.557E-02 3.421E+00 1.228E+05  2.8065 0.99999
  5.012E+05 5.030E+05 3.390E+00 7.767E-04 1.857E-02 4.383E-02 6.318E-02 3.453E+00 1.386E+05  2.9979 0.99999
  5.623E+05 5.641E+05 3.414E+00 8.920E-04 2.168E-02 4.905E-02 7.162E-02 3.486E+00 1.562E+05  3.1928 1.00000
  6.310E+05 6.327E+05 3.438E+00 1.024E-03 2.526E-02 5.495E-02 8.123E-02 3.519E+00 1.758E+05  3.3910 1.00000
  7.079E+05 7.097E+05 3.462E+00 1.175E-03 2.939E-02 6.160E-02 9.217E-02 3.554E+00 1.976E+05  3.5924 1.00000
  7.943E+05 7.961E+05 3.485E+00 1.349E-03 3.414E-02 6.912E-02 1.046E-01 3.590E+00 2.218E+05  3.7967 1.00000
  8.913E+05 8.930E+05 3.508E+00 1.547E-03 3.961E-02 7.763E-02 1.188E-01 3.627E+00 2.487E+05  4.0038 1.00000
  1.000E+06 1.002E+06 3.530E+00 1.774E-03 4.588E-02 8.726E-02 1.349E-01 3.665E+00 2.785E+05  4.2134 1.00000
  1.122E+06 1.124E+06 3.553E+00 2.034E-03 5.307E-02 9.816E-02 1.533E-01 3.706E+00 3.116E+05  4.4255 1.00000
  1.259E+06 1.261E+06 3.575E+00 2.331E-03 6.132E-02 1.105E-01 1.742E-01 3.749E+00 3.483E+05  4.6398 1.00000
  1.413E+06 1.414E+06 3.596E+00 2.671E-03 7.075E-02 1.245E-01 1.979E-01 3.794E+00 3.891E+05  4.8561 1.00000
  1.585E+06 1.587E+06 3.618E+00 3.060E-03 8.153E-02 1.404E-01 2.250E-01 3.843E+00 4.342E+05  5.0743 1.00000
  1.778E+06 1.780E+06 3.639E+00 3.505E-03 9.385E-02 1.584E-01 2.558E-01 3.894E+00 4.842E+05  5.2942 1.00000
  1.995E+06 1.997E+06 3.659E+00 4.014E-03 1.079E-01 1.789E-01 2.908E-01 3.950E+00 5.395E+05  5.5157 1.00000
  2.239E+06 2.240E+06 3.680E+00 4.596E-03 1.239E-01 2.022E-01 3.307E-01 4.010E+00 6.007E+05  5.7386 1.00000
  2.512E+06 2.514E+06 3.700E+00 5.260E-03 1.422E-01 2.286E-01 3.761E-01 4.076E+00 6.682E+05  5.9627 1.00000
  2.818E+06 2.820E+06 3.720E+00 6.020E-03 1.629E-01 2.587E-01 4.276E-01 4.148E+00 7.428E+05  6.1880 1.00000
  3.162E+06 3.164E+06 3.740E+00 6.887E-03 1.866E-01 2.928E-01 4.863E-01 4.226E+00 8.249E+05  6.4143 1.00000
  3.548E+06 3.550E+06 3.759E+00 7.878E-03 2.134E-01 3.317E-01 5.530E-01 4.312E+00 9.153E+05  6.6414 1.00000
  3.981E+06 3.983E+06 3.778E+00 9.009E-03 2.439E-01 3.760E-01 6.288E-01 4.407E+00 1.015E+06  6.8693 1.00000
  4.467E+06 4.469E+06 3.797E+00 1.030E-02 2.784E-01 4.263E-01 7.151E-01 4.512E+00 1.124E+06  7.0978 1.00000
  5.012E+06 5.014E+06 3.816E+00 1.178E-02 3.176E-01 4.837E-01 8.131E-01 4.629E+00 1.243E+06  7.3268 1.00000
  5.623E+06 5.625E+06 3.834E+00 1.346E-02 3.620E-01 5.490E-01 9.244E-01 4.759E+00 1.373E+06  7.5562 1.00000
  6.310E+06 6.311E+06 3.852E+00 1.538E-02 4.122E-01 6.234E-01 1.051E+00 4.903E+00 1.515E+06  7.7859 1.00000
  7.079E+06 7.081E+06 3.870E+00 1.756E-02 4.691E-01 7.081E-01 1.195E+00 5.065E+00 1.670E+06  8.0158 1.00000
  7.943E+06 7.945E+06 3.888E+00 2.006E-02 5.334E-01 8.047E-01 1.358E+00 5.246E+00 1.837E+06  8.2459 1.00000
  8.913E+06 8.914E+06 3.906E+00 2.290E-02 6.061E-01 9.147E-01 1.544E+00 5.450E+00 2.019E+06  8.4761 1.00000
  1.000E+07 1.000E+07 3.923E+00 2.614E-02 6.881E-01 1.040E+00 1.754E+00 5.678E+00 2.214E+06  8.7063 1.00000
  1.122E+07 1.122E+07 3.941E+00 2.983E-02 7.808E-01 1.183E+00 1.994E+00 5.935E+00 2.424E+06  8.9365 1.00000
  1.259E+07 1.259E+07 3.958E+00 3.403E-02 8.854E-01 1.346E+00 2.266E+00 6.224E+00 2.650E+06  9.1667 1.00000
  1.413E+07 1.413E+07 3.975E+00 3.881E-02 1.003E+00 1.532E+00 2.574E+00 6.549E+00 2.890E+06  9.3970 1.00000
  1.585E+07 1.585E+07 3.992E+00 4.425E-02 1.136E+00 1.744E+00 2.925E+00 6.917E+00 3.147E+06  9.6272 1.00000
  1.778E+07 1.778E+07 4.009E+00 5.044E-02 1.286E+00 1.986E+00 3.323E+00 7.332E+00 3.418E+06  9.8574 1.00000
  1.995E+07 1.995E+07 4.025E+00 5.748E-02 1.455E+00 2.262E+00 3.775E+00 7.800E+00 3.705E+06 10.0877 1.00000
  2.239E+07 2.239E+07 4.042E+00 6.549E-02 1.646E+00 2.577E+00 4.288E+00 8.330E+00 4.008E+06 10.3179 1.00000
  2.512E+07 2.512E+07 4.059E+00 7.459E-02 1.860E+00 2.936E+00 4.871E+00 8.929E+00 4.324E+06 10.5481 1.00000
  2.818E+07 2.819E+07 4.075E+00 8.493E-02 2.101E+00 3.346E+00 5.532E+00 9.607E+00 4.656E+06 10.7784 1.00000
  3.162E+07 3.162E+07 4.091E+00 9.667E-02 2.373E+00 3.814E+00 6.283E+00 1.037E+01 5.000E+06 11.0086 1.00000
  3.548E+07 3.548E+07 4.108E+00 1.100E-01 2.678E+00 4.348E+00 7.136E+00 1.124E+01 5.358E+06 11.2389 1.00000
  3.981E+07 3.981E+07 4.124E+00 1.252E-01 3.022E+00 4.957E+00 8.104E+00 1.223E+01 5.727E+06 11.4691 1.00000
  4.467E+07 4.467E+07 4.140E+00 1.423E-01 3.408E+00 5.653E+00 9.203E+00 1.334E+01 6.108E+06 11.6994 1.00000
  5.012E+07 5.012E+07 4.156E+00 1.618E-01 3.842E+00 6.446E+00 1.045E+01 1.461E+01 6.499E+06 11.9296 1.00000
  5.623E+07 5.624E+07 4.173E+00 1.839E-01 4.331E+00 7.353E+00 1.187E+01 1.604E+01 6.899E+06 12.1599 1.00000
  6.310E+07 6.310E+07 4.189E+00 2.090E-01 4.879E+00 8.388E+00 1.348E+01 1.766E+01 7.307E+06 12.3901 1.00000
  7.079E+07 7.080E+07 4.205E+00 2.374E-01 5.496E+00 9.569E+00 1.530E+01 1.951E+01 7.722E+06 12.6204 1.00000
  7.943E+07 7.943E+07 4.221E+00 2.696E-01 6.189E+00 1.092E+01 1.738E+01 2.160E+01 8.144E+06 12.8506 1.00000
  8.913E+07 8.913E+07 4.238E+00 3.061E-01 6.967E+00 1.246E+01 1.973E+01 2.397E+01 8.570E+06 13.0809 1.00000
  1.000E+08 1.000E+08 4.254E+00 3.474E-01 7.841E+00 1.422E+01 2.241E+01 2.666E+01 9.001E+06 13.3111 1.00000
  1.122E+08 1.122E+08 4.270E+00 3.942E-01 8.823E+00 1.623E+01 2.544E+01 2.971E+01 9.435E+06 13.5414 1.00000
  1.259E+08 1.259E+08 4.287E+00 4.471E-01 9.926E+00 1.852E+01 2.889E+01 3.318E+01 9.872E+06 13.7716 1.00000
  1.413E+08 1.413E+08 4.303E+00 5.069E-01 1.116E+01 2.114E+01 3.281E+01 3.712E+01 1.031E+07 14.0019 1.00000
  1.585E+08 1.585E+08 4.320E+00 5.747E-01 1.255E+01 2.413E+01 3.726E+01 4.158E+01 1.075E+07 14.2322 1.00000
  1.778E+08 1.778E+08 4.336E+00 6.513E-01 1.412E+01 2.755E+01 4.232E+01 4.666E+01 1.119E+07 14.4624 1.00000
  1.995E+08 1.995E+08 4.353E+00 7.379E-01 1.587E+01 3.146E+01 4.807E+01 5.242E+01 1.163E+07 14.6927 1.00000
  2.239E+08 2.239E+08 4.370E+00 8.357E-01 1.784E+01 3.592E+01 5.459E+01 5.896E+01 1.207E+07 14.9229 1.00000
  2.512E+08 2.512E+08 4.386E+00 9.463E-01 2.005E+01 4.102E+01 6.201E+01 6.640E+01 1.250E+07 15.1532 1.00000
  2.818E+08 2.818E+08 4.403E+00 1.071E+00 2.252E+01 4.685E+01 7.044E+01 7.485E+01 1.294E+07 15.3834 1.00000
  3.162E+08 3.162E+08 4.420E+00 1.212E+00 2.531E+01 5.350E+01 8.002E+01 8.444E+01 1.337E+07 15.6137 1.00000
  3.548E+08 3.548E+08 4.437E+00 1.371E+00 2.843E+01 6.111E+01 9.091E+01 9.535E+01 1.380E+07 15.8440 1.00000
  3.981E+08 3.981E+08 4.454E+00 1.551E+00 3.194E+01 6.980E+01 1.033E+02 1.077E+02 1.423E+07 16.0742 1.00000
  4.467E+08 4.467E+08 4.471E+00 1.754E+00 3.587E+01 7.973E+01 1.174E+02 1.218E+02 1.466E+07 16.3045 1.00000
  5.012E+08 5.012E+08 4.488E+00 1.982E+00 4.029E+01 9.108E+01 1.334E+02 1.378E+02 1.508E+07 16.5347 1.00000
  5.623E+08 5.623E+08 4.506E+00 2.240E+00 4.524E+01 1.041E+02 1.515E+02 1.560E+02 1.550E+07 16.7650 1.00000
  6.310E+08 6.310E+08 4.523E+00 2.531E+00 5.080E+01 1.189E+02 1.722E+02 1.767E+02 1.591E+07 16.9952 1.00000
  7.079E+08 7.079E+08 4.540E+00 2.858E+00 5.705E+01 1.358E+02 1.957E+02 2.003E+02 1.632E+07 17.2255 1.00000
  7.943E+08 7.943E+08 4.558E+00 3.227E+00 6.405E+01 1.552E+02 2.225E+02 2.270E+02 1.673E+07 17.4558 1.00000
  8.913E+08 8.913E+08 4.576E+00 3.644E+00 7.191E+01 1.774E+02 2.529E+02 2.575E+02 1.713E+07 17.6860 1.00000
  1.000E+09 1.000E+09 4.593E+00 4.112E+00 8.073E+01 2.027E+02 2.875E+02 2.921E+02 1.753E+07 17.9163 1.00000
  1.122E+09 1.122E+09 4.611E+00 4.640E+00 9.063E+01 2.316E+02 3.269E+02 3.315E+02 1.792E+07 18.1465 1.00000
  1.259E+09 1.259E+09 4.629E+00 5.235E+00 1.017E+02 2.647E+02 3.717E+02 3.763E+02 1.831E+07 18.3768 1.00000
  1.413E+09 1.413E+09 4.647E+00 5.904E+00 1.142E+02 3.026E+02 4.227E+02 4.273E+02 1.869E+07 18.6070 1.00000
  1.585E+09 1.585E+09 4.665E+00 6.657E+00 1.282E+02 3.458E+02 4.807E+02 4.853E+02 1.907E+07 18.8373 1.00000
  1.778E+09 1.778E+09 4.683E+00 7.504E+00 1.439E+02 3.953E+02 5.467E+02 5.514E+02 1.944E+07 19.0676 1.00000
  1.995E+09 1.995E+09 4.702E+00 8.458E+00 1.615E+02 4.519E+02 6.218E+02 6.265E+02 1.981E+07 19.2978 1.00000
  2.239E+09 2.239E+09 4.720E+00 9.531E+00 1.812E+02 5.166E+02 7.074E+02 7.121E+02 2.018E+07 19.5281 1.00000
  2.512E+09 2.512E+09 4.739E+00 1.074E+01 2.034E+02 5.906E+02 8.048E+02 8.095E+02 2.054E+07 19.7583 1.00000
  2.818E+09 2.818E+09 4.757E+00 1.209E+01 2.283E+02 6.753E+02 9.156E+02 9.204E+02 2.090E+07 19.9886 1.00000
  3.162E+09 3.162E+09 4.776E+00 1.362E+01 2.562E+02 7.721E+02 1.042E+03 1.047E+03 2.125E+07 20.2189 1.00000
  3.548E+09 3.548E+09 4.795E+00 1.534E+01 2.875E+02 8.829E+02 1.186E+03 1.190E+03 2.159E+07 20.4491 1.00000
  3.981E+09 3.981E+09 4.814E+00 1.727E+01 3.226E+02 1.010E+03 1.349E+03 1.354E+03 2.194E+07 20.6794 1.00000
  4.467E+09 4.467E+09 4.833E+00 1.943E+01 3.621E+02 1.155E+03 1.536E+03 1.541E+03 2.227E+07 20.9096 1.00000
  5.012E+09 5.012E+09 4.852E+00 2.187E+01 4.063E+02 1.320E+03 1.748E+03 1.753E+03 2.260E+07 21.1399 1.00000
  5.623E+09 5.623E+09 4.871E+00 2.461E+01 4.559E+02 1.510E+03 1.991E+03 1.995E+03 2.293E+07 21.3701 1.00000
  6.310E+09 6.310E+09 4.891E+00 2.768E+01 5.116E+02 1.727E+03 2.266E+03 2.271E+03 2.325E+07 21.6004 1.00000
  7.079E+09 7.079E+09 4.910E+00 3.114E+01 5.741E+02 1.975E+03 2.581E+03 2.586E+03 2.357E+07 21.8307 1.00000
  7.943E+09 7.943E+09 4.930E+00 3.502E+01 6.442E+02 2.260E+03 2.939E+03 2.944E+03 2.389E+07 22.0609 1.00000
  8.913E+09 8.913E+09 4.949E+00 3.939E+01 7.229E+02 2.585E+03 3.347E+03 3.352E+03 2.420E+07 22.2912 1.00000
  1.000E+10 1.000E+10 4.969E+00 4.428E+01 8.111E+02 2.957E+03 3.813E+03 3.818E+03 2.450E+07 22.5214 1.00000
  1.122E+10 1.122E+10 4.989E+00 4.979E+01 9.102E+02 3.383E+03 4.343E+03 4.348E+03 2.480E+07 22.7517 1.00000
  1.259E+10 1.259E+10 5.009E+00 5.597E+01 1.021E+03 3.871E+03 4.948E+03 4.953E+03 2.510E+07 22.9820 1.00000
  1.413E+10 1.413E+10 5.029E+00 6.291E+01 1.146E+03 4.429E+03 5.637E+03 5.643E+03 2.539E+07 23.2122 1.00000
  1.585E+10 1.585E+10 5.049E+00 7.070E+01 1.286E+03 5.067E+03 6.424E+03 6.429E+03 2.567E+07 23.4425 1.00000
  1.778E+10 1.778E+10 5.070E+00 7.945E+01 1.443E+03 5.799E+03 7.321E+03 7.326E+03 2.596E+07 23.6727 1.00000
  1.995E+10 1.995E+10 5.090E+00 8.927E+01 1.619E+03 6.636E+03 8.344E+03 8.349E+03 2.624E+07 23.9030 1.00000
  2.239E+10 2.239E+10 5.111E+00 1.003E+02 1.816E+03 7.594E+03 9.510E+03 9.516E+03 2.651E+07 24.1333 1.00000
  2.512E+10 2.512E+10 5.132E+00 1.127E+02 2.038E+03 8.691E+03 1.084E+04 1.085E+04 2.678E+07 24.3635 1.00000
  2.818E+10 2.818E+10 5.152E+00 1.266E+02 2.287E+03 9.947E+03 1.236E+04 1.237E+04 2.704E+07 24.5938 1.00000
  3.162E+10 3.162E+10 5.173E+00 1.422E+02 2.566E+03 1.139E+04 1.409E+04 1.410E+04 2.730E+07 24.8240 1.00000
  3.548E+10 3.548E+10 5.194E+00 1.597E+02 2.879E+03 1.303E+04 1.607E+04 1.608E+04 2.756E+07 25.0543 1.00000
  3.981E+10 3.981E+10 5.216E+00 1.793E+02 3.230E+03 1.492E+04 1.833E+04 1.833E+04 2.781E+07 25.2845 1.00000
  4.467E+10 4.467E+10 5.237E+00 2.014E+02 3.624E+03 1.708E+04 2.090E+04 2.091E+04 2.806E+07 25.5148 1.00000
  5.012E+10 5.012E+10 5.258E+00 2.262E+02 4.067E+03 1.955E+04 2.384E+04 2.385E+04 2.831E+07 25.7451 1.00000
  5.623E+10 5.623E+10 5.280E+00 2.539E+02 4.563E+03 2.238E+04 2.720E+04 2.721E+04 2.855E+07 25.9753 1.00000
  6.310E+10 6.310E+10 5.302E+00 2.851E+02 5.120E+03 2.563E+04 3.103E+04 3.104E+04 2.878E+07 26.2056 1.00000
  7.079E+10 7.079E+10 5.323E+00 3.201E+02 5.744E+03 2.934E+04 3.541E+04 3.541E+04 2.902E+07 26.4358 1.00000
  7.943E+10 7.943E+10 5.345E+00 3.594E+02 6.445E+03 3.360E+04 4.040E+04 4.041E+04 2.925E+07 26.6661 1.00000
  8.913E+10 8.913E+10 5.367E+00 4.035E+02 7.231E+03 3.848E+04 4.611E+04 4.612E+04 2.947E+07 26.8964 1.00000
  1.000E+11 1.000E+11 5.389E+00 4.530E+02 8.114E+03 4.406E+04 5.263E+04 5.263E+04 2.969E+07 27.1266 1.00000
  1.122E+11 1.122E+11 5.412E+00 5.085E+02 9.103E+03 5.046E+04 6.007E+04 6.008E+04 2.991E+07 27.3569 1.00000
  1.259E+11 1.259E+11 5.434E+00 5.708E+02 1.021E+04 5.779E+04 6.858E+04 6.859E+04 3.012E+07 27.5871 1.00000
  1.413E+11 1.413E+11 5.457E+00 6.407E+02 1.146E+04 6.620E+04 7.830E+04 7.830E+04 3.033E+07 27.8174 1.00000
  1.585E+11 1.585E+11 5.479E+00 7.191E+02 1.286E+04 7.582E+04 8.940E+04 8.941E+04 3.054E+07 28.0476 1.00000
  1.778E+11 1.778E+11 5.502E+00 8.071E+02 1.443E+04 8.685E+04 1.021E+05 1.021E+05 3.074E+07 28.2779 1.00000
  1.995E+11 1.995E+11 5.525E+00 9.059E+02 1.619E+04 9.949E+04 1.166E+05 1.166E+05 3.094E+07 28.5082 1.00000
  2.239E+11 2.239E+11 5.548E+00 1.017E+03 1.816E+04 1.140E+05 1.332E+05 1.332E+05 3.114E+07 28.7384 1.00000
  2.512E+11 2.512E+11 5.571E+00 1.141E+03 2.038E+04 1.306E+05 1.521E+05 1.521E+05 3.133E+07 28.9687 1.00000
  2.818E+11 2.818E+11 5.595E+00 1.281E+03 2.286E+04 1.496E+05 1.738E+05 1.738E+05 3.152E+07 29.1989 1.00000
  3.162E+11 3.162E+11 5.618E+00 1.437E+03 2.565E+04 1.714E+05 1.985E+05 1.985E+05 3.170E+07 29.4292 1.00000
  3.548E+11 3.548E+11 5.642E+00 1.613E+03 2.878E+04 1.964E+05 2.268E+05 2.268E+05 3.189E+07 29.6595 1.00000
  3.981E+11 3.981E+11 5.665E+00 1.810E+03 3.229E+04 2.251E+05 2.592E+05 2.592E+05 3.207E+07 29.8897 1.00000
  4.467E+11 4.467E+11 5.689E+00 2.031E+03 3.623E+04 2.579E+05 2.962E+05 2.962E+05 3.224E+07 30.1200 1.00000
  5.012E+11 5.012E+11 5.713E+00 2.279E+03 4.065E+04 2.956E+05 3.385E+05 3.385E+05 3.241E+07 30.3502 1.00000
  5.623E+11 5.623E+11 5.737E+00 2.558E+03 4.561E+04 3.388E+05 3.869E+05 3.869E+05 3.258E+07 30.5805 1.00000
  6.310E+11 6.310E+11 5.761E+00 2.870E+03 5.117E+04 3.883E+05 4.423E+05 4.423E+05 3.275E+07 30.8107 1.00000
  7.079E+11 7.079E+11 5.786E+00 3.221E+03 5.741E+04 4.450E+05 5.057E+05 5.057E+05 3.291E+07 31.0410 1.00000
  7.943E+11 7.943E+11 5.810E+00 3.615E+03 6.442E+04 5.101E+05 5.782E+05 5.782E+05 3.307E+07 31.2713 1.00000
  8.913E+11 8.913E+11 5.835E+00 4.056E+03 7.227E+04 5.848E+05 6.611E+05 6.611E+05 3.323E+07 31.5015 1.00000
  1.000E+12 1.000E+12 5.860E+00 4.551E+03 8.109E+04 6.704E+05 7.560E+05 7.560E+05 3.338E+07 31.7318 1.00000
  1.122E+12 1.122E+12 5.885E+00 5.107E+03 9.098E+04 7.685E+05 8.646E+05 8.646E+05 3.354E+07 31.9620 1.00000
  1.259E+12 1.259E+12 5.910E+00 5.731E+03 1.021E+05 8.811E+05 9.889E+05 9.889E+05 3.368E+07 32.1923 1.00000
  1.413E+12 1.413E+12 5.935E+00 6.430E+03 1.145E+05 1.010E+06 1.131E+06 1.131E+06 3.383E+07 32.4226 1.00000
  1.585E+12 1.585E+12 5.960E+00 7.215E+03 1.285E+05 1.158E+06 1.294E+06 1.294E+06 3.397E+07 32.6528 1.00000
  1.778E+12 1.778E+12 5.986E+00 8.096E+03 1.442E+05 1.328E+06 1.480E+06 1.480E+06 3.411E+07 32.8831 1.00000
  1.995E+12 1.995E+12 6.011E+00 9.085E+03 1.618E+05 1.523E+06 1.694E+06 1.694E+06 3.425E+07 33.1133 1.00000
  2.239E+12 2.239E+12 6.037E+00 1.019E+04 1.815E+05 1.747E+06 1.938E+06 1.938E+06 3.438E+07 33.3436 1.00000
  2.512E+12 2.512E+12 6.063E+00 1.144E+04 2.036E+05 2.003E+06 2.218E+06 2.218E+06 3.452E+07 33.5738 1.00000
  2.818E+12 2.818E+12 6.089E+00 1.283E+04 2.285E+05 2.297E+06 2.539E+06 2.539E+06 3.465E+07 33.8041 1.00000
  3.162E+12 3.162E+12 6.115E+00 1.440E+04 2.563E+05 2.635E+06 2.906E+06 2.906E+06 3.477E+07 34.0344 1.00000
  3.548E+12 3.548E+12 6.142E+00 1.616E+04 2.876E+05 3.022E+06 3.326E+06 3.326E+06 3.490E+07 34.2646 1.00000
  3.981E+12 3.981E+12 6.168E+00 1.813E+04 3.227E+05 3.467E+06 3.808E+06 3.808E+06 3.502E+07 34.4949 1.00000
  4.467E+12 4.467E+12 6.195E+00 2.034E+04 3.620E+05 3.977E+06 4.359E+06 4.359E+06 3.514E+07 34.7251 1.00000
  5.012E+12 5.012E+12 6.221E+00 2.283E+04 4.062E+05 4.562E+06 4.991E+06 4.991E+06 3.526E+07 34.9554 1.00000
  5.623E+12 5.623E+12 6.248E+00 2.561E+04 4.557E+05 5.234E+06 5.715E+06 5.715E+06 3.537E+07 35.1857 1.00000
  6.310E+12 6.310E+12 6.275E+00 2.874E+04 5.113E+05 6.005E+06 6.545E+06 6.545E+06 3.548E+07 35.4159 1.00000
  7.079E+12 7.079E+12 6.303E+00 3.224E+04 5.737E+05 6.890E+06 7.495E+06 7.495E+06 3.559E+07 35.6462 1.00000
  7.943E+12 7.943E+12 6.330E+00 3.618E+04 6.436E+05 7.905E+06 8.585E+06 8.585E+06 3.570E+07 35.8764 1.00000
  8.913E+12 8.913E+12 6.357E+00 4.059E+04 7.221E+05 9.071E+06 9.834E+06 9.834E+06 3.581E+07 36.1067 1.00000
  1.000E+13 1.000E+13 6.385E+00 4.555E+04 8.102E+05 1.041E+07 1.126E+07 1.126E+07 3.591E+07 36.3370 1.00000
  1.122E+13 1.122E+13 6.413E+00 5.110E+04 9.090E+05 1.194E+07 1.291E+07 1.291E+07 3.601E+07 36.5672 1.00000
  1.259E+13 1.259E+13 6.441E+00 5.734E+04 1.020E+06 1.371E+07 1.479E+07 1.479E+07 3.611E+07 36.7975 1.00000
  1.413E+13 1.413E+13 6.469E+00 6.434E+04 1.144E+06 1.573E+07 1.694E+07 1.694E+07 3.621E+07 37.0277 1.00000
  1.585E+13 1.585E+13 6.497E+00 7.219E+04 1.284E+06 1.806E+07 1.941E+07 1.941E+07 3.630E+07 37.2580 1.00000
  1.778E+13 1.778E+13 6.526E+00 8.100E+04 1.440E+06 2.073E+07 2.225E+07 2.225E+07 3.640E+07 37.4882 1.00000
  1.995E+13 1.995E+13 6.554E+00 9.088E+04 1.616E+06 2.379E+07 2.550E+07 2.550E+07 3.649E+07 37.7185 1.00000
  2.239E+13 2.239E+13 6.583E+00 1.020E+05 1.813E+06 2.731E+07 2.922E+07 2.922E+07 3.658E+07 37.9488 1.00000
  2.512E+13 2.512E+13 6.612E+00 1.144E+05 2.034E+06 3.135E+07 3.350E+07 3.350E+07 3.667E+07 38.1790 1.00000
  2.818E+13 2.818E+13 6.641E+00 1.284E+05 2.282E+06 3.599E+07 3.840E+07 3.840E+07 3.675E+07 38.4093 1.00000
  3.162E+13 3.162E+13 6.670E+00 1.440E+05 2.561E+06 4.132E+07 4.402E+07 4.402E+07 3.683E+07 38.6395 1.00000
  3.548E+13 3.548E+13 6.699E+00 1.616E+05 2.873E+06 4.744E+07 5.047E+07 5.047E+07 3.692E+07 38.8698 1.00000
  3.981E+13 3.981E+13 6.729E+00 1.813E+05 3.223E+06 5.447E+07 5.787E+07 5.787E+07 3.700E+07 39.1001 1.00000
  4.467E+13 4.467E+13 6.759E+00 2.035E+05 3.617E+06 6.254E+07 6.636E+07 6.636E+07 3.708E+07 39.3303 1.00000
  5.012E+13 5.012E+13 6.788E+00 2.283E+05 4.058E+06 7.182E+07 7.610E+07 7.610E+07 3.715E+07 39.5606 1.00000
  5.623E+13 5.623E+13 6.818E+00 2.561E+05 4.552E+06 8.247E+07 8.728E+07 8.728E+07 3.723E+07 39.7908 1.00000
  6.310E+13 6.310E+13 6.849E+00 2.874E+05 5.108E+06 9.471E+07 1.001E+08 1.001E+08 3.730E+07 40.0211 1.00000
  7.079E+13 7.079E+13 6.879E+00 3.225E+05 5.731E+06 1.088E+08 1.148E+08 1.148E+08 3.737E+07 40.2513 1.00000
  7.943E+13 7.943E+13 6.909E+00 3.618E+05 6.429E+06 1.249E+08 1.317E+08 1.317E+08 3.744E+07 40.4816 1.00000
  8.913E+13 8.913E+13 6.940E+00 4.060E+05 7.214E+06 1.435E+08 1.511E+08 1.511E+08 3.751E+07 40.7119 1.00000
