 Incident particle is a Tau with M = 1776.82000 MeV
 Index = 0: CadmiumTungstate
      Absorber with <Z/A> = 0.42748
 Sternheimer coef:  a     k=m_s   x_0    x_1    I[eV]   Cbar  delta0
                 0.1286  2.9150  0.0123  3.5941  468.3  5.3594 0.00

 *** Table generated with PUMAS v1.00 ***

      T         p     Ionization  brems     pair     photonuc  Radloss    dE/dx   CSDA Range  delta   beta
    [MeV]    [MeV/c]  -----------------------[MeV cm^2/g]------------------------  [g/cm^2]
  1.000E+05 1.018E+05 1.721E+00 7.376E-04 1.286E-02 7.742E-03 2.134E-02 1.742E+00 2.870E+04  3.4922 0.99985
  1.122E+05 1.140E+05 1.740E+00 8.549E-04 1.541E-02 8.703E-03 2.496E-02 1.765E+00 3.566E+04  3.6612 0.99988
  1.259E+05 1.277E+05 1.759E+00 9.904E-04 1.840E-02 9.732E-03 2.912E-02 1.788E+00 4.337E+04  3.8335 0.99990
  1.413E+05 1.430E+05 1.778E+00 1.147E-03 2.191E-02 1.088E-02 3.394E-02 1.811E+00 5.190E+04  4.0089 0.99992
  1.585E+05 1.603E+05 1.796E+00 1.327E-03 2.603E-02 1.217E-02 3.952E-02 1.836E+00 6.136E+04  4.1874 0.99994
  1.778E+05 1.796E+05 1.815E+00 1.534E-03 3.084E-02 1.360E-02 4.597E-02 1.861E+00 7.182E+04  4.3688 0.99995
  1.995E+05 2.013E+05 1.833E+00 1.773E-03 3.645E-02 1.522E-02 5.345E-02 1.887E+00 8.340E+04  4.5532 0.99996
  2.239E+05 2.256E+05 1.851E+00 2.049E-03 4.299E-02 1.698E-02 6.203E-02 1.913E+00 9.622E+04  4.7403 0.99997
  2.512E+05 2.530E+05 1.869E+00 2.365E-03 5.060E-02 1.895E-02 7.191E-02 1.941E+00 1.104E+05  4.9302 0.99998
  2.818E+05 2.836E+05 1.887E+00 2.729E-03 5.941E-02 2.116E-02 8.331E-02 1.971E+00 1.261E+05  5.1227 0.99998
  3.162E+05 3.180E+05 1.905E+00 3.147E-03 6.963E-02 2.365E-02 9.643E-02 2.002E+00 1.434E+05  5.3177 0.99998
  3.548E+05 3.566E+05 1.923E+00 3.627E-03 8.144E-02 2.644E-02 1.115E-01 2.034E+00 1.625E+05  5.5152 0.99999
  3.981E+05 3.999E+05 1.940E+00 4.178E-03 9.507E-02 2.953E-02 1.288E-01 2.069E+00 1.836E+05  5.7151 0.99999
  4.467E+05 4.485E+05 1.958E+00 4.811E-03 1.108E-01 3.299E-02 1.486E-01 2.106E+00 2.069E+05  5.9172 0.99999
  5.012E+05 5.030E+05 1.975E+00 5.536E-03 1.289E-01 3.688E-02 1.713E-01 2.146E+00 2.325E+05  6.1215 0.99999
  5.623E+05 5.641E+05 1.992E+00 6.367E-03 1.497E-01 4.107E-02 1.971E-01 2.189E+00 2.607E+05  6.3278 1.00000
  6.310E+05 6.327E+05 2.008E+00 7.320E-03 1.735E-01 4.578E-02 2.266E-01 2.235E+00 2.918E+05  6.5362 1.00000
  7.079E+05 7.097E+05 2.025E+00 8.411E-03 2.009E-01 5.108E-02 2.604E-01 2.285E+00 3.258E+05  6.7466 1.00000
  7.943E+05 7.961E+05 2.042E+00 9.659E-03 2.322E-01 5.705E-02 2.990E-01 2.340E+00 3.632E+05  6.9587 1.00000
  8.913E+05 8.930E+05 2.058E+00 1.109E-02 2.681E-01 6.379E-02 3.430E-01 2.401E+00 4.041E+05  7.1726 1.00000
  1.000E+06 1.002E+06 2.074E+00 1.272E-02 3.090E-01 7.139E-02 3.931E-01 2.467E+00 4.488E+05  7.3882 1.00000
  1.122E+06 1.124E+06 2.090E+00 1.459E-02 3.557E-01 7.999E-02 4.503E-01 2.540E+00 4.975E+05  7.6053 1.00000
  1.259E+06 1.261E+06 2.106E+00 1.673E-02 4.090E-01 8.971E-02 5.154E-01 2.621E+00 5.506E+05  7.8239 1.00000
  1.413E+06 1.414E+06 2.121E+00 1.917E-02 4.696E-01 1.007E-01 5.895E-01 2.711E+00 6.082E+05  8.0439 1.00000
  1.585E+06 1.587E+06 2.137E+00 2.196E-02 5.386E-01 1.132E-01 6.738E-01 2.810E+00 6.707E+05  8.2653 1.00000
  1.778E+06 1.780E+06 2.152E+00 2.514E-02 6.170E-01 1.273E-01 7.695E-01 2.921E+00 7.382E+05  8.4878 1.00000
  1.995E+06 1.997E+06 2.167E+00 2.878E-02 7.061E-01 1.433E-01 8.782E-01 3.045E+00 8.109E+05  8.7115 1.00000
  2.239E+06 2.240E+06 2.182E+00 3.292E-02 8.071E-01 1.615E-01 1.002E+00 3.183E+00 8.892E+05  8.9363 1.00000
  2.512E+06 2.514E+06 2.196E+00 3.765E-02 9.217E-01 1.821E-01 1.141E+00 3.338E+00 9.730E+05  9.1620 1.00000
  2.818E+06 2.820E+06 2.211E+00 4.304E-02 1.051E+00 2.055E-01 1.300E+00 3.511E+00 1.063E+06  9.3885 1.00000
  3.162E+06 3.164E+06 2.225E+00 4.919E-02 1.198E+00 2.321E-01 1.480E+00 3.705E+00 1.158E+06  9.6159 1.00000
  3.548E+06 3.550E+06 2.239E+00 5.619E-02 1.365E+00 2.623E-01 1.683E+00 3.922E+00 1.259E+06  9.8439 1.00000
  3.981E+06 3.983E+06 2.253E+00 6.416E-02 1.553E+00 2.967E-01 1.914E+00 4.167E+00 1.366E+06 10.0725 1.00000
  4.467E+06 4.469E+06 2.267E+00 7.324E-02 1.765E+00 3.359E-01 2.174E+00 4.441E+00 1.479E+06 10.3017 1.00000
  5.012E+06 5.014E+06 2.281E+00 8.358E-02 2.005E+00 3.804E-01 2.469E+00 4.749E+00 1.598E+06 10.5312 1.00000
  5.623E+06 5.625E+06 2.294E+00 9.534E-02 2.276E+00 4.311E-01 2.802E+00 5.096E+00 1.722E+06 10.7611 1.00000
  6.310E+06 6.311E+06 2.307E+00 1.087E-01 2.581E+00 4.888E-01 3.179E+00 5.486E+00 1.852E+06 10.9912 1.00000
  7.079E+06 7.081E+06 2.320E+00 1.239E-01 2.926E+00 5.545E-01 3.604E+00 5.924E+00 1.987E+06 11.2214 1.00000
  7.943E+06 7.945E+06 2.333E+00 1.412E-01 3.314E+00 6.293E-01 4.084E+00 6.418E+00 2.128E+06 11.4516 1.00000
  8.913E+06 8.914E+06 2.346E+00 1.609E-01 3.751E+00 7.146E-01 4.627E+00 6.973E+00 2.273E+06 11.6818 1.00000
  1.000E+07 1.000E+07 2.359E+00 1.832E-01 4.244E+00 8.118E-01 5.239E+00 7.599E+00 2.422E+06 11.9120 1.00000
  1.122E+07 1.122E+07 2.372E+00 2.085E-01 4.799E+00 9.225E-01 5.930E+00 8.302E+00 2.576E+06 12.1422 1.00000
  1.259E+07 1.259E+07 2.384E+00 2.373E-01 5.424E+00 1.049E+00 6.710E+00 9.095E+00 2.734E+06 12.3724 1.00000
  1.413E+07 1.413E+07 2.397E+00 2.700E-01 6.127E+00 1.193E+00 7.590E+00 9.987E+00 2.895E+06 12.6027 1.00000
  1.585E+07 1.585E+07 2.409E+00 3.070E-01 6.918E+00 1.357E+00 8.582E+00 1.099E+01 3.060E+06 12.8329 1.00000
  1.778E+07 1.778E+07 2.422E+00 3.490E-01 7.808E+00 1.544E+00 9.701E+00 1.212E+01 3.227E+06 13.0631 1.00000
  1.995E+07 1.995E+07 2.434E+00 3.967E-01 8.809E+00 1.758E+00 1.096E+01 1.340E+01 3.398E+06 13.2934 1.00000
  2.239E+07 2.239E+07 2.446E+00 4.507E-01 9.934E+00 2.001E+00 1.239E+01 1.483E+01 3.571E+06 13.5236 1.00000
  2.512E+07 2.512E+07 2.458E+00 5.118E-01 1.120E+01 2.279E+00 1.399E+01 1.645E+01 3.746E+06 13.7538 1.00000
  2.818E+07 2.819E+07 2.470E+00 5.811E-01 1.262E+01 2.596E+00 1.580E+01 1.827E+01 3.923E+06 13.9841 1.00000
  3.162E+07 3.162E+07 2.482E+00 6.596E-01 1.422E+01 2.958E+00 1.784E+01 2.032E+01 4.102E+06 14.2143 1.00000
  3.548E+07 3.548E+07 2.494E+00 7.484E-01 1.601E+01 3.371E+00 2.013E+01 2.263E+01 4.282E+06 14.4446 1.00000
  3.981E+07 3.981E+07 2.506E+00 8.490E-01 1.803E+01 3.842E+00 2.272E+01 2.523E+01 4.464E+06 14.6748 1.00000
  4.467E+07 4.467E+07 2.518E+00 9.627E-01 2.029E+01 4.380E+00 2.564E+01 2.815E+01 4.646E+06 14.9051 1.00000
  5.012E+07 5.012E+07 2.530E+00 1.091E+00 2.284E+01 4.993E+00 2.892E+01 3.145E+01 4.830E+06 15.1353 1.00000
  5.623E+07 5.624E+07 2.541E+00 1.237E+00 2.570E+01 5.694E+00 3.263E+01 3.517E+01 5.014E+06 15.3656 1.00000
  6.310E+07 6.310E+07 2.553E+00 1.401E+00 2.890E+01 6.494E+00 3.680E+01 3.935E+01 5.198E+06 15.5958 1.00000
  7.079E+07 7.080E+07 2.565E+00 1.587E+00 3.251E+01 7.408E+00 4.150E+01 4.407E+01 5.384E+06 15.8261 1.00000
  7.943E+07 7.943E+07 2.577E+00 1.796E+00 3.655E+01 8.451E+00 4.680E+01 4.938E+01 5.569E+06 16.0563 1.00000
  8.913E+07 8.913E+07 2.589E+00 2.033E+00 4.110E+01 9.641E+00 5.277E+01 5.536E+01 5.755E+06 16.2866 1.00000
  1.000E+08 1.000E+08 2.601E+00 2.300E+00 4.620E+01 1.100E+01 5.950E+01 6.210E+01 5.941E+06 16.5168 1.00000
  1.122E+08 1.122E+08 2.613E+00 2.602E+00 5.192E+01 1.255E+01 6.708E+01 6.969E+01 6.126E+06 16.7471 1.00000
  1.259E+08 1.259E+08 2.625E+00 2.943E+00 5.835E+01 1.433E+01 7.562E+01 7.824E+01 6.312E+06 16.9773 1.00000
  1.413E+08 1.413E+08 2.637E+00 3.326E+00 6.556E+01 1.635E+01 8.524E+01 8.788E+01 6.498E+06 17.2076 1.00000
  1.585E+08 1.585E+08 2.649E+00 3.759E+00 7.366E+01 1.867E+01 9.608E+01 9.873E+01 6.683E+06 17.4379 1.00000
  1.778E+08 1.778E+08 2.661E+00 4.248E+00 8.274E+01 2.131E+01 1.083E+02 1.110E+02 6.868E+06 17.6681 1.00000
  1.995E+08 1.995E+08 2.673E+00 4.798E+00 9.294E+01 2.433E+01 1.221E+02 1.247E+02 7.053E+06 17.8984 1.00000
  2.239E+08 2.239E+08 2.685E+00 5.418E+00 1.044E+02 2.778E+01 1.376E+02 1.403E+02 7.237E+06 18.1286 1.00000
  2.512E+08 2.512E+08 2.698E+00 6.116E+00 1.172E+02 3.172E+01 1.551E+02 1.578E+02 7.421E+06 18.3589 1.00000
  2.818E+08 2.818E+08 2.710E+00 6.902E+00 1.317E+02 3.622E+01 1.748E+02 1.775E+02 7.605E+06 18.5891 1.00000
  3.162E+08 3.162E+08 2.722E+00 7.788E+00 1.478E+02 4.137E+01 1.970E+02 1.997E+02 7.788E+06 18.8194 1.00000
  3.548E+08 3.548E+08 2.735E+00 8.785E+00 1.660E+02 4.725E+01 2.220E+02 2.248E+02 7.970E+06 19.0497 1.00000
  3.981E+08 3.981E+08 2.747E+00 9.907E+00 1.864E+02 5.396E+01 2.502E+02 2.530E+02 8.152E+06 19.2799 1.00000
  4.467E+08 4.467E+08 2.760E+00 1.117E+01 2.092E+02 6.164E+01 2.821E+02 2.848E+02 8.333E+06 19.5102 1.00000
  5.012E+08 5.012E+08 2.772E+00 1.259E+01 2.349E+02 7.042E+01 3.179E+02 3.207E+02 8.514E+06 19.7404 1.00000
  5.623E+08 5.623E+08 2.785E+00 1.419E+01 2.637E+02 8.044E+01 3.583E+02 3.611E+02 8.694E+06 19.9707 1.00000
  6.310E+08 6.310E+08 2.797E+00 1.599E+01 2.960E+02 9.190E+01 4.039E+02 4.067E+02 8.873E+06 20.2009 1.00000
  7.079E+08 7.079E+08 2.810E+00 1.801E+01 3.323E+02 1.050E+02 4.553E+02 4.581E+02 9.052E+06 20.4312 1.00000
  7.943E+08 7.943E+08 2.823E+00 2.028E+01 3.730E+02 1.200E+02 5.132E+02 5.160E+02 9.230E+06 20.6615 1.00000
  8.913E+08 8.913E+08 2.836E+00 2.283E+01 4.186E+02 1.371E+02 5.785E+02 5.814E+02 9.407E+06 20.8917 1.00000
  1.000E+09 1.000E+09 2.849E+00 2.571E+01 4.698E+02 1.567E+02 6.522E+02 6.551E+02 9.584E+06 21.1220 1.00000
  1.122E+09 1.122E+09 2.862E+00 2.893E+01 5.273E+02 1.790E+02 7.353E+02 7.381E+02 9.759E+06 21.3522 1.00000
  1.259E+09 1.259E+09 2.875E+00 3.256E+01 5.918E+02 2.046E+02 8.290E+02 8.319E+02 9.934E+06 21.5825 1.00000
  1.413E+09 1.413E+09 2.888E+00 3.664E+01 6.642E+02 2.339E+02 9.347E+02 9.376E+02 1.011E+07 21.8127 1.00000
  1.585E+09 1.585E+09 2.901E+00 4.122E+01 7.454E+02 2.673E+02 1.054E+03 1.057E+03 1.028E+07 22.0430 1.00000
  1.778E+09 1.778E+09 2.915E+00 4.636E+01 8.365E+02 3.056E+02 1.188E+03 1.191E+03 1.045E+07 22.2733 1.00000
  1.995E+09 1.995E+09 2.928E+00 5.214E+01 9.387E+02 3.493E+02 1.340E+03 1.343E+03 1.063E+07 22.5035 1.00000
  2.239E+09 2.239E+09 2.942E+00 5.863E+01 1.053E+03 3.993E+02 1.511E+03 1.514E+03 1.080E+07 22.7338 1.00000
  2.512E+09 2.512E+09 2.955E+00 6.592E+01 1.182E+03 4.565E+02 1.705E+03 1.708E+03 1.097E+07 22.9640 1.00000
  2.818E+09 2.818E+09 2.969E+00 7.410E+01 1.327E+03 5.220E+02 1.923E+03 1.926E+03 1.114E+07 23.1943 1.00000
  3.162E+09 3.162E+09 2.982E+00 8.329E+01 1.489E+03 5.968E+02 2.169E+03 2.172E+03 1.131E+07 23.4246 1.00000
  3.548E+09 3.548E+09 2.996E+00 9.361E+01 1.670E+03 6.824E+02 2.446E+03 2.449E+03 1.147E+07 23.6548 1.00000
  3.981E+09 3.981E+09 3.010E+00 1.052E+02 1.874E+03 7.803E+02 2.760E+03 2.763E+03 1.164E+07 23.8851 1.00000
  4.467E+09 4.467E+09 3.024E+00 1.182E+02 2.103E+03 8.924E+02 3.114E+03 3.117E+03 1.181E+07 24.1153 1.00000
  5.012E+09 5.012E+09 3.038E+00 1.328E+02 2.360E+03 1.021E+03 3.513E+03 3.516E+03 1.197E+07 24.3456 1.00000
  5.623E+09 5.623E+09 3.052E+00 1.492E+02 2.648E+03 1.167E+03 3.965E+03 3.968E+03 1.213E+07 24.5758 1.00000
  6.310E+09 6.310E+09 3.066E+00 1.676E+02 2.971E+03 1.335E+03 4.474E+03 4.477E+03 1.230E+07 24.8061 1.00000
  7.079E+09 7.079E+09 3.080E+00 1.883E+02 3.334E+03 1.527E+03 5.049E+03 5.052E+03 1.246E+07 25.0364 1.00000
  7.943E+09 7.943E+09 3.095E+00 2.115E+02 3.741E+03 1.747E+03 5.699E+03 5.702E+03 1.262E+07 25.2666 1.00000
  8.913E+09 8.913E+09 3.109E+00 2.375E+02 4.198E+03 1.998E+03 6.433E+03 6.436E+03 1.278E+07 25.4969 1.00000
  1.000E+10 1.000E+10 3.124E+00 2.667E+02 4.710E+03 2.286E+03 7.263E+03 7.266E+03 1.294E+07 25.7271 1.00000
  1.122E+10 1.122E+10 3.138E+00 2.995E+02 5.285E+03 2.615E+03 8.199E+03 8.203E+03 1.310E+07 25.9574 1.00000
  1.259E+10 1.259E+10 3.153E+00 3.363E+02 5.930E+03 2.992E+03 9.258E+03 9.261E+03 1.326E+07 26.1877 1.00000
  1.413E+10 1.413E+10 3.167E+00 3.776E+02 6.654E+03 3.423E+03 1.045E+04 1.046E+04 1.341E+07 26.4179 1.00000
  1.585E+10 1.585E+10 3.182E+00 4.239E+02 7.466E+03 3.917E+03 1.181E+04 1.181E+04 1.357E+07 26.6482 1.00000
  1.778E+10 1.778E+10 3.197E+00 4.759E+02 8.377E+03 4.482E+03 1.333E+04 1.334E+04 1.372E+07 26.8784 1.00000
  1.995E+10 1.995E+10 3.212E+00 5.343E+02 9.399E+03 5.129E+03 1.506E+04 1.507E+04 1.388E+07 27.1087 1.00000
  2.239E+10 2.239E+10 3.227E+00 5.998E+02 1.055E+04 5.869E+03 1.701E+04 1.702E+04 1.403E+07 27.3390 1.00000
  2.512E+10 2.512E+10 3.242E+00 6.733E+02 1.183E+04 6.717E+03 1.922E+04 1.923E+04 1.418E+07 27.5692 1.00000
  2.818E+10 2.818E+10 3.257E+00 7.557E+02 1.328E+04 7.688E+03 2.172E+04 2.172E+04 1.433E+07 27.7995 1.00000
  3.162E+10 3.162E+10 3.273E+00 8.483E+02 1.490E+04 8.800E+03 2.454E+04 2.455E+04 1.448E+07 28.0297 1.00000
  3.548E+10 3.548E+10 3.288E+00 9.522E+02 1.671E+04 1.007E+04 2.774E+04 2.774E+04 1.463E+07 28.2600 1.00000
  3.981E+10 3.981E+10 3.304E+00 1.069E+03 1.875E+04 1.153E+04 3.135E+04 3.136E+04 1.477E+07 28.4902 1.00000
  4.467E+10 4.467E+10 3.319E+00 1.199E+03 2.104E+04 1.320E+04 3.544E+04 3.544E+04 1.492E+07 28.7205 1.00000
  5.012E+10 5.012E+10 3.335E+00 1.346E+03 2.361E+04 1.511E+04 4.007E+04 4.007E+04 1.507E+07 28.9508 1.00000
  5.623E+10 5.623E+10 3.351E+00 1.511E+03 2.649E+04 1.730E+04 4.530E+04 4.530E+04 1.521E+07 29.1810 1.00000
  6.310E+10 6.310E+10 3.366E+00 1.696E+03 2.972E+04 1.981E+04 5.122E+04 5.123E+04 1.535E+07 29.4113 1.00000
  7.079E+10 7.079E+10 3.382E+00 1.903E+03 3.335E+04 2.268E+04 5.793E+04 5.793E+04 1.549E+07 29.6415 1.00000
  7.943E+10 7.943E+10 3.398E+00 2.136E+03 3.741E+04 2.597E+04 6.552E+04 6.552E+04 1.563E+07 29.8718 1.00000
  8.913E+10 8.913E+10 3.415E+00 2.397E+03 4.198E+04 2.974E+04 7.411E+04 7.412E+04 1.577E+07 30.1021 1.00000
  1.000E+11 1.000E+11 3.431E+00 2.689E+03 4.710E+04 3.406E+04 8.385E+04 8.385E+04 1.591E+07 30.3323 1.00000
  1.122E+11 1.122E+11 3.447E+00 3.018E+03 5.285E+04 3.900E+04 9.487E+04 9.487E+04 1.605E+07 30.5626 1.00000
  1.259E+11 1.259E+11 3.463E+00 3.387E+03 5.929E+04 4.467E+04 1.073E+05 1.074E+05 1.618E+07 30.7928 1.00000
  1.413E+11 1.413E+11 3.480E+00 3.800E+03 6.652E+04 5.116E+04 1.215E+05 1.215E+05 1.632E+07 31.0231 1.00000
  1.585E+11 1.585E+11 3.496E+00 4.265E+03 7.464E+04 5.860E+04 1.375E+05 1.375E+05 1.645E+07 31.2533 1.00000
  1.778E+11 1.778E+11 3.513E+00 4.785E+03 8.375E+04 6.713E+04 1.557E+05 1.557E+05 1.659E+07 31.4836 1.00000
  1.995E+11 1.995E+11 3.530E+00 5.370E+03 9.396E+04 7.690E+04 1.762E+05 1.762E+05 1.672E+07 31.7139 1.00000
  2.239E+11 2.239E+11 3.547E+00 6.026E+03 1.054E+05 8.810E+04 1.995E+05 1.996E+05 1.685E+07 31.9441 1.00000
  2.512E+11 2.512E+11 3.564E+00 6.761E+03 1.183E+05 1.009E+05 2.260E+05 2.260E+05 1.698E+07 32.1744 1.00000
  2.818E+11 2.818E+11 3.581E+00 7.587E+03 1.327E+05 1.156E+05 2.559E+05 2.559E+05 1.710E+07 32.4046 1.00000
  3.162E+11 3.162E+11 3.598E+00 8.513E+03 1.489E+05 1.325E+05 2.899E+05 2.899E+05 1.723E+07 32.6349 1.00000
  3.548E+11 3.548E+11 3.615E+00 9.552E+03 1.671E+05 1.518E+05 3.284E+05 3.284E+05 1.735E+07 32.8652 1.00000
  3.981E+11 3.981E+11 3.632E+00 1.072E+04 1.874E+05 1.740E+05 3.721E+05 3.721E+05 1.748E+07 33.0954 1.00000
  4.467E+11 4.467E+11 3.650E+00 1.203E+04 2.103E+05 1.994E+05 4.217E+05 4.217E+05 1.760E+07 33.3257 1.00000
  5.012E+11 5.012E+11 3.667E+00 1.350E+04 2.360E+05 2.285E+05 4.779E+05 4.779E+05 1.772E+07 33.5559 1.00000
  5.623E+11 5.623E+11 3.685E+00 1.514E+04 2.647E+05 2.618E+05 5.417E+05 5.417E+05 1.784E+07 33.7862 1.00000
  6.310E+11 6.310E+11 3.703E+00 1.699E+04 2.970E+05 3.001E+05 6.141E+05 6.141E+05 1.796E+07 34.0164 1.00000
  7.079E+11 7.079E+11 3.720E+00 1.906E+04 3.333E+05 3.440E+05 6.963E+05 6.963E+05 1.808E+07 34.2467 1.00000
  7.943E+11 7.943E+11 3.738E+00 2.139E+04 3.739E+05 3.943E+05 7.896E+05 7.896E+05 1.820E+07 34.4770 1.00000
  8.913E+11 8.913E+11 3.756E+00 2.400E+04 4.195E+05 4.520E+05 8.955E+05 8.955E+05 1.831E+07 34.7072 1.00000
  1.000E+12 1.000E+12 3.774E+00 2.693E+04 4.707E+05 5.181E+05 1.016E+06 1.016E+06 1.843E+07 34.9375 1.00000
  1.122E+12 1.122E+12 3.793E+00 3.022E+04 5.281E+05 5.940E+05 1.152E+06 1.152E+06 1.854E+07 35.1677 1.00000
  1.259E+12 1.259E+12 3.811E+00 3.391E+04 5.925E+05 6.810E+05 1.307E+06 1.307E+06 1.865E+07 35.3980 1.00000
  1.413E+12 1.413E+12 3.829E+00 3.804E+04 6.648E+05 7.808E+05 1.484E+06 1.484E+06 1.876E+07 35.6283 1.00000
  1.585E+12 1.585E+12 3.848E+00 4.269E+04 7.459E+05 8.953E+05 1.684E+06 1.684E+06 1.887E+07 35.8585 1.00000
  1.778E+12 1.778E+12 3.867E+00 4.789E+04 8.369E+05 1.027E+06 1.911E+06 1.911E+06 1.898E+07 36.0888 1.00000
  1.995E+12 1.995E+12 3.885E+00 5.374E+04 9.390E+05 1.177E+06 2.170E+06 2.170E+06 1.909E+07 36.3190 1.00000
  2.239E+12 2.239E+12 3.904E+00 6.030E+04 1.053E+06 1.350E+06 2.464E+06 2.464E+06 1.919E+07 36.5493 1.00000
  2.512E+12 2.512E+12 3.923E+00 6.765E+04 1.182E+06 1.548E+06 2.798E+06 2.798E+06 1.930E+07 36.7795 1.00000
  2.818E+12 2.818E+12 3.942E+00 7.591E+04 1.326E+06 1.776E+06 3.178E+06 3.178E+06 1.940E+07 37.0098 1.00000
  3.162E+12 3.162E+12 3.961E+00 8.517E+04 1.488E+06 2.037E+06 3.610E+06 3.610E+06 1.950E+07 37.2401 1.00000
  3.548E+12 3.548E+12 3.980E+00 9.557E+04 1.669E+06 2.336E+06 4.101E+06 4.101E+06 1.960E+07 37.4703 1.00000
  3.981E+12 3.981E+12 4.000E+00 1.072E+05 1.873E+06 2.680E+06 4.660E+06 4.660E+06 1.970E+07 37.7006 1.00000
  4.467E+12 4.467E+12 4.019E+00 1.203E+05 2.101E+06 3.074E+06 5.296E+06 5.296E+06 1.980E+07 37.9308 1.00000
  5.012E+12 5.012E+12 4.039E+00 1.350E+05 2.358E+06 3.526E+06 6.019E+06 6.019E+06 1.990E+07 38.1611 1.00000
  5.623E+12 5.623E+12 4.059E+00 1.515E+05 2.645E+06 4.045E+06 6.842E+06 6.842E+06 1.999E+07 38.3914 1.00000
  6.310E+12 6.310E+12 4.078E+00 1.699E+05 2.968E+06 4.641E+06 7.779E+06 7.779E+06 2.009E+07 38.6216 1.00000
  7.079E+12 7.079E+12 4.098E+00 1.907E+05 3.330E+06 5.325E+06 8.846E+06 8.846E+06 2.018E+07 38.8519 1.00000
  7.943E+12 7.943E+12 4.118E+00 2.140E+05 3.736E+06 6.110E+06 1.006E+07 1.006E+07 2.027E+07 39.0821 1.00000
  8.913E+12 8.913E+12 4.138E+00 2.401E+05 4.192E+06 7.011E+06 1.144E+07 1.144E+07 2.036E+07 39.3124 1.00000
  1.000E+13 1.000E+13 4.159E+00 2.694E+05 4.703E+06 8.045E+06 1.302E+07 1.302E+07 2.045E+07 39.5427 1.00000
  1.122E+13 1.122E+13 4.179E+00 3.022E+05 5.277E+06 9.233E+06 1.481E+07 1.481E+07 2.054E+07 39.7729 1.00000
  1.259E+13 1.259E+13 4.199E+00 3.391E+05 5.920E+06 1.060E+07 1.685E+07 1.685E+07 2.062E+07 40.0032 1.00000
  1.413E+13 1.413E+13 4.220E+00 3.805E+05 6.642E+06 1.216E+07 1.918E+07 1.918E+07 2.071E+07 40.2334 1.00000
  1.585E+13 1.585E+13 4.240E+00 4.269E+05 7.452E+06 1.396E+07 2.184E+07 2.184E+07 2.079E+07 40.4637 1.00000
  1.778E+13 1.778E+13 4.261E+00 4.790E+05 8.361E+06 1.602E+07 2.486E+07 2.486E+07 2.088E+07 40.6939 1.00000
  1.995E+13 1.995E+13 4.282E+00 5.374E+05 9.381E+06 1.839E+07 2.831E+07 2.831E+07 2.096E+07 40.9242 1.00000
  2.239E+13 2.239E+13 4.303E+00 6.030E+05 1.053E+07 2.111E+07 3.224E+07 3.224E+07 2.104E+07 41.1545 1.00000
  2.512E+13 2.512E+13 4.324E+00 6.766E+05 1.181E+07 2.423E+07 3.672E+07 3.672E+07 2.112E+07 41.3847 1.00000
  2.818E+13 2.818E+13 4.345E+00 7.592E+05 1.325E+07 2.782E+07 4.183E+07 4.183E+07 2.120E+07 41.6150 1.00000
  3.162E+13 3.162E+13 4.367E+00 8.518E+05 1.486E+07 3.194E+07 4.765E+07 4.765E+07 2.128E+07 41.8452 1.00000
  3.548E+13 3.548E+13 4.388E+00 9.557E+05 1.668E+07 3.667E+07 5.430E+07 5.430E+07 2.135E+07 42.0755 1.00000
  3.981E+13 3.981E+13 4.410E+00 1.072E+06 1.871E+07 4.210E+07 6.188E+07 6.188E+07 2.143E+07 42.3058 1.00000
  4.467E+13 4.467E+13 4.431E+00 1.203E+06 2.099E+07 4.834E+07 7.054E+07 7.054E+07 2.150E+07 42.5360 1.00000
  5.012E+13 5.012E+13 4.453E+00 1.350E+06 2.355E+07 5.551E+07 8.041E+07 8.041E+07 2.157E+07 42.7663 1.00000
  5.623E+13 5.623E+13 4.475E+00 1.515E+06 2.643E+07 6.374E+07 9.169E+07 9.169E+07 2.164E+07 42.9965 1.00000
  6.310E+13 6.310E+13 4.497E+00 1.700E+06 2.965E+07 7.320E+07 1.046E+08 1.046E+08 2.171E+07 43.2268 1.00000
  7.079E+13 7.079E+13 4.519E+00 1.907E+06 3.326E+07 8.407E+07 1.192E+08 1.192E+08 2.178E+07 43.4570 1.00000
  7.943E+13 7.943E+13 4.542E+00 2.140E+06 3.732E+07 9.656E+07 1.360E+08 1.360E+08 2.185E+07 43.6873 1.00000
  8.913E+13 8.913E+13 4.564E+00 2.401E+06 4.187E+07 1.109E+08 1.552E+08 1.552E+08 2.192E+07 43.9176 1.00000
