 Incident particle is a Tau with M = 1776.82000 MeV
 Index = 0: Cadmium
      Absorber with <Z/A> = 0.42699
 Sternheimer coef:  a     k=m_s   x_0    x_1    I[eV]   Cbar  delta0
                 0.2461  2.6772  0.1281  3.1667  469.0  5.2727 0.14

 *** Table generated with PUMAS v1.00 ***

      T         p     Ionization  brems     pair     photonuc  Radloss    dE/dx   CSDA Range  delta   beta
    [MeV]    [MeV/c]  -----------------------[MeV cm^2/g]------------------------  [g/cm^2]
  1.000E+05 1.018E+05 1.722E+00 6.926E-04 1.186E-02 7.709E-03 2.026E-02 1.742E+00 2.870E+04  3.4389 0.99985
  1.122E+05 1.140E+05 1.741E+00 8.025E-04 1.421E-02 8.663E-03 2.368E-02 1.765E+00 3.566E+04  3.6095 0.99988
  1.259E+05 1.277E+05 1.760E+00 9.292E-04 1.697E-02 9.684E-03 2.759E-02 1.787E+00 4.337E+04  3.7837 0.99990
  1.413E+05 1.430E+05 1.778E+00 1.075E-03 2.022E-02 1.083E-02 3.212E-02 1.811E+00 5.190E+04  3.9614 0.99992
  1.585E+05 1.603E+05 1.797E+00 1.244E-03 2.402E-02 1.210E-02 3.737E-02 1.834E+00 6.136E+04  4.1425 0.99994
  1.778E+05 1.796E+05 1.815E+00 1.438E-03 2.847E-02 1.352E-02 4.343E-02 1.859E+00 7.184E+04  4.3270 0.99995
  1.995E+05 2.013E+05 1.833E+00 1.661E-03 3.366E-02 1.513E-02 5.045E-02 1.884E+00 8.343E+04  4.5146 0.99996
  2.239E+05 2.256E+05 1.851E+00 1.918E-03 3.971E-02 1.687E-02 5.851E-02 1.910E+00 9.627E+04  4.7053 0.99997
  2.512E+05 2.530E+05 1.869E+00 2.214E-03 4.675E-02 1.883E-02 6.779E-02 1.937E+00 1.105E+05  4.8991 0.99998
  2.818E+05 2.836E+05 1.887E+00 2.553E-03 5.491E-02 2.101E-02 7.848E-02 1.965E+00 1.262E+05  5.0957 0.99998
  3.162E+05 3.180E+05 1.904E+00 2.943E-03 6.437E-02 2.348E-02 9.079E-02 1.995E+00 1.435E+05  5.2951 0.99998
  3.548E+05 3.566E+05 1.922E+00 3.391E-03 7.531E-02 2.624E-02 1.049E-01 2.027E+00 1.627E+05  5.4973 0.99999
  3.981E+05 3.999E+05 1.939E+00 3.905E-03 8.794E-02 2.930E-02 1.211E-01 2.060E+00 1.839E+05  5.7020 0.99999
  4.467E+05 4.485E+05 1.956E+00 4.495E-03 1.025E-01 3.272E-02 1.397E-01 2.095E+00 2.073E+05  5.9092 0.99999
  5.012E+05 5.030E+05 1.972E+00 5.171E-03 1.193E-01 3.657E-02 1.610E-01 2.133E+00 2.331E+05  6.1188 0.99999
  5.623E+05 5.641E+05 1.989E+00 5.946E-03 1.386E-01 4.071E-02 1.852E-01 2.174E+00 2.615E+05  6.3307 1.00000
  6.310E+05 6.327E+05 2.005E+00 6.834E-03 1.607E-01 4.536E-02 2.129E-01 2.218E+00 2.927E+05  6.5447 1.00000
  7.079E+05 7.097E+05 2.022E+00 7.850E-03 1.861E-01 5.060E-02 2.446E-01 2.266E+00 3.271E+05  6.7608 1.00000
  7.943E+05 7.961E+05 2.038E+00 9.013E-03 2.152E-01 5.650E-02 2.807E-01 2.318E+00 3.648E+05  6.9788 1.00000
  8.913E+05 8.930E+05 2.054E+00 1.034E-02 2.485E-01 6.316E-02 3.220E-01 2.376E+00 4.061E+05  7.1987 1.00000
  1.000E+06 1.002E+06 2.069E+00 1.187E-02 2.866E-01 7.068E-02 3.691E-01 2.438E+00 4.512E+05  7.4202 1.00000
  1.122E+06 1.124E+06 2.085E+00 1.361E-02 3.300E-01 7.917E-02 4.228E-01 2.508E+00 5.006E+05  7.6432 1.00000
  1.259E+06 1.261E+06 2.100E+00 1.560E-02 3.795E-01 8.876E-02 4.839E-01 2.584E+00 5.544E+05  7.8677 1.00000
  1.413E+06 1.414E+06 2.115E+00 1.787E-02 4.360E-01 9.963E-02 5.535E-01 2.669E+00 6.129E+05  8.0935 1.00000
  1.585E+06 1.587E+06 2.130E+00 2.046E-02 5.002E-01 1.119E-01 6.326E-01 2.763E+00 6.764E+05  8.3205 1.00000
  1.778E+06 1.780E+06 2.145E+00 2.343E-02 5.732E-01 1.259E-01 7.225E-01 2.868E+00 7.451E+05  8.5485 1.00000
  1.995E+06 1.997E+06 2.160E+00 2.681E-02 6.562E-01 1.417E-01 8.246E-01 2.984E+00 8.193E+05  8.7773 1.00000
  2.239E+06 2.240E+06 2.174E+00 3.066E-02 7.503E-01 1.596E-01 9.406E-01 3.115E+00 8.991E+05  9.0067 1.00000
  2.512E+06 2.514E+06 2.189E+00 3.506E-02 8.571E-01 1.799E-01 1.072E+00 3.261E+00 9.849E+05  9.2366 1.00000
  2.818E+06 2.820E+06 2.203E+00 4.008E-02 9.781E-01 2.031E-01 1.221E+00 3.424E+00 1.077E+06  9.4667 1.00000
  3.162E+06 3.164E+06 2.217E+00 4.579E-02 1.115E+00 2.293E-01 1.390E+00 3.607E+00 1.175E+06  9.6969 1.00000
  3.548E+06 3.550E+06 2.231E+00 5.230E-02 1.270E+00 2.592E-01 1.582E+00 3.813E+00 1.279E+06  9.9270 1.00000
  3.981E+06 3.983E+06 2.245E+00 5.972E-02 1.446E+00 2.931E-01 1.798E+00 4.043E+00 1.389E+06 10.1572 1.00000
  4.467E+06 4.469E+06 2.259E+00 6.816E-02 1.644E+00 3.317E-01 2.044E+00 4.302E+00 1.505E+06 10.3873 1.00000
  5.012E+06 5.014E+06 2.272E+00 7.777E-02 1.868E+00 3.756E-01 2.321E+00 4.593E+00 1.628E+06 10.6175 1.00000
  5.623E+06 5.625E+06 2.286E+00 8.871E-02 2.120E+00 4.256E-01 2.635E+00 4.920E+00 1.757E+06 10.8477 1.00000
  6.310E+06 6.311E+06 2.299E+00 1.011E-01 2.406E+00 4.826E-01 2.989E+00 5.288E+00 1.891E+06 11.0779 1.00000
  7.079E+06 7.081E+06 2.312E+00 1.153E-01 2.727E+00 5.474E-01 3.390E+00 5.702E+00 2.032E+06 11.3081 1.00000
  7.943E+06 7.945E+06 2.325E+00 1.314E-01 3.090E+00 6.212E-01 3.843E+00 6.168E+00 2.178E+06 11.5383 1.00000
  8.913E+06 8.914E+06 2.338E+00 1.496E-01 3.499E+00 7.054E-01 4.354E+00 6.692E+00 2.329E+06 11.7685 1.00000
  1.000E+07 1.000E+07 2.351E+00 1.704E-01 3.959E+00 8.012E-01 4.931E+00 7.282E+00 2.484E+06 11.9987 1.00000
  1.122E+07 1.122E+07 2.363E+00 1.940E-01 4.478E+00 9.105E-01 5.582E+00 7.946E+00 2.645E+06 12.2289 1.00000
  1.259E+07 1.259E+07 2.376E+00 2.207E-01 5.062E+00 1.035E+00 6.318E+00 8.693E+00 2.810E+06 12.4591 1.00000
  1.413E+07 1.413E+07 2.388E+00 2.511E-01 5.719E+00 1.177E+00 7.147E+00 9.535E+00 2.979E+06 12.6894 1.00000
  1.585E+07 1.585E+07 2.401E+00 2.856E-01 6.458E+00 1.339E+00 8.083E+00 1.048E+01 3.151E+06 12.9196 1.00000
  1.778E+07 1.778E+07 2.413E+00 3.246E-01 7.290E+00 1.524E+00 9.139E+00 1.155E+01 3.327E+06 13.1498 1.00000
  1.995E+07 1.995E+07 2.425E+00 3.690E-01 8.226E+00 1.734E+00 1.033E+01 1.275E+01 3.506E+06 13.3801 1.00000
  2.239E+07 2.239E+07 2.437E+00 4.192E-01 9.278E+00 1.975E+00 1.167E+01 1.411E+01 3.688E+06 13.6103 1.00000
  2.512E+07 2.512E+07 2.449E+00 4.761E-01 1.046E+01 2.249E+00 1.318E+01 1.563E+01 3.872E+06 13.8405 1.00000
  2.818E+07 2.819E+07 2.461E+00 5.406E-01 1.179E+01 2.561E+00 1.489E+01 1.735E+01 4.059E+06 14.0708 1.00000
  3.162E+07 3.162E+07 2.473E+00 6.136E-01 1.328E+01 2.918E+00 1.682E+01 1.929E+01 4.247E+06 14.3010 1.00000
  3.548E+07 3.548E+07 2.485E+00 6.963E-01 1.496E+01 3.326E+00 1.898E+01 2.147E+01 4.437E+06 14.5313 1.00000
  3.981E+07 3.981E+07 2.497E+00 7.898E-01 1.685E+01 3.790E+00 2.143E+01 2.392E+01 4.628E+06 14.7615 1.00000
  4.467E+07 4.467E+07 2.509E+00 8.956E-01 1.897E+01 4.321E+00 2.418E+01 2.669E+01 4.820E+06 14.9918 1.00000
  5.012E+07 5.012E+07 2.521E+00 1.015E+00 2.135E+01 4.926E+00 2.729E+01 2.981E+01 5.014E+06 15.2220 1.00000
  5.623E+07 5.624E+07 2.533E+00 1.151E+00 2.402E+01 5.618E+00 3.079E+01 3.332E+01 5.208E+06 15.4523 1.00000
  6.310E+07 6.310E+07 2.544E+00 1.304E+00 2.702E+01 6.407E+00 3.473E+01 3.727E+01 5.403E+06 15.6825 1.00000
  7.079E+07 7.080E+07 2.556E+00 1.477E+00 3.039E+01 7.308E+00 3.917E+01 4.173E+01 5.599E+06 15.9128 1.00000
  7.943E+07 7.943E+07 2.568E+00 1.672E+00 3.417E+01 8.337E+00 4.418E+01 4.675E+01 5.795E+06 16.1430 1.00000
  8.913E+07 8.913E+07 2.580E+00 1.892E+00 3.842E+01 9.511E+00 4.983E+01 5.241E+01 5.991E+06 16.3733 1.00000
  1.000E+08 1.000E+08 2.592E+00 2.141E+00 4.319E+01 1.085E+01 5.619E+01 5.878E+01 6.187E+06 16.6035 1.00000
  1.122E+08 1.122E+08 2.604E+00 2.422E+00 4.855E+01 1.238E+01 6.336E+01 6.596E+01 6.383E+06 16.8338 1.00000
  1.259E+08 1.259E+08 2.616E+00 2.739E+00 5.456E+01 1.413E+01 7.143E+01 7.405E+01 6.580E+06 17.0640 1.00000
  1.413E+08 1.413E+08 2.628E+00 3.097E+00 6.131E+01 1.613E+01 8.054E+01 8.317E+01 6.776E+06 17.2943 1.00000
  1.585E+08 1.585E+08 2.640E+00 3.501E+00 6.888E+01 1.842E+01 9.080E+01 9.344E+01 6.972E+06 17.5246 1.00000
  1.778E+08 1.778E+08 2.652E+00 3.956E+00 7.738E+01 2.102E+01 1.024E+02 1.050E+02 7.167E+06 17.7548 1.00000
  1.995E+08 1.995E+08 2.664E+00 4.468E+00 8.693E+01 2.400E+01 1.154E+02 1.181E+02 7.362E+06 17.9851 1.00000
  2.239E+08 2.239E+08 2.676E+00 5.046E+00 9.764E+01 2.740E+01 1.301E+02 1.328E+02 7.557E+06 18.2153 1.00000
  2.512E+08 2.512E+08 2.689E+00 5.697E+00 1.097E+02 3.129E+01 1.466E+02 1.493E+02 7.752E+06 18.4456 1.00000
  2.818E+08 2.818E+08 2.701E+00 6.430E+00 1.231E+02 3.573E+01 1.653E+02 1.680E+02 7.945E+06 18.6758 1.00000
  3.162E+08 3.162E+08 2.713E+00 7.256E+00 1.383E+02 4.081E+01 1.863E+02 1.891E+02 8.139E+06 18.9061 1.00000
  3.548E+08 3.548E+08 2.726E+00 8.186E+00 1.553E+02 4.661E+01 2.101E+02 2.128E+02 8.331E+06 19.1364 1.00000
  3.981E+08 3.981E+08 2.738E+00 9.232E+00 1.743E+02 5.323E+01 2.368E+02 2.395E+02 8.523E+06 19.3666 1.00000
  4.467E+08 4.467E+08 2.751E+00 1.041E+01 1.957E+02 6.081E+01 2.669E+02 2.697E+02 8.715E+06 19.5969 1.00000
  5.012E+08 5.012E+08 2.763E+00 1.173E+01 2.197E+02 6.946E+01 3.009E+02 3.037E+02 8.906E+06 19.8271 1.00000
  5.623E+08 5.623E+08 2.776E+00 1.323E+01 2.467E+02 7.935E+01 3.393E+02 3.420E+02 9.096E+06 20.0574 1.00000
  6.310E+08 6.310E+08 2.788E+00 1.490E+01 2.769E+02 9.066E+01 3.825E+02 3.853E+02 9.285E+06 20.2876 1.00000
  7.079E+08 7.079E+08 2.801E+00 1.679E+01 3.108E+02 1.036E+02 4.312E+02 4.340E+02 9.474E+06 20.5179 1.00000
  7.943E+08 7.943E+08 2.814E+00 1.891E+01 3.489E+02 1.184E+02 4.862E+02 4.890E+02 9.662E+06 20.7482 1.00000
  8.913E+08 8.913E+08 2.827E+00 2.129E+01 3.916E+02 1.352E+02 5.481E+02 5.510E+02 9.849E+06 20.9784 1.00000
  1.000E+09 1.000E+09 2.840E+00 2.397E+01 4.395E+02 1.545E+02 6.181E+02 6.209E+02 1.003E+07 21.2087 1.00000
  1.122E+09 1.122E+09 2.853E+00 2.699E+01 4.933E+02 1.766E+02 6.969E+02 6.998E+02 1.022E+07 21.4389 1.00000
  1.259E+09 1.259E+09 2.866E+00 3.037E+01 5.537E+02 2.019E+02 7.859E+02 7.887E+02 1.040E+07 21.6692 1.00000
  1.413E+09 1.413E+09 2.879E+00 3.417E+01 6.214E+02 2.307E+02 8.862E+02 8.891E+02 1.059E+07 21.8994 1.00000
  1.585E+09 1.585E+09 2.892E+00 3.845E+01 6.973E+02 2.637E+02 9.995E+02 1.002E+03 1.077E+07 22.1297 1.00000
  1.778E+09 1.778E+09 2.906E+00 4.325E+01 7.826E+02 3.014E+02 1.127E+03 1.130E+03 1.095E+07 22.3600 1.00000
  1.995E+09 1.995E+09 2.919E+00 4.864E+01 8.782E+02 3.446E+02 1.271E+03 1.274E+03 1.113E+07 22.5902 1.00000
  2.239E+09 2.239E+09 2.932E+00 5.470E+01 9.856E+02 3.939E+02 1.434E+03 1.437E+03 1.132E+07 22.8205 1.00000
  2.512E+09 2.512E+09 2.946E+00 6.151E+01 1.106E+03 4.503E+02 1.618E+03 1.621E+03 1.149E+07 23.0507 1.00000
  2.818E+09 2.818E+09 2.959E+00 6.915E+01 1.241E+03 5.149E+02 1.825E+03 1.828E+03 1.167E+07 23.2810 1.00000
  3.162E+09 3.162E+09 2.973E+00 7.773E+01 1.393E+03 5.887E+02 2.059E+03 2.062E+03 1.185E+07 23.5113 1.00000
  3.548E+09 3.548E+09 2.987E+00 8.736E+01 1.563E+03 6.732E+02 2.323E+03 2.326E+03 1.203E+07 23.7415 1.00000
  3.981E+09 3.981E+09 3.001E+00 9.818E+01 1.754E+03 7.698E+02 2.622E+03 2.625E+03 1.220E+07 23.9718 1.00000
  4.467E+09 4.467E+09 3.015E+00 1.103E+02 1.968E+03 8.803E+02 2.958E+03 2.961E+03 1.238E+07 24.2020 1.00000
  5.012E+09 5.012E+09 3.029E+00 1.240E+02 2.208E+03 1.007E+03 3.339E+03 3.342E+03 1.255E+07 24.4323 1.00000
  5.623E+09 5.623E+09 3.043E+00 1.393E+02 2.478E+03 1.151E+03 3.768E+03 3.771E+03 1.272E+07 24.6625 1.00000
  6.310E+09 6.310E+09 3.057E+00 1.565E+02 2.780E+03 1.317E+03 4.253E+03 4.256E+03 1.289E+07 24.8928 1.00000
  7.079E+09 7.079E+09 3.071E+00 1.757E+02 3.120E+03 1.506E+03 4.801E+03 4.805E+03 1.307E+07 25.1231 1.00000
  7.943E+09 7.943E+09 3.085E+00 1.974E+02 3.500E+03 1.723E+03 5.421E+03 5.424E+03 1.323E+07 25.3533 1.00000
  8.913E+09 8.913E+09 3.100E+00 2.217E+02 3.928E+03 1.971E+03 6.120E+03 6.123E+03 1.340E+07 25.5836 1.00000
  1.000E+10 1.000E+10 3.114E+00 2.490E+02 4.407E+03 2.255E+03 6.911E+03 6.914E+03 1.357E+07 25.8138 1.00000
  1.122E+10 1.122E+10 3.129E+00 2.796E+02 4.945E+03 2.579E+03 7.804E+03 7.807E+03 1.374E+07 26.0441 1.00000
  1.259E+10 1.259E+10 3.143E+00 3.140E+02 5.548E+03 2.951E+03 8.813E+03 8.817E+03 1.390E+07 26.2744 1.00000
  1.413E+10 1.413E+10 3.158E+00 3.525E+02 6.225E+03 3.377E+03 9.954E+03 9.958E+03 1.407E+07 26.5046 1.00000
  1.585E+10 1.585E+10 3.173E+00 3.958E+02 6.985E+03 3.864E+03 1.124E+04 1.125E+04 1.423E+07 26.7349 1.00000
  1.778E+10 1.778E+10 3.188E+00 4.444E+02 7.838E+03 4.421E+03 1.270E+04 1.271E+04 1.439E+07 26.9651 1.00000
  1.995E+10 1.995E+10 3.203E+00 4.989E+02 8.794E+03 5.059E+03 1.435E+04 1.436E+04 1.455E+07 27.1954 1.00000
  2.239E+10 2.239E+10 3.218E+00 5.600E+02 9.867E+03 5.790E+03 1.622E+04 1.622E+04 1.471E+07 27.4257 1.00000
  2.512E+10 2.512E+10 3.233E+00 6.287E+02 1.107E+04 6.626E+03 1.833E+04 1.833E+04 1.487E+07 27.6559 1.00000
  2.818E+10 2.818E+10 3.248E+00 7.057E+02 1.242E+04 7.584E+03 2.071E+04 2.071E+04 1.503E+07 27.8862 1.00000
  3.162E+10 3.162E+10 3.263E+00 7.921E+02 1.394E+04 8.680E+03 2.341E+04 2.341E+04 1.519E+07 28.1164 1.00000
  3.548E+10 3.548E+10 3.279E+00 8.891E+02 1.564E+04 9.936E+03 2.646E+04 2.647E+04 1.534E+07 28.3467 1.00000
  3.981E+10 3.981E+10 3.294E+00 9.980E+02 1.755E+04 1.137E+04 2.992E+04 2.992E+04 1.549E+07 28.5769 1.00000
  4.467E+10 4.467E+10 3.310E+00 1.120E+03 1.969E+04 1.302E+04 3.383E+04 3.383E+04 1.565E+07 28.8072 1.00000
  5.012E+10 5.012E+10 3.325E+00 1.257E+03 2.209E+04 1.491E+04 3.825E+04 3.825E+04 1.580E+07 29.0375 1.00000
  5.623E+10 5.623E+10 3.341E+00 1.411E+03 2.478E+04 1.707E+04 4.326E+04 4.326E+04 1.595E+07 29.2677 1.00000
  6.310E+10 6.310E+10 3.357E+00 1.583E+03 2.781E+04 1.954E+04 4.893E+04 4.893E+04 1.610E+07 29.4980 1.00000
  7.079E+10 7.079E+10 3.373E+00 1.777E+03 3.120E+04 2.237E+04 5.535E+04 5.535E+04 1.625E+07 29.7282 1.00000
  7.943E+10 7.943E+10 3.389E+00 1.994E+03 3.501E+04 2.562E+04 6.262E+04 6.262E+04 1.639E+07 29.9585 1.00000
  8.913E+10 8.913E+10 3.405E+00 2.238E+03 3.928E+04 2.934E+04 7.085E+04 7.085E+04 1.654E+07 30.1888 1.00000
  1.000E+11 1.000E+11 3.421E+00 2.512E+03 4.407E+04 3.360E+04 8.017E+04 8.018E+04 1.669E+07 30.4190 1.00000
  1.122E+11 1.122E+11 3.437E+00 2.818E+03 4.944E+04 3.847E+04 9.074E+04 9.074E+04 1.683E+07 30.6493 1.00000
  1.259E+11 1.259E+11 3.454E+00 3.163E+03 5.548E+04 4.407E+04 1.027E+05 1.027E+05 1.697E+07 30.8795 1.00000
  1.413E+11 1.413E+11 3.470E+00 3.549E+03 6.224E+04 5.047E+04 1.163E+05 1.163E+05 1.711E+07 31.1098 1.00000
  1.585E+11 1.585E+11 3.487E+00 3.983E+03 6.984E+04 5.781E+04 1.316E+05 1.316E+05 1.725E+07 31.3400 1.00000
  1.778E+11 1.778E+11 3.503E+00 4.469E+03 7.836E+04 6.622E+04 1.490E+05 1.490E+05 1.739E+07 31.5703 1.00000
  1.995E+11 1.995E+11 3.520E+00 5.015E+03 8.791E+04 7.586E+04 1.688E+05 1.688E+05 1.753E+07 31.8006 1.00000
  2.239E+11 2.239E+11 3.537E+00 5.627E+03 9.864E+04 8.690E+04 1.912E+05 1.912E+05 1.766E+07 32.0308 1.00000
  2.512E+11 2.512E+11 3.554E+00 6.315E+03 1.107E+05 9.956E+04 2.165E+05 2.166E+05 1.780E+07 32.2611 1.00000
  2.818E+11 2.818E+11 3.571E+00 7.086E+03 1.242E+05 1.141E+05 2.453E+05 2.453E+05 1.793E+07 32.4913 1.00000
  3.162E+11 3.162E+11 3.588E+00 7.951E+03 1.393E+05 1.307E+05 2.780E+05 2.780E+05 1.806E+07 32.7216 1.00000
  3.548E+11 3.548E+11 3.605E+00 8.921E+03 1.563E+05 1.498E+05 3.150E+05 3.150E+05 1.819E+07 32.9519 1.00000
  3.981E+11 3.981E+11 3.622E+00 1.001E+04 1.754E+05 1.716E+05 3.570E+05 3.570E+05 1.832E+07 33.1821 1.00000
  4.467E+11 4.467E+11 3.640E+00 1.123E+04 1.968E+05 1.967E+05 4.047E+05 4.047E+05 1.845E+07 33.4124 1.00000
  5.012E+11 5.012E+11 3.657E+00 1.260E+04 2.208E+05 2.254E+05 4.588E+05 4.588E+05 1.858E+07 33.6426 1.00000
  5.623E+11 5.623E+11 3.675E+00 1.414E+04 2.477E+05 2.583E+05 5.201E+05 5.201E+05 1.870E+07 33.8729 1.00000
  6.310E+11 6.310E+11 3.693E+00 1.587E+04 2.779E+05 2.960E+05 5.898E+05 5.898E+05 1.883E+07 34.1031 1.00000
  7.079E+11 7.079E+11 3.710E+00 1.780E+04 3.118E+05 3.393E+05 6.689E+05 6.690E+05 1.895E+07 34.3334 1.00000
  7.943E+11 7.943E+11 3.728E+00 1.998E+04 3.499E+05 3.889E+05 7.588E+05 7.588E+05 1.907E+07 34.5637 1.00000
  8.913E+11 8.913E+11 3.746E+00 2.242E+04 3.925E+05 4.459E+05 8.608E+05 8.608E+05 1.919E+07 34.7939 1.00000
  1.000E+12 1.000E+12 3.764E+00 2.515E+04 4.404E+05 5.111E+05 9.767E+05 9.767E+05 1.931E+07 35.0242 1.00000
  1.122E+12 1.122E+12 3.783E+00 2.822E+04 4.941E+05 5.860E+05 1.108E+06 1.108E+06 1.943E+07 35.2544 1.00000
  1.259E+12 1.259E+12 3.801E+00 3.167E+04 5.544E+05 6.718E+05 1.258E+06 1.258E+06 1.954E+07 35.4847 1.00000
  1.413E+12 1.413E+12 3.819E+00 3.553E+04 6.220E+05 7.702E+05 1.428E+06 1.428E+06 1.966E+07 35.7150 1.00000
  1.585E+12 1.585E+12 3.838E+00 3.987E+04 6.979E+05 8.832E+05 1.621E+06 1.621E+06 1.977E+07 35.9452 1.00000
  1.778E+12 1.778E+12 3.856E+00 4.473E+04 7.830E+05 1.013E+06 1.840E+06 1.840E+06 1.988E+07 36.1755 1.00000
  1.995E+12 1.995E+12 3.875E+00 5.019E+04 8.785E+05 1.161E+06 2.090E+06 2.090E+06 1.999E+07 36.4057 1.00000
  2.239E+12 2.239E+12 3.894E+00 5.631E+04 9.857E+05 1.332E+06 2.374E+06 2.374E+06 2.010E+07 36.6360 1.00000
  2.512E+12 2.512E+12 3.913E+00 6.319E+04 1.106E+06 1.527E+06 2.696E+06 2.696E+06 2.021E+07 36.8662 1.00000
  2.818E+12 2.818E+12 3.932E+00 7.090E+04 1.241E+06 1.752E+06 3.063E+06 3.063E+06 2.032E+07 37.0965 1.00000
  3.162E+12 3.162E+12 3.951E+00 7.955E+04 1.392E+06 2.009E+06 3.481E+06 3.481E+06 2.042E+07 37.3268 1.00000
  3.548E+12 3.548E+12 3.970E+00 8.925E+04 1.562E+06 2.304E+06 3.956E+06 3.956E+06 2.053E+07 37.5570 1.00000
  3.981E+12 3.981E+12 3.989E+00 1.001E+05 1.752E+06 2.643E+06 4.496E+06 4.496E+06 2.063E+07 37.7873 1.00000
  4.467E+12 4.467E+12 4.009E+00 1.124E+05 1.966E+06 3.032E+06 5.111E+06 5.111E+06 2.073E+07 38.0175 1.00000
  5.012E+12 5.012E+12 4.028E+00 1.261E+05 2.206E+06 3.478E+06 5.810E+06 5.810E+06 2.083E+07 38.2478 1.00000
  5.623E+12 5.623E+12 4.048E+00 1.415E+05 2.475E+06 3.990E+06 6.607E+06 6.607E+06 2.093E+07 38.4781 1.00000
  6.310E+12 6.310E+12 4.068E+00 1.587E+05 2.777E+06 4.578E+06 7.514E+06 7.514E+06 2.103E+07 38.7083 1.00000
  7.079E+12 7.079E+12 4.088E+00 1.781E+05 3.116E+06 5.253E+06 8.547E+06 8.547E+06 2.113E+07 38.9386 1.00000
  7.943E+12 7.943E+12 4.108E+00 1.998E+05 3.496E+06 6.027E+06 9.723E+06 9.723E+06 2.122E+07 39.1688 1.00000
  8.913E+12 8.913E+12 4.128E+00 2.242E+05 3.922E+06 6.916E+06 1.106E+07 1.106E+07 2.131E+07 39.3991 1.00000
  1.000E+13 1.000E+13 4.148E+00 2.516E+05 4.400E+06 7.936E+06 1.259E+07 1.259E+07 2.141E+07 39.6294 1.00000
  1.122E+13 1.122E+13 4.168E+00 2.823E+05 4.937E+06 9.107E+06 1.433E+07 1.433E+07 2.150E+07 39.8596 1.00000
  1.259E+13 1.259E+13 4.189E+00 3.167E+05 5.539E+06 1.045E+07 1.631E+07 1.631E+07 2.159E+07 40.0899 1.00000
  1.413E+13 1.413E+13 4.209E+00 3.553E+05 6.215E+06 1.200E+07 1.857E+07 1.857E+07 2.168E+07 40.3201 1.00000
  1.585E+13 1.585E+13 4.230E+00 3.987E+05 6.973E+06 1.377E+07 2.114E+07 2.114E+07 2.176E+07 40.5504 1.00000
  1.778E+13 1.778E+13 4.251E+00 4.474E+05 7.823E+06 1.580E+07 2.407E+07 2.407E+07 2.185E+07 40.7806 1.00000
  1.995E+13 1.995E+13 4.271E+00 5.019E+05 8.777E+06 1.814E+07 2.742E+07 2.742E+07 2.193E+07 41.0109 1.00000
  2.239E+13 2.239E+13 4.292E+00 5.632E+05 9.848E+06 2.082E+07 3.123E+07 3.123E+07 2.202E+07 41.2412 1.00000
  2.512E+13 2.512E+13 4.313E+00 6.319E+05 1.105E+07 2.390E+07 3.558E+07 3.558E+07 2.210E+07 41.4714 1.00000
  2.818E+13 2.818E+13 4.335E+00 7.090E+05 1.240E+07 2.744E+07 4.055E+07 4.055E+07 2.218E+07 41.7017 1.00000
  3.162E+13 3.162E+13 4.356E+00 7.955E+05 1.391E+07 3.150E+07 4.621E+07 4.621E+07 2.226E+07 41.9319 1.00000
  3.548E+13 3.548E+13 4.377E+00 8.926E+05 1.560E+07 3.617E+07 5.267E+07 5.267E+07 2.234E+07 42.1622 1.00000
  3.981E+13 3.981E+13 4.399E+00 1.002E+06 1.751E+07 4.153E+07 6.004E+07 6.004E+07 2.242E+07 42.3925 1.00000
  4.467E+13 4.467E+13 4.421E+00 1.124E+06 1.964E+07 4.769E+07 6.845E+07 6.845E+07 2.249E+07 42.6227 1.00000
  5.012E+13 5.012E+13 4.442E+00 1.261E+06 2.204E+07 5.476E+07 7.806E+07 7.806E+07 2.257E+07 42.8530 1.00000
  5.623E+13 5.623E+13 4.464E+00 1.415E+06 2.473E+07 6.288E+07 8.902E+07 8.902E+07 2.264E+07 43.0832 1.00000
  6.310E+13 6.310E+13 4.486E+00 1.587E+06 2.774E+07 7.221E+07 1.015E+08 1.015E+08 2.271E+07 43.3135 1.00000
  7.079E+13 7.079E+13 4.508E+00 1.781E+06 3.112E+07 8.293E+07 1.158E+08 1.158E+08 2.278E+07 43.5437 1.00000
  7.943E+13 7.943E+13 4.531E+00 1.998E+06 3.492E+07 9.525E+07 1.322E+08 1.322E+08 2.285E+07 43.7740 1.00000
  8.913E+13 8.913E+13 4.553E+00 2.242E+06 3.918E+07 1.094E+08 1.508E+08 1.508E+08 2.292E+07 44.0043 1.00000
