 Incident particle is a Tau with M = 1776.82000 MeV
 Index = 0: Calcium
      Absorber with <Z/A> = 0.49902
 Sternheimer coef:  a     k=m_s   x_0    x_1    I[eV]   Cbar  delta0
                 0.1564  3.0745  0.3228  3.1191  191.0  5.0396 0.14

 *** Table generated with PUMAS v1.00 ***

      T         p     Ionization  brems     pair     photonuc  Radloss    dE/dx   CSDA Range  delta   beta
    [MeV]    [MeV/c]  -----------------------[MeV cm^2/g]------------------------  [g/cm^2]
  1.000E+05 1.018E+05 2.149E+00 3.656E-04 5.890E-03 7.997E-03 1.425E-02 2.163E+00 2.312E+04  3.4596 0.99985
  1.122E+05 1.140E+05 2.170E+00 4.229E-04 7.070E-03 9.008E-03 1.650E-02 2.186E+00 2.873E+04  3.6429 0.99988
  1.259E+05 1.277E+05 2.191E+00 4.889E-04 8.461E-03 1.009E-02 1.904E-02 2.210E+00 3.496E+04  3.8298 0.99990
  1.413E+05 1.430E+05 2.212E+00 5.650E-04 1.010E-02 1.131E-02 2.197E-02 2.234E+00 4.187E+04  4.0201 0.99992
  1.585E+05 1.603E+05 2.232E+00 6.525E-04 1.201E-02 1.267E-02 2.534E-02 2.258E+00 4.955E+04  4.2137 0.99994
  1.778E+05 1.796E+05 2.253E+00 7.532E-04 1.426E-02 1.419E-02 2.920E-02 2.282E+00 5.807E+04  4.4104 0.99995
  1.995E+05 2.013E+05 2.273E+00 8.690E-04 1.689E-02 1.591E-02 3.367E-02 2.307E+00 6.752E+04  4.6101 0.99996
  2.239E+05 2.256E+05 2.293E+00 1.002E-03 1.995E-02 1.779E-02 3.874E-02 2.332E+00 7.802E+04  4.8125 0.99997
  2.512E+05 2.530E+05 2.313E+00 1.155E-03 2.352E-02 1.989E-02 4.456E-02 2.358E+00 8.967E+04  5.0177 0.99998
  2.818E+05 2.836E+05 2.333E+00 1.331E-03 2.766E-02 2.225E-02 5.125E-02 2.384E+00 1.026E+05  5.2254 0.99998
  3.162E+05 3.180E+05 2.352E+00 1.532E-03 3.247E-02 2.492E-02 5.892E-02 2.411E+00 1.169E+05  5.4355 0.99998
  3.548E+05 3.566E+05 2.372E+00 1.763E-03 3.804E-02 2.791E-02 6.771E-02 2.440E+00 1.329E+05  5.6478 0.99999
  3.981E+05 3.999E+05 2.391E+00 2.028E-03 4.448E-02 3.123E-02 7.774E-02 2.469E+00 1.505E+05  5.8622 0.99999
  4.467E+05 4.485E+05 2.410E+00 2.332E-03 5.192E-02 3.496E-02 8.921E-02 2.499E+00 1.700E+05  6.0786 0.99999
  5.012E+05 5.030E+05 2.429E+00 2.680E-03 6.050E-02 3.914E-02 1.023E-01 2.531E+00 1.917E+05  6.2968 0.99999
  5.623E+05 5.641E+05 2.448E+00 3.079E-03 7.038E-02 4.366E-02 1.171E-01 2.565E+00 2.157E+05  6.5168 1.00000
  6.310E+05 6.327E+05 2.467E+00 3.535E-03 8.175E-02 4.875E-02 1.340E-01 2.601E+00 2.423E+05  6.7382 1.00000
  7.079E+05 7.097E+05 2.485E+00 4.058E-03 9.480E-02 5.449E-02 1.534E-01 2.638E+00 2.717E+05  6.9611 1.00000
  7.943E+05 7.961E+05 2.503E+00 4.655E-03 1.098E-01 6.096E-02 1.754E-01 2.679E+00 3.042E+05  7.1853 1.00000
  8.913E+05 8.930E+05 2.521E+00 5.339E-03 1.269E-01 6.827E-02 2.006E-01 2.722E+00 3.401E+05  7.4107 1.00000
  1.000E+06 1.002E+06 2.539E+00 6.121E-03 1.466E-01 7.652E-02 2.292E-01 2.769E+00 3.797E+05  7.6370 1.00000
  1.122E+06 1.124E+06 2.557E+00 7.014E-03 1.691E-01 8.586E-02 2.619E-01 2.819E+00 4.234E+05  7.8643 1.00000
  1.259E+06 1.261E+06 2.575E+00 8.035E-03 1.947E-01 9.642E-02 2.992E-01 2.874E+00 4.715E+05  8.0923 1.00000
  1.413E+06 1.414E+06 2.592E+00 9.201E-03 2.240E-01 1.084E-01 3.416E-01 2.934E+00 5.244E+05  8.3210 1.00000
  1.585E+06 1.587E+06 2.610E+00 1.053E-02 2.574E-01 1.219E-01 3.898E-01 3.000E+00 5.825E+05  8.5502 1.00000
  1.778E+06 1.780E+06 2.627E+00 1.205E-02 2.954E-01 1.373E-01 4.447E-01 3.072E+00 6.462E+05  8.7798 1.00000
  1.995E+06 1.997E+06 2.644E+00 1.379E-02 3.386E-01 1.547E-01 5.071E-01 3.151E+00 7.159E+05  9.0096 1.00000
  2.239E+06 2.240E+06 2.661E+00 1.576E-02 3.878E-01 1.745E-01 5.781E-01 3.239E+00 7.921E+05  9.2397 1.00000
  2.512E+06 2.514E+06 2.678E+00 1.802E-02 4.436E-01 1.970E-01 6.586E-01 3.336E+00 8.753E+05  9.4697 1.00000
  2.818E+06 2.820E+06 2.694E+00 2.059E-02 5.069E-01 2.225E-01 7.501E-01 3.444E+00 9.657E+05  9.6998 1.00000
  3.162E+06 3.164E+06 2.711E+00 2.353E-02 5.787E-01 2.516E-01 8.538E-01 3.565E+00 1.064E+06  9.9300 1.00000
  3.548E+06 3.550E+06 2.727E+00 2.687E-02 6.601E-01 2.846E-01 9.716E-01 3.699E+00 1.170E+06 10.1601 1.00000
  3.981E+06 3.983E+06 2.743E+00 3.068E-02 7.522E-01 3.221E-01 1.105E+00 3.848E+00 1.285E+06 10.3903 1.00000
  4.467E+06 4.469E+06 2.759E+00 3.501E-02 8.565E-01 3.648E-01 1.256E+00 4.016E+00 1.408E+06 10.6204 1.00000
  5.012E+06 5.014E+06 2.775E+00 3.995E-02 9.744E-01 4.134E-01 1.428E+00 4.203E+00 1.541E+06 10.8506 1.00000
  5.623E+06 5.625E+06 2.791E+00 4.556E-02 1.108E+00 4.688E-01 1.622E+00 4.413E+00 1.683E+06 11.0808 1.00000
  6.310E+06 6.311E+06 2.806E+00 5.196E-02 1.258E+00 5.318E-01 1.842E+00 4.648E+00 1.835E+06 11.3110 1.00000
  7.079E+06 7.081E+06 2.822E+00 5.923E-02 1.428E+00 6.036E-01 2.091E+00 4.913E+00 1.996E+06 11.5412 1.00000
  7.943E+06 7.945E+06 2.837E+00 6.750E-02 1.620E+00 6.854E-01 2.373E+00 5.210E+00 2.167E+06 11.7714 1.00000
  8.913E+06 8.914E+06 2.852E+00 7.690E-02 1.836E+00 7.785E-01 2.691E+00 5.544E+00 2.347E+06 12.0016 1.00000
  1.000E+07 1.000E+07 2.867E+00 8.758E-02 2.080E+00 8.847E-01 3.052E+00 5.919E+00 2.537E+06 12.2318 1.00000
  1.122E+07 1.122E+07 2.882E+00 9.972E-02 2.355E+00 1.006E+00 3.460E+00 6.342E+00 2.736E+06 12.4620 1.00000
  1.259E+07 1.259E+07 2.896E+00 1.135E-01 2.664E+00 1.144E+00 3.921E+00 6.818E+00 2.945E+06 12.6922 1.00000
  1.413E+07 1.413E+07 2.911E+00 1.292E-01 3.013E+00 1.301E+00 4.443E+00 7.354E+00 3.162E+06 12.9225 1.00000
  1.585E+07 1.585E+07 2.925E+00 1.469E-01 3.405E+00 1.481E+00 5.033E+00 7.958E+00 3.387E+06 13.1527 1.00000
  1.778E+07 1.778E+07 2.940E+00 1.671E-01 3.847E+00 1.685E+00 5.699E+00 8.639E+00 3.621E+06 13.3829 1.00000
  1.995E+07 1.995E+07 2.954E+00 1.900E-01 4.344E+00 1.919E+00 6.453E+00 9.407E+00 3.862E+06 13.6132 1.00000
  2.239E+07 2.239E+07 2.968E+00 2.159E-01 4.903E+00 2.185E+00 7.304E+00 1.027E+01 4.110E+06 13.8434 1.00000
  2.512E+07 2.512E+07 2.982E+00 2.453E-01 5.532E+00 2.489E+00 8.266E+00 1.125E+01 4.364E+06 14.0736 1.00000
  2.818E+07 2.819E+07 2.996E+00 2.787E-01 6.239E+00 2.835E+00 9.353E+00 1.235E+01 4.624E+06 14.3039 1.00000
  3.162E+07 3.162E+07 3.010E+00 3.165E-01 7.034E+00 3.231E+00 1.058E+01 1.359E+01 4.890E+06 14.5341 1.00000
  3.548E+07 3.548E+07 3.024E+00 3.593E-01 7.927E+00 3.682E+00 1.197E+01 1.499E+01 5.161E+06 14.7644 1.00000
  3.981E+07 3.981E+07 3.038E+00 4.077E-01 8.931E+00 4.197E+00 1.354E+01 1.657E+01 5.436E+06 14.9946 1.00000
  4.467E+07 4.467E+07 3.052E+00 4.626E-01 1.006E+01 4.785E+00 1.531E+01 1.836E+01 5.715E+06 15.2249 1.00000
  5.012E+07 5.012E+07 3.066E+00 5.247E-01 1.133E+01 5.457E+00 1.731E+01 2.037E+01 5.997E+06 15.4551 1.00000
  5.623E+07 5.624E+07 3.080E+00 5.950E-01 1.275E+01 6.223E+00 1.957E+01 2.265E+01 6.282E+06 15.6854 1.00000
  6.310E+07 6.310E+07 3.094E+00 6.745E-01 1.435E+01 7.098E+00 2.212E+01 2.522E+01 6.569E+06 15.9156 1.00000
  7.079E+07 7.080E+07 3.107E+00 7.644E-01 1.615E+01 8.097E+00 2.501E+01 2.812E+01 6.859E+06 16.1459 1.00000
  7.943E+07 7.943E+07 3.121E+00 8.660E-01 1.816E+01 9.237E+00 2.827E+01 3.139E+01 7.150E+06 16.3761 1.00000
  8.913E+07 8.913E+07 3.135E+00 9.808E-01 2.043E+01 1.054E+01 3.195E+01 3.508E+01 7.443E+06 16.6064 1.00000
  1.000E+08 1.000E+08 3.149E+00 1.111E+00 2.297E+01 1.203E+01 3.611E+01 3.926E+01 7.736E+06 16.8366 1.00000
  1.122E+08 1.122E+08 3.163E+00 1.257E+00 2.583E+01 1.372E+01 4.081E+01 4.397E+01 8.030E+06 17.0669 1.00000
  1.259E+08 1.259E+08 3.177E+00 1.422E+00 2.904E+01 1.566E+01 4.612E+01 4.930E+01 8.325E+06 17.2971 1.00000
  1.413E+08 1.413E+08 3.191E+00 1.609E+00 3.263E+01 1.788E+01 5.212E+01 5.531E+01 8.619E+06 17.5274 1.00000
  1.585E+08 1.585E+08 3.205E+00 1.820E+00 3.668E+01 2.041E+01 5.891E+01 6.211E+01 8.914E+06 17.7577 1.00000
  1.778E+08 1.778E+08 3.219E+00 2.058E+00 4.121E+01 2.330E+01 6.657E+01 6.979E+01 9.208E+06 17.9879 1.00000
  1.995E+08 1.995E+08 3.233E+00 2.326E+00 4.630E+01 2.660E+01 7.523E+01 7.846E+01 9.502E+06 18.2182 1.00000
  2.239E+08 2.239E+08 3.248E+00 2.629E+00 5.202E+01 3.037E+01 8.502E+01 8.827E+01 9.795E+06 18.4484 1.00000
  2.512E+08 2.512E+08 3.262E+00 2.970E+00 5.843E+01 3.468E+01 9.608E+01 9.935E+01 1.009E+07 18.6787 1.00000
  2.818E+08 2.818E+08 3.276E+00 3.354E+00 6.563E+01 3.961E+01 1.086E+02 1.119E+02 1.038E+07 18.9089 1.00000
  3.162E+08 3.162E+08 3.291E+00 3.787E+00 7.371E+01 4.523E+01 1.227E+02 1.260E+02 1.067E+07 19.1392 1.00000
  3.548E+08 3.548E+08 3.305E+00 4.275E+00 8.277E+01 5.166E+01 1.387E+02 1.420E+02 1.096E+07 19.3695 1.00000
  3.981E+08 3.981E+08 3.320E+00 4.825E+00 9.295E+01 5.901E+01 1.568E+02 1.601E+02 1.125E+07 19.5997 1.00000
  4.467E+08 4.467E+08 3.334E+00 5.444E+00 1.044E+02 6.741E+01 1.772E+02 1.806E+02 1.153E+07 19.8300 1.00000
  5.012E+08 5.012E+08 3.349E+00 6.141E+00 1.172E+02 7.700E+01 2.003E+02 2.037E+02 1.182E+07 20.0602 1.00000
  5.623E+08 5.623E+08 3.364E+00 6.925E+00 1.316E+02 8.797E+01 2.265E+02 2.298E+02 1.210E+07 20.2905 1.00000
  6.310E+08 6.310E+08 3.379E+00 7.808E+00 1.477E+02 1.005E+02 2.560E+02 2.594E+02 1.238E+07 20.5207 1.00000
  7.079E+08 7.079E+08 3.393E+00 8.802E+00 1.658E+02 1.148E+02 2.894E+02 2.928E+02 1.266E+07 20.7510 1.00000
  7.943E+08 7.943E+08 3.408E+00 9.920E+00 1.861E+02 1.312E+02 3.272E+02 3.307E+02 1.294E+07 20.9813 1.00000
  8.913E+08 8.913E+08 3.423E+00 1.118E+01 2.089E+02 1.499E+02 3.700E+02 3.734E+02 1.322E+07 21.2115 1.00000
  1.000E+09 1.000E+09 3.439E+00 1.259E+01 2.345E+02 1.713E+02 4.184E+02 4.219E+02 1.349E+07 21.4418 1.00000
  1.122E+09 1.122E+09 3.454E+00 1.418E+01 2.632E+02 1.958E+02 4.732E+02 4.766E+02 1.376E+07 21.6720 1.00000
  1.259E+09 1.259E+09 3.469E+00 1.597E+01 2.954E+02 2.238E+02 5.352E+02 5.386E+02 1.403E+07 21.9023 1.00000
  1.413E+09 1.413E+09 3.484E+00 1.798E+01 3.316E+02 2.558E+02 6.053E+02 6.088E+02 1.430E+07 22.1325 1.00000
  1.585E+09 1.585E+09 3.500E+00 2.024E+01 3.721E+02 2.923E+02 6.847E+02 6.882E+02 1.457E+07 22.3628 1.00000
  1.778E+09 1.778E+09 3.515E+00 2.278E+01 4.176E+02 3.342E+02 7.746E+02 7.781E+02 1.483E+07 22.5931 1.00000
  1.995E+09 1.995E+09 3.531E+00 2.563E+01 4.687E+02 3.820E+02 8.763E+02 8.799E+02 1.510E+07 22.8233 1.00000
  2.239E+09 2.239E+09 3.547E+00 2.883E+01 5.260E+02 4.367E+02 9.915E+02 9.951E+02 1.536E+07 23.0536 1.00000
  2.512E+09 2.512E+09 3.563E+00 3.244E+01 5.903E+02 4.993E+02 1.122E+03 1.126E+03 1.562E+07 23.2838 1.00000
  2.818E+09 2.818E+09 3.578E+00 3.648E+01 6.624E+02 5.708E+02 1.270E+03 1.273E+03 1.587E+07 23.5141 1.00000
  3.162E+09 3.162E+09 3.594E+00 4.103E+01 7.434E+02 6.527E+02 1.437E+03 1.441E+03 1.613E+07 23.7444 1.00000
  3.548E+09 3.548E+09 3.611E+00 4.613E+01 8.342E+02 7.463E+02 1.627E+03 1.630E+03 1.638E+07 23.9746 1.00000
  3.981E+09 3.981E+09 3.627E+00 5.186E+01 9.361E+02 8.534E+02 1.841E+03 1.845E+03 1.663E+07 24.2049 1.00000
  4.467E+09 4.467E+09 3.643E+00 5.830E+01 1.050E+03 9.759E+02 2.085E+03 2.088E+03 1.688E+07 24.4351 1.00000
  5.012E+09 5.012E+09 3.659E+00 6.553E+01 1.179E+03 1.116E+03 2.360E+03 2.364E+03 1.712E+07 24.6654 1.00000
  5.623E+09 5.623E+09 3.676E+00 7.365E+01 1.323E+03 1.276E+03 2.673E+03 2.676E+03 1.737E+07 24.8956 1.00000
  6.310E+09 6.310E+09 3.692E+00 8.276E+01 1.484E+03 1.460E+03 3.027E+03 3.030E+03 1.761E+07 25.1259 1.00000
  7.079E+09 7.079E+09 3.709E+00 9.299E+01 1.665E+03 1.670E+03 3.428E+03 3.432E+03 1.785E+07 25.3562 1.00000
  7.943E+09 7.943E+09 3.726E+00 1.045E+02 1.869E+03 1.910E+03 3.883E+03 3.887E+03 1.808E+07 25.5864 1.00000
  8.913E+09 8.913E+09 3.742E+00 1.174E+02 2.097E+03 2.185E+03 4.399E+03 4.403E+03 1.832E+07 25.8167 1.00000
  1.000E+10 1.000E+10 3.759E+00 1.319E+02 2.353E+03 2.500E+03 4.984E+03 4.988E+03 1.855E+07 26.0469 1.00000
  1.122E+10 1.122E+10 3.776E+00 1.481E+02 2.640E+03 2.860E+03 5.648E+03 5.651E+03 1.878E+07 26.2772 1.00000
  1.259E+10 1.259E+10 3.793E+00 1.663E+02 2.962E+03 3.272E+03 6.400E+03 6.404E+03 1.901E+07 26.5075 1.00000
  1.413E+10 1.413E+10 3.810E+00 1.868E+02 3.323E+03 3.743E+03 7.254E+03 7.258E+03 1.923E+07 26.7377 1.00000
  1.585E+10 1.585E+10 3.828E+00 2.098E+02 3.729E+03 4.283E+03 8.222E+03 8.226E+03 1.946E+07 26.9680 1.00000
  1.778E+10 1.778E+10 3.845E+00 2.356E+02 4.184E+03 4.901E+03 9.321E+03 9.325E+03 1.968E+07 27.1982 1.00000
  1.995E+10 1.995E+10 3.863E+00 2.645E+02 4.695E+03 5.609E+03 1.057E+04 1.057E+04 1.990E+07 27.4285 1.00000
  2.239E+10 2.239E+10 3.880E+00 2.970E+02 5.268E+03 6.419E+03 1.198E+04 1.199E+04 2.012E+07 27.6588 1.00000
  2.512E+10 2.512E+10 3.898E+00 3.335E+02 5.910E+03 7.346E+03 1.359E+04 1.359E+04 2.033E+07 27.8890 1.00000
  2.818E+10 2.818E+10 3.916E+00 3.744E+02 6.632E+03 8.408E+03 1.541E+04 1.542E+04 2.054E+07 28.1193 1.00000
  3.162E+10 3.162E+10 3.933E+00 4.203E+02 7.441E+03 9.623E+03 1.748E+04 1.749E+04 2.075E+07 28.3495 1.00000
  3.548E+10 3.548E+10 3.951E+00 4.718E+02 8.349E+03 1.102E+04 1.984E+04 1.984E+04 2.096E+07 28.5798 1.00000
  3.981E+10 3.981E+10 3.970E+00 5.297E+02 9.367E+03 1.261E+04 2.251E+04 2.251E+04 2.116E+07 28.8100 1.00000
  4.467E+10 4.467E+10 3.988E+00 5.945E+02 1.051E+04 1.443E+04 2.554E+04 2.554E+04 2.137E+07 29.0403 1.00000
  5.012E+10 5.012E+10 4.006E+00 6.674E+02 1.179E+04 1.653E+04 2.899E+04 2.899E+04 2.157E+07 29.2706 1.00000
  5.623E+10 5.623E+10 4.024E+00 7.491E+02 1.323E+04 1.892E+04 3.290E+04 3.290E+04 2.177E+07 29.5008 1.00000
  6.310E+10 6.310E+10 4.043E+00 8.408E+02 1.485E+04 2.166E+04 3.735E+04 3.735E+04 2.196E+07 29.7311 1.00000
  7.079E+10 7.079E+10 4.061E+00 9.436E+02 1.666E+04 2.480E+04 4.240E+04 4.241E+04 2.216E+07 29.9613 1.00000
  7.943E+10 7.943E+10 4.080E+00 1.059E+03 1.869E+04 2.840E+04 4.815E+04 4.815E+04 2.235E+07 30.1916 1.00000
  8.913E+10 8.913E+10 4.099E+00 1.189E+03 2.097E+04 3.252E+04 5.468E+04 5.469E+04 2.254E+07 30.4219 1.00000
  1.000E+11 1.000E+11 4.118E+00 1.334E+03 2.353E+04 3.724E+04 6.211E+04 6.211E+04 2.272E+07 30.6521 1.00000
  1.122E+11 1.122E+11 4.137E+00 1.497E+03 2.640E+04 4.265E+04 7.055E+04 7.055E+04 2.291E+07 30.8824 1.00000
  1.259E+11 1.259E+11 4.156E+00 1.680E+03 2.962E+04 4.885E+04 8.015E+04 8.015E+04 2.309E+07 31.1126 1.00000
  1.413E+11 1.413E+11 4.175E+00 1.885E+03 3.323E+04 5.595E+04 9.107E+04 9.107E+04 2.327E+07 31.3429 1.00000
  1.585E+11 1.585E+11 4.195E+00 2.116E+03 3.729E+04 6.409E+04 1.035E+05 1.035E+05 2.345E+07 31.5731 1.00000
  1.778E+11 1.778E+11 4.214E+00 2.374E+03 4.183E+04 7.341E+04 1.176E+05 1.176E+05 2.363E+07 31.8034 1.00000
  1.995E+11 1.995E+11 4.234E+00 2.665E+03 4.694E+04 8.410E+04 1.337E+05 1.337E+05 2.380E+07 32.0337 1.00000
  2.239E+11 2.239E+11 4.253E+00 2.990E+03 5.266E+04 9.635E+04 1.520E+05 1.520E+05 2.397E+07 32.2639 1.00000
  2.512E+11 2.512E+11 4.273E+00 3.355E+03 5.909E+04 1.104E+05 1.728E+05 1.728E+05 2.414E+07 32.4942 1.00000
  2.818E+11 2.818E+11 4.293E+00 3.765E+03 6.629E+04 1.265E+05 1.965E+05 1.965E+05 2.431E+07 32.7244 1.00000
  3.162E+11 3.162E+11 4.313E+00 4.225E+03 7.438E+04 1.449E+05 2.235E+05 2.235E+05 2.447E+07 32.9547 1.00000
  3.548E+11 3.548E+11 4.333E+00 4.741E+03 8.345E+04 1.660E+05 2.542E+05 2.542E+05 2.463E+07 33.1850 1.00000
  3.981E+11 3.981E+11 4.353E+00 5.320E+03 9.363E+04 1.903E+05 2.892E+05 2.892E+05 2.479E+07 33.4152 1.00000
  4.467E+11 4.467E+11 4.374E+00 5.969E+03 1.051E+05 2.180E+05 3.290E+05 3.291E+05 2.495E+07 33.6455 1.00000
  5.012E+11 5.012E+11 4.394E+00 6.698E+03 1.179E+05 2.499E+05 3.744E+05 3.744E+05 2.511E+07 33.8757 1.00000
  5.623E+11 5.623E+11 4.415E+00 7.516E+03 1.322E+05 2.864E+05 4.261E+05 4.261E+05 2.526E+07 34.1060 1.00000
  6.310E+11 6.310E+11 4.435E+00 8.433E+03 1.484E+05 3.282E+05 4.850E+05 4.850E+05 2.541E+07 34.3362 1.00000
  7.079E+11 7.079E+11 4.456E+00 9.463E+03 1.665E+05 3.762E+05 5.521E+05 5.521E+05 2.556E+07 34.5665 1.00000
  7.943E+11 7.943E+11 4.477E+00 1.062E+04 1.868E+05 4.312E+05 6.286E+05 6.286E+05 2.571E+07 34.7968 1.00000
  8.913E+11 8.913E+11 4.498E+00 1.191E+04 2.096E+05 4.943E+05 7.158E+05 7.158E+05 2.585E+07 35.0270 1.00000
  1.000E+12 1.000E+12 4.519E+00 1.337E+04 2.351E+05 5.666E+05 8.151E+05 8.152E+05 2.599E+07 35.2573 1.00000
  1.122E+12 1.122E+12 4.540E+00 1.500E+04 2.638E+05 6.496E+05 9.284E+05 9.284E+05 2.613E+07 35.4875 1.00000
  1.259E+12 1.259E+12 4.562E+00 1.683E+04 2.960E+05 7.448E+05 1.058E+06 1.058E+06 2.627E+07 35.7178 1.00000
  1.413E+12 1.413E+12 4.583E+00 1.888E+04 3.321E+05 8.539E+05 1.205E+06 1.205E+06 2.641E+07 35.9481 1.00000
  1.585E+12 1.585E+12 4.605E+00 2.119E+04 3.726E+05 9.791E+05 1.373E+06 1.373E+06 2.654E+07 36.1783 1.00000
  1.778E+12 1.778E+12 4.627E+00 2.378E+04 4.181E+05 1.123E+06 1.565E+06 1.565E+06 2.668E+07 36.4086 1.00000
  1.995E+12 1.995E+12 4.648E+00 2.668E+04 4.690E+05 1.287E+06 1.783E+06 1.783E+06 2.681E+07 36.6388 1.00000
  2.239E+12 2.239E+12 4.670E+00 2.993E+04 5.263E+05 1.476E+06 2.033E+06 2.033E+06 2.693E+07 36.8691 1.00000
  2.512E+12 2.512E+12 4.693E+00 3.359E+04 5.904E+05 1.693E+06 2.317E+06 2.317E+06 2.706E+07 37.0993 1.00000
  2.818E+12 2.818E+12 4.715E+00 3.768E+04 6.625E+05 1.942E+06 2.642E+06 2.642E+06 2.718E+07 37.3296 1.00000
  3.162E+12 3.162E+12 4.737E+00 4.228E+04 7.433E+05 2.227E+06 3.013E+06 3.013E+06 2.731E+07 37.5599 1.00000
  3.548E+12 3.548E+12 4.760E+00 4.744E+04 8.339E+05 2.555E+06 3.436E+06 3.436E+06 2.743E+07 37.7901 1.00000
  3.981E+12 3.981E+12 4.782E+00 5.323E+04 9.356E+05 2.930E+06 3.919E+06 3.919E+06 2.754E+07 38.0204 1.00000
  4.467E+12 4.467E+12 4.805E+00 5.973E+04 1.050E+06 3.361E+06 4.471E+06 4.471E+06 2.766E+07 38.2506 1.00000
  5.012E+12 5.012E+12 4.828E+00 6.702E+04 1.178E+06 3.856E+06 5.101E+06 5.101E+06 2.778E+07 38.4809 1.00000
  5.623E+12 5.623E+12 4.851E+00 7.519E+04 1.321E+06 4.424E+06 5.821E+06 5.821E+06 2.789E+07 38.7112 1.00000
  6.310E+12 6.310E+12 4.874E+00 8.437E+04 1.483E+06 5.076E+06 6.643E+06 6.643E+06 2.800E+07 38.9414 1.00000
  7.079E+12 7.079E+12 4.897E+00 9.466E+04 1.663E+06 5.824E+06 7.582E+06 7.582E+06 2.811E+07 39.1717 1.00000
  7.943E+12 7.943E+12 4.920E+00 1.062E+05 1.866E+06 6.682E+06 8.654E+06 8.654E+06 2.821E+07 39.4019 1.00000
  8.913E+12 8.913E+12 4.944E+00 1.192E+05 2.094E+06 7.667E+06 9.880E+06 9.880E+06 2.832E+07 39.6322 1.00000
  1.000E+13 1.000E+13 4.967E+00 1.337E+05 2.349E+06 8.798E+06 1.128E+07 1.128E+07 2.842E+07 39.8625 1.00000
  1.122E+13 1.122E+13 4.991E+00 1.500E+05 2.636E+06 1.010E+07 1.288E+07 1.288E+07 2.852E+07 40.0927 1.00000
  1.259E+13 1.259E+13 5.015E+00 1.683E+05 2.957E+06 1.159E+07 1.471E+07 1.471E+07 2.862E+07 40.3230 1.00000
  1.413E+13 1.413E+13 5.039E+00 1.889E+05 3.318E+06 1.330E+07 1.681E+07 1.681E+07 2.872E+07 40.5532 1.00000
  1.585E+13 1.585E+13 5.063E+00 2.119E+05 3.723E+06 1.526E+07 1.920E+07 1.920E+07 2.882E+07 40.7835 1.00000
  1.778E+13 1.778E+13 5.087E+00 2.378E+05 4.177E+06 1.752E+07 2.193E+07 2.193E+07 2.891E+07 41.0137 1.00000
  1.995E+13 1.995E+13 5.112E+00 2.668E+05 4.686E+06 2.011E+07 2.506E+07 2.506E+07 2.900E+07 41.2440 1.00000
  2.239E+13 2.239E+13 5.136E+00 2.994E+05 5.258E+06 2.308E+07 2.864E+07 2.864E+07 2.910E+07 41.4743 1.00000
  2.512E+13 2.512E+13 5.161E+00 3.359E+05 5.899E+06 2.650E+07 3.273E+07 3.273E+07 2.918E+07 41.7045 1.00000
  2.818E+13 2.818E+13 5.186E+00 3.769E+05 6.618E+06 3.042E+07 3.742E+07 3.742E+07 2.927E+07 41.9348 1.00000
  3.162E+13 3.162E+13 5.211E+00 4.229E+05 7.425E+06 3.493E+07 4.277E+07 4.277E+07 2.936E+07 42.1650 1.00000
  3.548E+13 3.548E+13 5.236E+00 4.745E+05 8.331E+06 4.010E+07 4.891E+07 4.891E+07 2.944E+07 42.3953 1.00000
  3.981E+13 3.981E+13 5.261E+00 5.324E+05 9.347E+06 4.604E+07 5.592E+07 5.592E+07 2.953E+07 42.6256 1.00000
  4.467E+13 4.467E+13 5.286E+00 5.973E+05 1.049E+07 5.287E+07 6.395E+07 6.395E+07 2.961E+07 42.8558 1.00000
  5.012E+13 5.012E+13 5.312E+00 6.702E+05 1.177E+07 6.071E+07 7.314E+07 7.314E+07 2.969E+07 43.0861 1.00000
  5.623E+13 5.623E+13 5.337E+00 7.520E+05 1.320E+07 6.971E+07 8.366E+07 8.366E+07 2.977E+07 43.3163 1.00000
  6.310E+13 6.310E+13 5.363E+00 8.437E+05 1.481E+07 8.006E+07 9.571E+07 9.571E+07 2.984E+07 43.5466 1.00000
  7.079E+13 7.079E+13 5.389E+00 9.467E+05 1.662E+07 9.194E+07 1.095E+08 1.095E+08 2.992E+07 43.7768 1.00000
  7.943E+13 7.943E+13 5.415E+00 1.062E+06 1.864E+07 1.056E+08 1.253E+08 1.253E+08 2.999E+07 44.0071 1.00000
  8.913E+13 8.913E+13 5.441E+00 1.192E+06 2.092E+07 1.213E+08 1.434E+08 1.434E+08 3.006E+07 44.2374 1.00000
