 Incident particle is a Tau with M = 1776.82000 MeV
 Index = 0: Californium
      Absorber with <Z/A> = 0.39031
 Sternheimer coef:  a     k=m_s   x_0    x_1    I[eV]   Cbar  delta0
                 0.2580  3.0000  0.0623  2.5000  966.0  4.0236 0.00

 *** Table generated with PUMAS v1.00 ***

      T         p     Ionization  brems     pair     photonuc  Radloss    dE/dx   CSDA Range  delta   beta
    [MeV]    [MeV/c]  -----------------------[MeV cm^2/g]------------------------  [g/cm^2]
  1.000E+05 1.018E+05 1.443E+00 1.210E-03 2.185E-02 7.497E-03 3.056E-02 1.474E+00 3.393E+04  4.1774 0.99985
  1.122E+05 1.140E+05 1.458E+00 1.404E-03 2.615E-02 8.410E-03 3.596E-02 1.494E+00 4.215E+04  4.3843 0.99988
  1.259E+05 1.277E+05 1.473E+00 1.628E-03 3.120E-02 9.385E-03 4.222E-02 1.516E+00 5.125E+04  4.5942 0.99990
  1.413E+05 1.430E+05 1.488E+00 1.887E-03 3.714E-02 1.048E-02 4.950E-02 1.538E+00 6.131E+04  4.8069 0.99992
  1.585E+05 1.603E+05 1.503E+00 2.185E-03 4.408E-02 1.169E-02 5.795E-02 1.561E+00 7.243E+04  5.0220 0.99994
  1.778E+05 1.796E+05 1.518E+00 2.529E-03 5.220E-02 1.303E-02 6.776E-02 1.586E+00 8.472E+04  5.2395 0.99995
  1.995E+05 2.013E+05 1.533E+00 2.925E-03 6.166E-02 1.456E-02 7.914E-02 1.612E+00 9.829E+04  5.4592 0.99996
  2.239E+05 2.256E+05 1.547E+00 3.381E-03 7.267E-02 1.621E-02 9.227E-02 1.640E+00 1.133E+05  5.6807 0.99997
  2.512E+05 2.530E+05 1.562E+00 3.907E-03 8.547E-02 1.805E-02 1.074E-01 1.669E+00 1.298E+05  5.9039 0.99998
  2.818E+05 2.836E+05 1.576E+00 4.511E-03 1.003E-01 2.012E-02 1.249E-01 1.701E+00 1.480E+05  6.1287 0.99998
  3.162E+05 3.180E+05 1.591E+00 5.206E-03 1.175E-01 2.244E-02 1.451E-01 1.736E+00 1.680E+05  6.3547 0.99998
  3.548E+05 3.566E+05 1.605E+00 6.004E-03 1.373E-01 2.503E-02 1.683E-01 1.773E+00 1.900E+05  6.5819 0.99999
  3.981E+05 3.999E+05 1.619E+00 6.920E-03 1.602E-01 2.790E-02 1.950E-01 1.814E+00 2.141E+05  6.8099 0.99999
  4.467E+05 4.485E+05 1.633E+00 7.973E-03 1.865E-01 3.111E-02 2.256E-01 1.859E+00 2.406E+05  7.0386 0.99999
  5.012E+05 5.030E+05 1.648E+00 9.180E-03 2.168E-01 3.471E-02 2.607E-01 1.908E+00 2.695E+05  7.2678 0.99999
  5.623E+05 5.641E+05 1.662E+00 1.056E-02 2.516E-01 3.858E-02 3.007E-01 1.962E+00 3.011E+05  7.4973 1.00000
  6.310E+05 6.327E+05 1.676E+00 1.215E-02 2.915E-01 4.292E-02 3.466E-01 2.022E+00 3.356E+05  7.7268 1.00000
  7.079E+05 7.097E+05 1.690E+00 1.397E-02 3.372E-01 4.780E-02 3.990E-01 2.089E+00 3.730E+05  7.9565 1.00000
  7.943E+05 7.961E+05 1.704E+00 1.605E-02 3.895E-01 5.330E-02 4.589E-01 2.163E+00 4.137E+05  8.1862 1.00000
  8.913E+05 8.930E+05 1.718E+00 1.843E-02 4.493E-01 5.950E-02 5.272E-01 2.245E+00 4.577E+05  8.4160 1.00000
  1.000E+06 1.002E+06 1.731E+00 2.116E-02 5.175E-01 6.648E-02 6.051E-01 2.337E+00 5.052E+05  8.6458 1.00000
  1.122E+06 1.124E+06 1.745E+00 2.428E-02 5.952E-01 7.437E-02 6.939E-01 2.439E+00 5.563E+05  8.8757 1.00000
  1.259E+06 1.261E+06 1.759E+00 2.785E-02 6.838E-01 8.328E-02 7.949E-01 2.554E+00 6.112E+05  9.1056 1.00000
  1.413E+06 1.414E+06 1.773E+00 3.192E-02 7.846E-01 9.336E-02 9.098E-01 2.682E+00 6.699E+05  9.3355 1.00000
  1.585E+06 1.587E+06 1.786E+00 3.657E-02 8.991E-01 1.048E-01 1.040E+00 2.827E+00 7.325E+05  9.5655 1.00000
  1.778E+06 1.780E+06 1.800E+00 4.189E-02 1.029E+00 1.177E-01 1.189E+00 2.988E+00 7.991E+05  9.7955 1.00000
  1.995E+06 1.997E+06 1.813E+00 4.796E-02 1.177E+00 1.323E-01 1.357E+00 3.170E+00 8.696E+05 10.0256 1.00000
  2.239E+06 2.240E+06 1.826E+00 5.488E-02 1.344E+00 1.489E-01 1.548E+00 3.374E+00 9.441E+05 10.2557 1.00000
  2.512E+06 2.514E+06 1.839E+00 6.278E-02 1.534E+00 1.678E-01 1.764E+00 3.604E+00 1.022E+06 10.4857 1.00000
  2.818E+06 2.820E+06 1.852E+00 7.178E-02 1.748E+00 1.891E-01 2.009E+00 3.862E+00 1.105E+06 10.7158 1.00000
  3.162E+06 3.164E+06 1.865E+00 8.204E-02 1.991E+00 2.134E-01 2.287E+00 4.152E+00 1.191E+06 10.9460 1.00000
  3.548E+06 3.550E+06 1.878E+00 9.373E-02 2.266E+00 2.410E-01 2.601E+00 4.479E+00 1.280E+06 11.1761 1.00000
  3.981E+06 3.983E+06 1.891E+00 1.070E-01 2.576E+00 2.724E-01 2.956E+00 4.846E+00 1.373E+06 11.4063 1.00000
  4.467E+06 4.469E+06 1.903E+00 1.222E-01 2.927E+00 3.081E-01 3.357E+00 5.260E+00 1.469E+06 11.6364 1.00000
  5.012E+06 5.014E+06 1.915E+00 1.395E-01 3.322E+00 3.487E-01 3.810E+00 5.726E+00 1.569E+06 11.8666 1.00000
  5.623E+06 5.625E+06 1.928E+00 1.591E-01 3.769E+00 3.949E-01 4.323E+00 6.250E+00 1.671E+06 12.0968 1.00000
  6.310E+06 6.311E+06 1.940E+00 1.814E-01 4.272E+00 4.475E-01 4.901E+00 6.841E+00 1.776E+06 12.3270 1.00000
  7.079E+06 7.081E+06 1.952E+00 2.068E-01 4.839E+00 5.074E-01 5.553E+00 7.505E+00 1.884E+06 12.5572 1.00000
  7.943E+06 7.945E+06 1.964E+00 2.357E-01 5.478E+00 5.756E-01 6.290E+00 8.253E+00 1.994E+06 12.7874 1.00000
  8.913E+06 8.914E+06 1.976E+00 2.685E-01 6.198E+00 6.533E-01 7.120E+00 9.096E+00 2.106E+06 13.0176 1.00000
  1.000E+07 1.000E+07 1.987E+00 3.057E-01 7.009E+00 7.418E-01 8.057E+00 1.004E+01 2.220E+06 13.2478 1.00000
  1.122E+07 1.122E+07 1.999E+00 3.480E-01 7.922E+00 8.427E-01 9.113E+00 1.111E+01 2.335E+06 13.4780 1.00000
  1.259E+07 1.259E+07 2.010E+00 3.960E-01 8.949E+00 9.577E-01 1.030E+01 1.231E+01 2.452E+06 13.7082 1.00000
  1.413E+07 1.413E+07 2.022E+00 4.505E-01 1.010E+01 1.089E+00 1.164E+01 1.367E+01 2.571E+06 13.9385 1.00000
  1.585E+07 1.585E+07 2.033E+00 5.123E-01 1.140E+01 1.238E+00 1.315E+01 1.519E+01 2.691E+06 14.1687 1.00000
  1.778E+07 1.778E+07 2.044E+00 5.823E-01 1.287E+01 1.409E+00 1.486E+01 1.690E+01 2.812E+06 14.3989 1.00000
  1.995E+07 1.995E+07 2.055E+00 6.617E-01 1.451E+01 1.603E+00 1.677E+01 1.883E+01 2.933E+06 14.6292 1.00000
  2.239E+07 2.239E+07 2.066E+00 7.517E-01 1.636E+01 1.825E+00 1.893E+01 2.100E+01 3.056E+06 14.8594 1.00000
  2.512E+07 2.512E+07 2.077E+00 8.536E-01 1.843E+01 2.078E+00 2.136E+01 2.344E+01 3.179E+06 15.0896 1.00000
  2.818E+07 2.819E+07 2.088E+00 9.690E-01 2.076E+01 2.367E+00 2.410E+01 2.619E+01 3.303E+06 15.3199 1.00000
  3.162E+07 3.162E+07 2.099E+00 1.100E+00 2.339E+01 2.696E+00 2.718E+01 2.928E+01 3.428E+06 15.5501 1.00000
  3.548E+07 3.548E+07 2.110E+00 1.248E+00 2.633E+01 3.072E+00 3.065E+01 3.276E+01 3.552E+06 15.7804 1.00000
  3.981E+07 3.981E+07 2.121E+00 1.415E+00 2.964E+01 3.501E+00 3.455E+01 3.668E+01 3.678E+06 16.0106 1.00000
  4.467E+07 4.467E+07 2.132E+00 1.604E+00 3.335E+01 3.991E+00 3.895E+01 4.108E+01 3.803E+06 16.2409 1.00000
  5.012E+07 5.012E+07 2.143E+00 1.818E+00 3.753E+01 4.549E+00 4.389E+01 4.604E+01 3.928E+06 16.4711 1.00000
  5.623E+07 5.624E+07 2.154E+00 2.060E+00 4.221E+01 5.187E+00 4.946E+01 5.161E+01 4.054E+06 16.7014 1.00000
  6.310E+07 6.310E+07 2.164E+00 2.333E+00 4.747E+01 5.916E+00 5.572E+01 5.789E+01 4.180E+06 16.9316 1.00000
  7.079E+07 7.080E+07 2.175E+00 2.641E+00 5.338E+01 6.747E+00 6.277E+01 6.494E+01 4.306E+06 17.1619 1.00000
  7.943E+07 7.943E+07 2.186E+00 2.989E+00 6.001E+01 7.697E+00 7.070E+01 7.289E+01 4.431E+06 17.3921 1.00000
  8.913E+07 8.913E+07 2.197E+00 3.383E+00 6.746E+01 8.781E+00 7.962E+01 8.182E+01 4.557E+06 17.6224 1.00000
  1.000E+08 1.000E+08 2.208E+00 3.826E+00 7.582E+01 1.002E+01 8.966E+01 9.187E+01 4.683E+06 17.8526 1.00000
  1.122E+08 1.122E+08 2.219E+00 4.327E+00 8.520E+01 1.143E+01 1.010E+02 1.032E+02 4.808E+06 18.0829 1.00000
  1.259E+08 1.259E+08 2.230E+00 4.891E+00 9.573E+01 1.305E+01 1.137E+02 1.159E+02 4.934E+06 18.3131 1.00000
  1.413E+08 1.413E+08 2.241E+00 5.528E+00 1.076E+02 1.489E+01 1.280E+02 1.302E+02 5.059E+06 18.5434 1.00000
  1.585E+08 1.585E+08 2.252E+00 6.246E+00 1.208E+02 1.700E+01 1.441E+02 1.463E+02 5.184E+06 18.7737 1.00000
  1.778E+08 1.778E+08 2.263E+00 7.055E+00 1.357E+02 1.940E+01 1.622E+02 1.644E+02 5.309E+06 19.0039 1.00000
  1.995E+08 1.995E+08 2.274E+00 7.966E+00 1.524E+02 2.215E+01 1.826E+02 1.848E+02 5.434E+06 19.2342 1.00000
  2.239E+08 2.239E+08 2.285E+00 8.992E+00 1.712E+02 2.529E+01 2.055E+02 2.078E+02 5.558E+06 19.4644 1.00000
  2.512E+08 2.512E+08 2.296E+00 1.015E+01 1.922E+02 2.888E+01 2.313E+02 2.336E+02 5.682E+06 19.6947 1.00000
  2.818E+08 2.818E+08 2.307E+00 1.145E+01 2.159E+02 3.298E+01 2.603E+02 2.626E+02 5.806E+06 19.9249 1.00000
  3.162E+08 3.162E+08 2.319E+00 1.292E+01 2.424E+02 3.766E+01 2.930E+02 2.953E+02 5.930E+06 20.1552 1.00000
  3.548E+08 3.548E+08 2.330E+00 1.456E+01 2.721E+02 4.301E+01 3.297E+02 3.320E+02 6.053E+06 20.3855 1.00000
  3.981E+08 3.981E+08 2.341E+00 1.642E+01 3.055E+02 4.913E+01 3.711E+02 3.734E+02 6.177E+06 20.6157 1.00000
  4.467E+08 4.467E+08 2.353E+00 1.851E+01 3.430E+02 5.612E+01 4.176E+02 4.200E+02 6.299E+06 20.8460 1.00000
  5.012E+08 5.012E+08 2.364E+00 2.086E+01 3.850E+02 6.410E+01 4.700E+02 4.724E+02 6.422E+06 21.0762 1.00000
  5.623E+08 5.623E+08 2.376E+00 2.350E+01 4.322E+02 7.323E+01 5.289E+02 5.313E+02 6.544E+06 21.3065 1.00000
  6.310E+08 6.310E+08 2.387E+00 2.646E+01 4.851E+02 8.366E+01 5.953E+02 5.977E+02 6.666E+06 21.5367 1.00000
  7.079E+08 7.079E+08 2.399E+00 2.980E+01 5.445E+02 9.559E+01 6.699E+02 6.723E+02 6.788E+06 21.7670 1.00000
  7.943E+08 7.943E+08 2.411E+00 3.356E+01 6.112E+02 1.092E+02 7.540E+02 7.564E+02 6.909E+06 21.9973 1.00000
  8.913E+08 8.913E+08 2.423E+00 3.777E+01 6.860E+02 1.248E+02 8.486E+02 8.510E+02 7.030E+06 22.2275 1.00000
  1.000E+09 1.000E+09 2.434E+00 4.251E+01 7.699E+02 1.426E+02 9.550E+02 9.575E+02 7.151E+06 22.4578 1.00000
  1.122E+09 1.122E+09 2.446E+00 4.784E+01 8.641E+02 1.630E+02 1.075E+03 1.077E+03 7.271E+06 22.6880 1.00000
  1.259E+09 1.259E+09 2.458E+00 5.382E+01 9.697E+02 1.863E+02 1.210E+03 1.212E+03 7.391E+06 22.9183 1.00000
  1.413E+09 1.413E+09 2.470E+00 6.054E+01 1.088E+03 2.129E+02 1.362E+03 1.364E+03 7.511E+06 23.1485 1.00000
  1.585E+09 1.585E+09 2.482E+00 6.810E+01 1.221E+03 2.433E+02 1.533E+03 1.535E+03 7.630E+06 23.3788 1.00000
  1.778E+09 1.778E+09 2.494E+00 7.658E+01 1.371E+03 2.782E+02 1.725E+03 1.728E+03 7.749E+06 23.6091 1.00000
  1.995E+09 1.995E+09 2.507E+00 8.610E+01 1.538E+03 3.180E+02 1.942E+03 1.945E+03 7.868E+06 23.8393 1.00000
  2.239E+09 2.239E+09 2.519E+00 9.680E+01 1.726E+03 3.635E+02 2.186E+03 2.189E+03 7.986E+06 24.0696 1.00000
  2.512E+09 2.512E+09 2.531E+00 1.088E+02 1.937E+03 4.156E+02 2.461E+03 2.464E+03 8.104E+06 24.2998 1.00000
  2.818E+09 2.818E+09 2.544E+00 1.223E+02 2.173E+03 4.751E+02 2.771E+03 2.773E+03 8.221E+06 24.5301 1.00000
  3.162E+09 3.162E+09 2.556E+00 1.374E+02 2.439E+03 5.433E+02 3.120E+03 3.122E+03 8.338E+06 24.7604 1.00000
  3.548E+09 3.548E+09 2.569E+00 1.544E+02 2.737E+03 6.212E+02 3.512E+03 3.515E+03 8.455E+06 24.9906 1.00000
  3.981E+09 3.981E+09 2.581E+00 1.735E+02 3.071E+03 7.103E+02 3.955E+03 3.957E+03 8.571E+06 25.2209 1.00000
  4.467E+09 4.467E+09 2.594E+00 1.950E+02 3.446E+03 8.123E+02 4.453E+03 4.456E+03 8.687E+06 25.4511 1.00000
  5.012E+09 5.012E+09 2.607E+00 2.190E+02 3.866E+03 9.290E+02 5.014E+03 5.017E+03 8.803E+06 25.6814 1.00000
  5.623E+09 5.623E+09 2.620E+00 2.460E+02 4.339E+03 1.062E+03 5.647E+03 5.650E+03 8.918E+06 25.9116 1.00000
  6.310E+09 6.310E+09 2.633E+00 2.763E+02 4.868E+03 1.215E+03 6.360E+03 6.362E+03 9.032E+06 26.1419 1.00000
  7.079E+09 7.079E+09 2.646E+00 3.103E+02 5.462E+03 1.390E+03 7.163E+03 7.165E+03 9.147E+06 26.3722 1.00000
  7.943E+09 7.943E+09 2.659E+00 3.485E+02 6.129E+03 1.590E+03 8.067E+03 8.070E+03 9.260E+06 26.6024 1.00000
  8.913E+09 8.913E+09 2.672E+00 3.914E+02 6.877E+03 1.819E+03 9.087E+03 9.090E+03 9.374E+06 26.8327 1.00000
  1.000E+10 1.000E+10 2.685E+00 4.395E+02 7.716E+03 2.081E+03 1.024E+04 1.024E+04 9.487E+06 27.0629 1.00000
  1.122E+10 1.122E+10 2.698E+00 4.934E+02 8.658E+03 2.380E+03 1.153E+04 1.153E+04 9.599E+06 27.2932 1.00000
  1.259E+10 1.259E+10 2.712E+00 5.540E+02 9.715E+03 2.723E+03 1.299E+04 1.299E+04 9.711E+06 27.5235 1.00000
  1.413E+10 1.413E+10 2.725E+00 6.220E+02 1.090E+04 3.116E+03 1.464E+04 1.464E+04 9.823E+06 27.7537 1.00000
  1.585E+10 1.585E+10 2.739E+00 6.982E+02 1.223E+04 3.565E+03 1.649E+04 1.650E+04 9.934E+06 27.9840 1.00000
  1.778E+10 1.778E+10 2.752E+00 7.838E+02 1.372E+04 4.080E+03 1.859E+04 1.859E+04 1.004E+07 28.2142 1.00000
  1.995E+10 1.995E+10 2.766E+00 8.799E+02 1.540E+04 4.669E+03 2.095E+04 2.095E+04 1.015E+07 28.4445 1.00000
  2.239E+10 2.239E+10 2.780E+00 9.877E+02 1.728E+04 5.343E+03 2.361E+04 2.361E+04 1.026E+07 28.6748 1.00000
  2.512E+10 2.512E+10 2.794E+00 1.109E+03 1.938E+04 6.115E+03 2.661E+04 2.661E+04 1.037E+07 28.9050 1.00000
  2.818E+10 2.818E+10 2.807E+00 1.244E+03 2.175E+04 6.998E+03 2.999E+04 2.999E+04 1.048E+07 29.1353 1.00000
  3.162E+10 3.162E+10 2.821E+00 1.397E+03 2.440E+04 8.010E+03 3.381E+04 3.381E+04 1.059E+07 29.3655 1.00000
  3.548E+10 3.548E+10 2.835E+00 1.568E+03 2.738E+04 9.169E+03 3.812E+04 3.812E+04 1.070E+07 29.5958 1.00000
  3.981E+10 3.981E+10 2.850E+00 1.759E+03 3.072E+04 1.050E+04 4.298E+04 4.298E+04 1.081E+07 29.8260 1.00000
  4.467E+10 4.467E+10 2.864E+00 1.975E+03 3.447E+04 1.202E+04 4.846E+04 4.846E+04 1.091E+07 30.0563 1.00000
  5.012E+10 5.012E+10 2.878E+00 2.216E+03 3.867E+04 1.376E+04 5.465E+04 5.465E+04 1.102E+07 30.2866 1.00000
  5.623E+10 5.623E+10 2.893E+00 2.487E+03 4.339E+04 1.575E+04 6.163E+04 6.163E+04 1.112E+07 30.5168 1.00000
  6.310E+10 6.310E+10 2.907E+00 2.791E+03 4.869E+04 1.803E+04 6.951E+04 6.951E+04 1.123E+07 30.7471 1.00000
  7.079E+10 7.079E+10 2.922E+00 3.132E+03 5.463E+04 2.065E+04 7.840E+04 7.841E+04 1.133E+07 30.9773 1.00000
  7.943E+10 7.943E+10 2.936E+00 3.515E+03 6.129E+04 2.364E+04 8.845E+04 8.845E+04 1.144E+07 31.2076 1.00000
  8.913E+10 8.913E+10 2.951E+00 3.944E+03 6.877E+04 2.707E+04 9.978E+04 9.979E+04 1.154E+07 31.4379 1.00000
  1.000E+11 1.000E+11 2.966E+00 4.426E+03 7.716E+04 3.100E+04 1.126E+05 1.126E+05 1.164E+07 31.6681 1.00000
  1.122E+11 1.122E+11 2.981E+00 4.967E+03 8.657E+04 3.550E+04 1.270E+05 1.270E+05 1.175E+07 31.8984 1.00000
  1.259E+11 1.259E+11 2.995E+00 5.574E+03 9.713E+04 4.066E+04 1.434E+05 1.434E+05 1.185E+07 32.1286 1.00000
  1.413E+11 1.413E+11 3.011E+00 6.254E+03 1.090E+05 4.657E+04 1.618E+05 1.618E+05 1.195E+07 32.3589 1.00000
  1.585E+11 1.585E+11 3.026E+00 7.018E+03 1.223E+05 5.335E+04 1.826E+05 1.826E+05 1.205E+07 32.5891 1.00000
  1.778E+11 1.778E+11 3.041E+00 7.875E+03 1.372E+05 6.111E+04 2.062E+05 2.062E+05 1.215E+07 32.8194 1.00000
  1.995E+11 1.995E+11 3.056E+00 8.837E+03 1.539E+05 7.000E+04 2.328E+05 2.328E+05 1.225E+07 33.0497 1.00000
  2.239E+11 2.239E+11 3.072E+00 9.915E+03 1.727E+05 8.019E+04 2.628E+05 2.628E+05 1.235E+07 33.2799 1.00000
  2.512E+11 2.512E+11 3.087E+00 1.113E+04 1.938E+05 9.187E+04 2.968E+05 2.968E+05 1.244E+07 33.5102 1.00000
  2.818E+11 2.818E+11 3.103E+00 1.248E+04 2.174E+05 1.053E+05 3.352E+05 3.352E+05 1.254E+07 33.7404 1.00000
  3.162E+11 3.162E+11 3.118E+00 1.401E+04 2.439E+05 1.206E+05 3.785E+05 3.785E+05 1.264E+07 33.9707 1.00000
  3.548E+11 3.548E+11 3.134E+00 1.572E+04 2.737E+05 1.382E+05 4.276E+05 4.276E+05 1.273E+07 34.2010 1.00000
  3.981E+11 3.981E+11 3.150E+00 1.764E+04 3.071E+05 1.584E+05 4.831E+05 4.831E+05 1.283E+07 34.4312 1.00000
  4.467E+11 4.467E+11 3.166E+00 1.979E+04 3.445E+05 1.815E+05 5.458E+05 5.458E+05 1.292E+07 34.6615 1.00000
  5.012E+11 5.012E+11 3.182E+00 2.220E+04 3.865E+05 2.080E+05 6.167E+05 6.167E+05 1.302E+07 34.8917 1.00000
  5.623E+11 5.623E+11 3.198E+00 2.492E+04 4.337E+05 2.384E+05 6.970E+05 6.970E+05 1.311E+07 35.1220 1.00000
  6.310E+11 6.310E+11 3.214E+00 2.796E+04 4.866E+05 2.732E+05 7.877E+05 7.877E+05 1.320E+07 35.3522 1.00000
  7.079E+11 7.079E+11 3.230E+00 3.137E+04 5.460E+05 3.131E+05 8.904E+05 8.904E+05 1.330E+07 35.5825 1.00000
  7.943E+11 7.943E+11 3.247E+00 3.520E+04 6.126E+05 3.589E+05 1.007E+06 1.007E+06 1.339E+07 35.8128 1.00000
  8.913E+11 8.913E+11 3.263E+00 3.949E+04 6.873E+05 4.114E+05 1.138E+06 1.138E+06 1.348E+07 36.0430 1.00000
  1.000E+12 1.000E+12 3.280E+00 4.431E+04 7.711E+05 4.716E+05 1.287E+06 1.287E+06 1.357E+07 36.2733 1.00000
  1.122E+12 1.122E+12 3.296E+00 4.972E+04 8.652E+05 5.407E+05 1.456E+06 1.456E+06 1.366E+07 36.5035 1.00000
  1.259E+12 1.259E+12 3.313E+00 5.579E+04 9.707E+05 6.199E+05 1.646E+06 1.646E+06 1.375E+07 36.7338 1.00000
  1.413E+12 1.413E+12 3.330E+00 6.259E+04 1.089E+06 7.108E+05 1.862E+06 1.862E+06 1.383E+07 36.9641 1.00000
  1.585E+12 1.585E+12 3.347E+00 7.023E+04 1.222E+06 8.150E+05 2.107E+06 2.107E+06 1.392E+07 37.1943 1.00000
  1.778E+12 1.778E+12 3.364E+00 7.880E+04 1.371E+06 9.345E+05 2.384E+06 2.384E+06 1.401E+07 37.4246 1.00000
  1.995E+12 1.995E+12 3.381E+00 8.842E+04 1.538E+06 1.072E+06 2.698E+06 2.698E+06 1.409E+07 37.6548 1.00000
  2.239E+12 2.239E+12 3.398E+00 9.921E+04 1.726E+06 1.229E+06 3.054E+06 3.054E+06 1.418E+07 37.8851 1.00000
  2.512E+12 2.512E+12 3.415E+00 1.113E+05 1.936E+06 1.409E+06 3.457E+06 3.457E+06 1.426E+07 38.1153 1.00000
  2.818E+12 2.818E+12 3.433E+00 1.249E+05 2.172E+06 1.616E+06 3.914E+06 3.914E+06 1.435E+07 38.3456 1.00000
  3.162E+12 3.162E+12 3.450E+00 1.401E+05 2.437E+06 1.854E+06 4.431E+06 4.431E+06 1.443E+07 38.5759 1.00000
  3.548E+12 3.548E+12 3.468E+00 1.572E+05 2.735E+06 2.126E+06 5.018E+06 5.018E+06 1.451E+07 38.8061 1.00000
  3.981E+12 3.981E+12 3.485E+00 1.764E+05 3.068E+06 2.439E+06 5.684E+06 5.684E+06 1.459E+07 39.0364 1.00000
  4.467E+12 4.467E+12 3.503E+00 1.980E+05 3.443E+06 2.798E+06 6.438E+06 6.438E+06 1.467E+07 39.2666 1.00000
  5.012E+12 5.012E+12 3.521E+00 2.221E+05 3.862E+06 3.210E+06 7.294E+06 7.294E+06 1.475E+07 39.4969 1.00000
  5.623E+12 5.623E+12 3.539E+00 2.492E+05 4.333E+06 3.682E+06 8.265E+06 8.265E+06 1.483E+07 39.7272 1.00000
  6.310E+12 6.310E+12 3.557E+00 2.796E+05 4.862E+06 4.225E+06 9.366E+06 9.366E+06 1.491E+07 39.9574 1.00000
  7.079E+12 7.079E+12 3.575E+00 3.137E+05 5.455E+06 4.847E+06 1.062E+07 1.062E+07 1.499E+07 40.1877 1.00000
  7.943E+12 7.943E+12 3.593E+00 3.520E+05 6.120E+06 5.562E+06 1.203E+07 1.203E+07 1.506E+07 40.4179 1.00000
  8.913E+12 8.913E+12 3.612E+00 3.950E+05 6.867E+06 6.382E+06 1.364E+07 1.364E+07 1.514E+07 40.6482 1.00000
  1.000E+13 1.000E+13 3.630E+00 4.432E+05 7.704E+06 7.323E+06 1.547E+07 1.547E+07 1.521E+07 40.8785 1.00000
  1.122E+13 1.122E+13 3.649E+00 4.972E+05 8.644E+06 8.404E+06 1.755E+07 1.755E+07 1.529E+07 41.1087 1.00000
  1.259E+13 1.259E+13 3.667E+00 5.579E+05 9.698E+06 9.645E+06 1.990E+07 1.990E+07 1.536E+07 41.3390 1.00000
  1.413E+13 1.413E+13 3.686E+00 6.260E+05 1.088E+07 1.107E+07 2.258E+07 2.258E+07 1.544E+07 41.5692 1.00000
  1.585E+13 1.585E+13 3.705E+00 7.024E+05 1.221E+07 1.270E+07 2.562E+07 2.562E+07 1.551E+07 41.7995 1.00000
  1.778E+13 1.778E+13 3.724E+00 7.881E+05 1.370E+07 1.458E+07 2.907E+07 2.907E+07 1.558E+07 42.0297 1.00000
  1.995E+13 1.995E+13 3.743E+00 8.842E+05 1.537E+07 1.674E+07 3.299E+07 3.299E+07 1.565E+07 42.2600 1.00000
  2.239E+13 2.239E+13 3.762E+00 9.921E+05 1.724E+07 1.921E+07 3.745E+07 3.745E+07 1.572E+07 42.4903 1.00000
  2.512E+13 2.512E+13 3.781E+00 1.113E+06 1.934E+07 2.206E+07 4.251E+07 4.251E+07 1.579E+07 42.7205 1.00000
  2.818E+13 2.818E+13 3.801E+00 1.249E+06 2.170E+07 2.532E+07 4.827E+07 4.827E+07 1.585E+07 42.9508 1.00000
  3.162E+13 3.162E+13 3.820E+00 1.401E+06 2.435E+07 2.907E+07 5.482E+07 5.482E+07 1.592E+07 43.1810 1.00000
  3.548E+13 3.548E+13 3.840E+00 1.572E+06 2.732E+07 3.338E+07 6.227E+07 6.227E+07 1.599E+07 43.4113 1.00000
  3.981E+13 3.981E+13 3.860E+00 1.764E+06 3.065E+07 3.832E+07 7.074E+07 7.074E+07 1.605E+07 43.6416 1.00000
  4.467E+13 4.467E+13 3.879E+00 1.980E+06 3.439E+07 4.400E+07 8.037E+07 8.037E+07 1.612E+07 43.8718 1.00000
  5.012E+13 5.012E+13 3.899E+00 2.221E+06 3.858E+07 5.053E+07 9.134E+07 9.134E+07 1.618E+07 44.1021 1.00000
  5.623E+13 5.623E+13 3.919E+00 2.492E+06 4.329E+07 5.803E+07 1.038E+08 1.038E+08 1.624E+07 44.3323 1.00000
  6.310E+13 6.310E+13 3.939E+00 2.796E+06 4.857E+07 6.664E+07 1.180E+08 1.180E+08 1.631E+07 44.5626 1.00000
  7.079E+13 7.079E+13 3.960E+00 3.137E+06 5.449E+07 7.653E+07 1.342E+08 1.342E+08 1.637E+07 44.7928 1.00000
  7.943E+13 7.943E+13 3.980E+00 3.520E+06 6.114E+07 8.789E+07 1.526E+08 1.526E+08 1.643E+07 45.0231 1.00000
  8.913E+13 8.913E+13 4.000E+00 3.950E+06 6.859E+07 1.009E+08 1.735E+08 1.735E+08 1.649E+07 45.2534 1.00000
