 Incident particle is a Tau with M = 1776.82000 MeV
 Index = 0: CarbonCompact
      Absorber with <Z/A> = 0.49955
 Sternheimer coef:  a     k=m_s   x_0    x_1    I[eV]   Cbar  delta0
                 0.2614  2.8697  0.0178  2.3415   78.0  2.8680 0.12

 *** Table generated with PUMAS v1.00 ***

      T         p     Ionization  brems     pair     photonuc  Radloss    dE/dx   CSDA Range  delta   beta
    [MeV]    [MeV/c]  -----------------------[MeV cm^2/g]------------------------  [g/cm^2]
  1.000E+05 1.018E+05 2.148E+00 1.202E-04 1.860E-03 8.360E-03 1.034E-02 2.159E+00 2.316E+04  5.2833 0.99985
  1.122E+05 1.140E+05 2.167E+00 1.389E-04 2.248E-03 9.442E-03 1.183E-02 2.179E+00 2.879E+04  5.4974 0.99988
  1.259E+05 1.277E+05 2.186E+00 1.603E-04 2.706E-03 1.061E-02 1.347E-02 2.199E+00 3.504E+04  5.7138 0.99990
  1.413E+05 1.430E+05 2.205E+00 1.849E-04 3.246E-03 1.192E-02 1.535E-02 2.220E+00 4.199E+04  5.9324 0.99992
  1.585E+05 1.603E+05 2.223E+00 2.133E-04 3.881E-03 1.339E-02 1.748E-02 2.241E+00 4.972E+04  6.1530 0.99994
  1.778E+05 1.796E+05 2.242E+00 2.459E-04 4.626E-03 1.503E-02 1.990E-02 2.262E+00 5.831E+04  6.3753 0.99995
  1.995E+05 2.013E+05 2.260E+00 2.833E-04 5.499E-03 1.691E-02 2.269E-02 2.283E+00 6.786E+04  6.5992 0.99996
  2.239E+05 2.256E+05 2.279E+00 3.264E-04 6.521E-03 1.895E-02 2.580E-02 2.304E+00 7.847E+04  6.8245 0.99997
  2.512E+05 2.530E+05 2.297E+00 3.757E-04 7.712E-03 2.125E-02 2.934E-02 2.326E+00 9.027E+04  7.0510 0.99998
  2.818E+05 2.836E+05 2.315E+00 4.324E-04 9.101E-03 2.384E-02 3.337E-02 2.349E+00 1.034E+05  7.2784 0.99998
  3.162E+05 3.180E+05 2.333E+00 4.974E-04 1.072E-02 2.676E-02 3.797E-02 2.371E+00 1.180E+05  7.5067 0.99998
  3.548E+05 3.566E+05 2.352E+00 5.720E-04 1.259E-02 3.004E-02 4.321E-02 2.395E+00 1.341E+05  7.7355 0.99999
  3.981E+05 3.999E+05 2.370E+00 6.575E-04 1.476E-02 3.371E-02 4.913E-02 2.419E+00 1.521E+05  7.9647 0.99999
  4.467E+05 4.485E+05 2.388E+00 7.554E-04 1.728E-02 3.782E-02 5.586E-02 2.444E+00 1.721E+05  8.1940 0.99999
  5.012E+05 5.030E+05 2.406E+00 8.677E-04 2.019E-02 4.245E-02 6.351E-02 2.470E+00 1.943E+05  8.4234 0.99999
  5.623E+05 5.641E+05 2.424E+00 9.963E-04 2.355E-02 4.746E-02 7.201E-02 2.496E+00 2.189E+05  8.6529 1.00000
  6.310E+05 6.327E+05 2.442E+00 1.144E-03 2.742E-02 5.312E-02 8.168E-02 2.524E+00 2.463E+05  8.8824 1.00000
  7.079E+05 7.097E+05 2.460E+00 1.312E-03 3.188E-02 5.950E-02 9.270E-02 2.553E+00 2.766E+05  9.1121 1.00000
  7.943E+05 7.961E+05 2.478E+00 1.505E-03 3.701E-02 6.671E-02 1.052E-01 2.583E+00 3.102E+05  9.3418 1.00000
  8.913E+05 8.930E+05 2.496E+00 1.726E-03 4.291E-02 7.486E-02 1.195E-01 2.615E+00 3.475E+05  9.5716 1.00000
  1.000E+06 1.002E+06 2.513E+00 1.979E-03 4.967E-02 8.407E-02 1.357E-01 2.649E+00 3.889E+05  9.8014 1.00000
  1.122E+06 1.124E+06 2.531E+00 2.268E-03 5.743E-02 9.451E-02 1.542E-01 2.685E+00 4.346E+05 10.0313 1.00000
  1.259E+06 1.261E+06 2.549E+00 2.598E-03 6.631E-02 1.063E-01 1.752E-01 2.724E+00 4.852E+05 10.2612 1.00000
  1.413E+06 1.414E+06 2.566E+00 2.976E-03 7.646E-02 1.197E-01 1.992E-01 2.765E+00 5.412E+05 10.4911 1.00000
  1.585E+06 1.587E+06 2.583E+00 3.408E-03 8.807E-02 1.349E-01 2.264E-01 2.810E+00 6.030E+05 10.7211 1.00000
  1.778E+06 1.780E+06 2.601E+00 3.902E-03 1.013E-01 1.521E-01 2.574E-01 2.858E+00 6.713E+05 10.9511 1.00000
  1.995E+06 1.997E+06 2.618E+00 4.466E-03 1.164E-01 1.717E-01 2.926E-01 2.910E+00 7.465E+05 11.1812 1.00000
  2.239E+06 2.240E+06 2.635E+00 5.110E-03 1.336E-01 1.939E-01 3.327E-01 2.967E+00 8.294E+05 11.4113 1.00000
  2.512E+06 2.514E+06 2.651E+00 5.846E-03 1.532E-01 2.192E-01 3.783E-01 3.030E+00 9.205E+05 11.6413 1.00000
  2.818E+06 2.820E+06 2.668E+00 6.686E-03 1.755E-01 2.479E-01 4.301E-01 3.098E+00 1.021E+06 11.8714 1.00000
  3.162E+06 3.164E+06 2.684E+00 7.646E-03 2.009E-01 2.805E-01 4.890E-01 3.174E+00 1.130E+06 12.1016 1.00000
  3.548E+06 3.550E+06 2.701E+00 8.740E-03 2.296E-01 3.176E-01 5.560E-01 3.257E+00 1.250E+06 12.3317 1.00000
  3.981E+06 3.983E+06 2.717E+00 9.989E-03 2.623E-01 3.599E-01 6.322E-01 3.349E+00 1.381E+06 12.5619 1.00000
  4.467E+06 4.469E+06 2.733E+00 1.141E-02 2.993E-01 4.079E-01 7.187E-01 3.452E+00 1.524E+06 12.7920 1.00000
  5.012E+06 5.014E+06 2.749E+00 1.304E-02 3.413E-01 4.627E-01 8.170E-01 3.566E+00 1.680E+06 13.0222 1.00000
  5.623E+06 5.625E+06 2.765E+00 1.489E-02 3.888E-01 5.250E-01 9.286E-01 3.693E+00 1.848E+06 13.2524 1.00000
  6.310E+06 6.311E+06 2.780E+00 1.700E-02 4.425E-01 5.959E-01 1.055E+00 3.836E+00 2.030E+06 13.4826 1.00000
  7.079E+06 7.081E+06 2.796E+00 1.941E-02 5.033E-01 6.768E-01 1.200E+00 3.995E+00 2.227E+06 13.7128 1.00000
  7.943E+06 7.945E+06 2.811E+00 2.215E-02 5.721E-01 7.689E-01 1.363E+00 4.174E+00 2.439E+06 13.9430 1.00000
  8.913E+06 8.914E+06 2.826E+00 2.527E-02 6.497E-01 8.739E-01 1.549E+00 4.375E+00 2.666E+06 14.1732 1.00000
  1.000E+07 1.000E+07 2.841E+00 2.882E-02 7.374E-01 9.936E-01 1.760E+00 4.601E+00 2.908E+06 14.4034 1.00000
  1.122E+07 1.122E+07 2.856E+00 3.286E-02 8.364E-01 1.130E+00 1.999E+00 4.855E+00 3.166E+06 14.6336 1.00000
  1.259E+07 1.259E+07 2.870E+00 3.746E-02 9.481E-01 1.286E+00 2.271E+00 5.141E+00 3.441E+06 14.8638 1.00000
  1.413E+07 1.413E+07 2.885E+00 4.270E-02 1.074E+00 1.463E+00 2.580E+00 5.464E+00 3.731E+06 15.0941 1.00000
  1.585E+07 1.585E+07 2.899E+00 4.865E-02 1.216E+00 1.665E+00 2.930E+00 5.829E+00 4.036E+06 15.3243 1.00000
  1.778E+07 1.778E+07 2.914E+00 5.541E-02 1.376E+00 1.896E+00 3.327E+00 6.241E+00 4.357E+06 15.5545 1.00000
  1.995E+07 1.995E+07 2.928E+00 6.311E-02 1.556E+00 2.159E+00 3.778E+00 6.706E+00 4.693E+06 15.7848 1.00000
  2.239E+07 2.239E+07 2.942E+00 7.184E-02 1.759E+00 2.459E+00 4.290E+00 7.232E+00 5.042E+06 16.0150 1.00000
  2.512E+07 2.512E+07 2.956E+00 8.177E-02 1.987E+00 2.802E+00 4.871E+00 7.827E+00 5.406E+06 16.2452 1.00000
  2.818E+07 2.819E+07 2.970E+00 9.304E-02 2.244E+00 3.193E+00 5.530E+00 8.501E+00 5.782E+06 16.4755 1.00000
  3.162E+07 3.162E+07 2.984E+00 1.058E-01 2.534E+00 3.639E+00 6.278E+00 9.263E+00 6.170E+06 16.7057 1.00000
  3.548E+07 3.548E+07 2.998E+00 1.203E-01 2.859E+00 4.148E+00 7.127E+00 1.013E+01 6.568E+06 16.9360 1.00000
  3.981E+07 3.981E+07 3.012E+00 1.368E-01 3.225E+00 4.729E+00 8.091E+00 1.110E+01 6.977E+06 17.1662 1.00000
  4.467E+07 4.467E+07 3.026E+00 1.555E-01 3.636E+00 5.392E+00 9.184E+00 1.221E+01 7.395E+06 17.3965 1.00000
  5.012E+07 5.012E+07 3.040E+00 1.767E-01 4.099E+00 6.149E+00 1.042E+01 1.346E+01 7.820E+06 17.6267 1.00000
  5.623E+07 5.624E+07 3.054E+00 2.007E-01 4.619E+00 7.014E+00 1.183E+01 1.489E+01 8.253E+06 17.8570 1.00000
  6.310E+07 6.310E+07 3.068E+00 2.279E-01 5.203E+00 8.000E+00 1.343E+01 1.650E+01 8.691E+06 18.0872 1.00000
  7.079E+07 7.080E+07 3.081E+00 2.587E-01 5.859E+00 9.127E+00 1.524E+01 1.833E+01 9.135E+06 18.3175 1.00000
  7.943E+07 7.943E+07 3.095E+00 2.936E-01 6.597E+00 1.041E+01 1.730E+01 2.040E+01 9.582E+06 18.5477 1.00000
  8.913E+07 8.913E+07 3.109E+00 3.331E-01 7.425E+00 1.188E+01 1.964E+01 2.275E+01 1.003E+07 18.7780 1.00000
  1.000E+08 1.000E+08 3.123E+00 3.779E-01 8.355E+00 1.356E+01 2.229E+01 2.542E+01 1.049E+07 19.0082 1.00000
  1.122E+08 1.122E+08 3.137E+00 4.285E-01 9.400E+00 1.548E+01 2.530E+01 2.844E+01 1.094E+07 19.2385 1.00000
  1.259E+08 1.259E+08 3.151E+00 4.857E-01 1.057E+01 1.766E+01 2.872E+01 3.187E+01 1.140E+07 19.4687 1.00000
  1.413E+08 1.413E+08 3.165E+00 5.504E-01 1.189E+01 2.016E+01 3.260E+01 3.577E+01 1.185E+07 19.6990 1.00000
  1.585E+08 1.585E+08 3.179E+00 6.236E-01 1.337E+01 2.302E+01 3.701E+01 4.019E+01 1.231E+07 19.9293 1.00000
  1.778E+08 1.778E+08 3.193E+00 7.063E-01 1.503E+01 2.628E+01 4.201E+01 4.521E+01 1.276E+07 20.1595 1.00000
  1.995E+08 1.995E+08 3.208E+00 7.998E-01 1.690E+01 3.000E+01 4.770E+01 5.090E+01 1.321E+07 20.3898 1.00000
  2.239E+08 2.239E+08 3.222E+00 9.053E-01 1.899E+01 3.426E+01 5.415E+01 5.737E+01 1.367E+07 20.6200 1.00000
  2.512E+08 2.512E+08 3.236E+00 1.025E+00 2.134E+01 3.912E+01 6.148E+01 6.472E+01 1.411E+07 20.8503 1.00000
  2.818E+08 2.818E+08 3.251E+00 1.159E+00 2.398E+01 4.467E+01 6.981E+01 7.306E+01 1.456E+07 21.0805 1.00000
  3.162E+08 3.162E+08 3.265E+00 1.311E+00 2.694E+01 5.102E+01 7.927E+01 8.253E+01 1.501E+07 21.3108 1.00000
  3.548E+08 3.548E+08 3.279E+00 1.482E+00 3.026E+01 5.827E+01 9.001E+01 9.329E+01 1.545E+07 21.5411 1.00000
  3.981E+08 3.981E+08 3.294E+00 1.676E+00 3.399E+01 6.656E+01 1.022E+02 1.055E+02 1.588E+07 21.7713 1.00000
  4.467E+08 4.467E+08 3.309E+00 1.894E+00 3.817E+01 7.603E+01 1.161E+02 1.194E+02 1.632E+07 22.0016 1.00000
  5.012E+08 5.012E+08 3.323E+00 2.139E+00 4.287E+01 8.685E+01 1.319E+02 1.352E+02 1.675E+07 22.2318 1.00000
  5.623E+08 5.623E+08 3.338E+00 2.417E+00 4.814E+01 9.922E+01 1.498E+02 1.531E+02 1.717E+07 22.4621 1.00000
  6.310E+08 6.310E+08 3.353E+00 2.729E+00 5.405E+01 1.134E+02 1.701E+02 1.735E+02 1.759E+07 22.6923 1.00000
  7.079E+08 7.079E+08 3.368E+00 3.081E+00 6.069E+01 1.295E+02 1.933E+02 1.967E+02 1.801E+07 22.9226 1.00000
  7.943E+08 7.943E+08 3.383E+00 3.477E+00 6.814E+01 1.480E+02 2.196E+02 2.230E+02 1.842E+07 23.1529 1.00000
  8.913E+08 8.913E+08 3.398E+00 3.924E+00 7.650E+01 1.691E+02 2.495E+02 2.529E+02 1.883E+07 23.3831 1.00000
  1.000E+09 1.000E+09 3.413E+00 4.427E+00 8.588E+01 1.933E+02 2.836E+02 2.870E+02 1.924E+07 23.6134 1.00000
  1.122E+09 1.122E+09 3.428E+00 4.993E+00 9.640E+01 2.209E+02 3.223E+02 3.257E+02 1.964E+07 23.8436 1.00000
  1.259E+09 1.259E+09 3.444E+00 5.630E+00 1.082E+02 2.524E+02 3.663E+02 3.697E+02 2.003E+07 24.0739 1.00000
  1.413E+09 1.413E+09 3.459E+00 6.347E+00 1.215E+02 2.885E+02 4.163E+02 4.198E+02 2.042E+07 24.3041 1.00000
  1.585E+09 1.585E+09 3.474E+00 7.154E+00 1.363E+02 3.298E+02 4.733E+02 4.767E+02 2.081E+07 24.5344 1.00000
  1.778E+09 1.778E+09 3.490E+00 8.062E+00 1.530E+02 3.769E+02 5.380E+02 5.415E+02 2.119E+07 24.7647 1.00000
  1.995E+09 1.995E+09 3.506E+00 9.083E+00 1.717E+02 4.309E+02 6.117E+02 6.152E+02 2.157E+07 24.9949 1.00000
  2.239E+09 2.239E+09 3.521E+00 1.023E+01 1.928E+02 4.926E+02 6.956E+02 6.991E+02 2.194E+07 25.2252 1.00000
  2.512E+09 2.512E+09 3.537E+00 1.152E+01 2.163E+02 5.632E+02 7.910E+02 7.946E+02 2.231E+07 25.4554 1.00000
  2.818E+09 2.818E+09 3.553E+00 1.297E+01 2.428E+02 6.439E+02 8.996E+02 9.032E+02 2.267E+07 25.6857 1.00000
  3.162E+09 3.162E+09 3.569E+00 1.461E+01 2.724E+02 7.362E+02 1.023E+03 1.027E+03 2.303E+07 25.9160 1.00000
  3.548E+09 3.548E+09 3.585E+00 1.644E+01 3.057E+02 8.418E+02 1.164E+03 1.168E+03 2.338E+07 26.1462 1.00000
  3.981E+09 3.981E+09 3.601E+00 1.850E+01 3.431E+02 9.626E+02 1.324E+03 1.328E+03 2.373E+07 26.3765 1.00000
  4.467E+09 4.467E+09 3.618E+00 2.082E+01 3.850E+02 1.101E+03 1.507E+03 1.510E+03 2.407E+07 26.6067 1.00000
  5.012E+09 5.012E+09 3.634E+00 2.342E+01 4.321E+02 1.259E+03 1.714E+03 1.718E+03 2.441E+07 26.8370 1.00000
  5.623E+09 5.623E+09 3.650E+00 2.635E+01 4.849E+02 1.440E+03 1.951E+03 1.955E+03 2.475E+07 27.0672 1.00000
  6.310E+09 6.310E+09 3.667E+00 2.964E+01 5.441E+02 1.647E+03 2.221E+03 2.224E+03 2.508E+07 27.2975 1.00000
  7.079E+09 7.079E+09 3.684E+00 3.333E+01 6.105E+02 1.884E+03 2.528E+03 2.531E+03 2.540E+07 27.5278 1.00000
  7.943E+09 7.943E+09 3.700E+00 3.748E+01 6.851E+02 2.155E+03 2.877E+03 2.881E+03 2.572E+07 27.7580 1.00000
  8.913E+09 8.913E+09 3.717E+00 4.213E+01 7.687E+02 2.465E+03 3.276E+03 3.279E+03 2.604E+07 27.9883 1.00000
  1.000E+10 1.000E+10 3.734E+00 4.736E+01 8.626E+02 2.820E+03 3.730E+03 3.733E+03 2.635E+07 28.2185 1.00000
  1.122E+10 1.122E+10 3.751E+00 5.324E+01 9.679E+02 3.226E+03 4.247E+03 4.251E+03 2.666E+07 28.4488 1.00000
  1.259E+10 1.259E+10 3.768E+00 5.983E+01 1.086E+03 3.691E+03 4.837E+03 4.840E+03 2.696E+07 28.6791 1.00000
  1.413E+10 1.413E+10 3.785E+00 6.724E+01 1.219E+03 4.223E+03 5.509E+03 5.512E+03 2.726E+07 28.9093 1.00000
  1.585E+10 1.585E+10 3.803E+00 7.555E+01 1.367E+03 4.832E+03 6.275E+03 6.279E+03 2.755E+07 29.1396 1.00000
  1.778E+10 1.778E+10 3.820E+00 8.489E+01 1.534E+03 5.529E+03 7.148E+03 7.152E+03 2.784E+07 29.3698 1.00000
  1.995E+10 1.995E+10 3.837E+00 9.537E+01 1.721E+03 6.327E+03 8.144E+03 8.148E+03 2.812E+07 29.6001 1.00000
  2.239E+10 2.239E+10 3.855E+00 1.071E+02 1.932E+03 7.241E+03 9.279E+03 9.283E+03 2.841E+07 29.8304 1.00000
  2.512E+10 2.512E+10 3.873E+00 1.203E+02 2.167E+03 8.287E+03 1.057E+04 1.058E+04 2.868E+07 30.0606 1.00000
  2.818E+10 2.818E+10 3.891E+00 1.352E+02 2.432E+03 9.485E+03 1.205E+04 1.206E+04 2.895E+07 30.2909 1.00000
  3.162E+10 3.162E+10 3.908E+00 1.518E+02 2.728E+03 1.086E+04 1.374E+04 1.374E+04 2.922E+07 30.5211 1.00000
  3.548E+10 3.548E+10 3.926E+00 1.705E+02 3.061E+03 1.243E+04 1.566E+04 1.566E+04 2.948E+07 30.7514 1.00000
  3.981E+10 3.981E+10 3.945E+00 1.914E+02 3.435E+03 1.422E+04 1.785E+04 1.785E+04 2.974E+07 30.9816 1.00000
  4.467E+10 4.467E+10 3.963E+00 2.150E+02 3.854E+03 1.628E+04 2.035E+04 2.036E+04 3.000E+07 31.2119 1.00000
  5.012E+10 5.012E+10 3.981E+00 2.414E+02 4.324E+03 1.864E+04 2.321E+04 2.321E+04 3.025E+07 31.4422 1.00000
  5.623E+10 5.623E+10 3.999E+00 2.710E+02 4.852E+03 2.134E+04 2.647E+04 2.647E+04 3.050E+07 31.6724 1.00000
  6.310E+10 6.310E+10 4.018E+00 3.043E+02 5.444E+03 2.444E+04 3.018E+04 3.019E+04 3.074E+07 31.9027 1.00000
  7.079E+10 7.079E+10 4.037E+00 3.416E+02 6.108E+03 2.798E+04 3.443E+04 3.443E+04 3.098E+07 32.1329 1.00000
  7.943E+10 7.943E+10 4.055E+00 3.835E+02 6.853E+03 3.204E+04 3.928E+04 3.928E+04 3.122E+07 32.3632 1.00000
  8.913E+10 8.913E+10 4.074E+00 4.305E+02 7.689E+03 3.669E+04 4.481E+04 4.481E+04 3.145E+07 32.5935 1.00000
  1.000E+11 1.000E+11 4.093E+00 4.832E+02 8.628E+03 4.201E+04 5.113E+04 5.113E+04 3.168E+07 32.8237 1.00000
  1.122E+11 1.122E+11 4.112E+00 5.424E+02 9.680E+03 4.812E+04 5.834E+04 5.834E+04 3.190E+07 33.0540 1.00000
  1.259E+11 1.259E+11 4.131E+00 6.088E+02 1.086E+04 5.511E+04 6.658E+04 6.658E+04 3.212E+07 33.2842 1.00000
  1.413E+11 1.413E+11 4.150E+00 6.833E+02 1.219E+04 6.312E+04 7.599E+04 7.599E+04 3.234E+07 33.5145 1.00000
  1.585E+11 1.585E+11 4.170E+00 7.670E+02 1.367E+04 7.230E+04 8.674E+04 8.674E+04 3.255E+07 33.7447 1.00000
  1.778E+11 1.778E+11 4.189E+00 8.608E+02 1.534E+04 8.282E+04 9.902E+04 9.902E+04 3.276E+07 33.9750 1.00000
  1.995E+11 1.995E+11 4.209E+00 9.661E+02 1.721E+04 9.487E+04 1.130E+05 1.131E+05 3.296E+07 34.2053 1.00000
  2.239E+11 2.239E+11 4.229E+00 1.084E+03 1.931E+04 1.087E+05 1.291E+05 1.291E+05 3.317E+07 34.4355 1.00000
  2.512E+11 2.512E+11 4.248E+00 1.217E+03 2.167E+04 1.245E+05 1.474E+05 1.474E+05 3.336E+07 34.6658 1.00000
  2.818E+11 2.818E+11 4.268E+00 1.366E+03 2.431E+04 1.427E+05 1.683E+05 1.683E+05 3.356E+07 34.8960 1.00000
  3.162E+11 3.162E+11 4.288E+00 1.533E+03 2.728E+04 1.635E+05 1.923E+05 1.923E+05 3.375E+07 35.1263 1.00000
  3.548E+11 3.548E+11 4.308E+00 1.720E+03 3.060E+04 1.873E+05 2.196E+05 2.196E+05 3.394E+07 35.3566 1.00000
  3.981E+11 3.981E+11 4.329E+00 1.930E+03 3.434E+04 2.146E+05 2.509E+05 2.509E+05 3.412E+07 35.5868 1.00000
  4.467E+11 4.467E+11 4.349E+00 2.166E+03 3.853E+04 2.459E+05 2.866E+05 2.866E+05 3.430E+07 35.8171 1.00000
  5.012E+11 5.012E+11 4.369E+00 2.430E+03 4.323E+04 2.819E+05 3.275E+05 3.275E+05 3.448E+07 36.0473 1.00000
  5.623E+11 5.623E+11 4.390E+00 2.727E+03 4.850E+04 3.230E+05 3.743E+05 3.743E+05 3.466E+07 36.2776 1.00000
  6.310E+11 6.310E+11 4.411E+00 3.060E+03 5.441E+04 3.702E+05 4.277E+05 4.277E+05 3.483E+07 36.5078 1.00000
  7.079E+11 7.079E+11 4.432E+00 3.434E+03 6.105E+04 4.244E+05 4.888E+05 4.889E+05 3.500E+07 36.7381 1.00000
  7.943E+11 7.943E+11 4.453E+00 3.854E+03 6.850E+04 4.864E+05 5.588E+05 5.588E+05 3.516E+07 36.9684 1.00000
  8.913E+11 8.913E+11 4.474E+00 4.324E+03 7.685E+04 5.576E+05 6.388E+05 6.388E+05 3.533E+07 37.1986 1.00000
  1.000E+12 1.000E+12 4.495E+00 4.852E+03 8.623E+04 6.392E+05 7.303E+05 7.303E+05 3.549E+07 37.4289 1.00000
  1.122E+12 1.122E+12 4.516E+00 5.445E+03 9.675E+04 7.328E+05 8.350E+05 8.350E+05 3.564E+07 37.6591 1.00000
  1.259E+12 1.259E+12 4.537E+00 6.109E+03 1.085E+05 8.402E+05 9.548E+05 9.548E+05 3.580E+07 37.8894 1.00000
  1.413E+12 1.413E+12 4.559E+00 6.855E+03 1.218E+05 9.633E+05 1.092E+06 1.092E+06 3.595E+07 38.1197 1.00000
  1.585E+12 1.585E+12 4.581E+00 7.692E+03 1.366E+05 1.104E+06 1.249E+06 1.249E+06 3.610E+07 38.3499 1.00000
  1.778E+12 1.778E+12 4.602E+00 8.631E+03 1.533E+05 1.266E+06 1.428E+06 1.428E+06 3.624E+07 38.5802 1.00000
  1.995E+12 1.995E+12 4.624E+00 9.684E+03 1.720E+05 1.452E+06 1.634E+06 1.634E+06 3.638E+07 38.8104 1.00000
  2.239E+12 2.239E+12 4.646E+00 1.087E+04 1.930E+05 1.665E+06 1.869E+06 1.869E+06 3.652E+07 39.0407 1.00000
  2.512E+12 2.512E+12 4.668E+00 1.219E+04 2.165E+05 1.910E+06 2.139E+06 2.139E+06 3.666E+07 39.2709 1.00000
  2.818E+12 2.818E+12 4.691E+00 1.368E+04 2.429E+05 2.191E+06 2.447E+06 2.447E+06 3.679E+07 39.5012 1.00000
  3.162E+12 3.162E+12 4.713E+00 1.535E+04 2.726E+05 2.512E+06 2.800E+06 2.800E+06 3.693E+07 39.7315 1.00000
  3.548E+12 3.548E+12 4.735E+00 1.722E+04 3.058E+05 2.882E+06 3.205E+06 3.205E+06 3.705E+07 39.9617 1.00000
  3.981E+12 3.981E+12 4.758E+00 1.933E+04 3.431E+05 3.306E+06 3.668E+06 3.668E+06 3.718E+07 40.1920 1.00000
  4.467E+12 4.467E+12 4.781E+00 2.169E+04 3.850E+05 3.792E+06 4.199E+06 4.199E+06 3.731E+07 40.4222 1.00000
  5.012E+12 5.012E+12 4.804E+00 2.433E+04 4.319E+05 4.350E+06 4.806E+06 4.806E+06 3.743E+07 40.6525 1.00000
  5.623E+12 5.623E+12 4.827E+00 2.730E+04 4.846E+05 4.991E+06 5.502E+06 5.502E+06 3.755E+07 40.8828 1.00000
  6.310E+12 6.310E+12 4.850E+00 3.063E+04 5.437E+05 5.726E+06 6.300E+06 6.300E+06 3.766E+07 41.1130 1.00000
  7.079E+12 7.079E+12 4.873E+00 3.437E+04 6.100E+05 6.569E+06 7.214E+06 7.214E+06 3.778E+07 41.3433 1.00000
  7.943E+12 7.943E+12 4.896E+00 3.857E+04 6.844E+05 7.538E+06 8.261E+06 8.261E+06 3.789E+07 41.5735 1.00000
  8.913E+12 8.913E+12 4.920E+00 4.327E+04 7.679E+05 8.649E+06 9.460E+06 9.460E+06 3.800E+07 41.8038 1.00000
  1.000E+13 1.000E+13 4.943E+00 4.855E+04 8.615E+05 9.925E+06 1.084E+07 1.084E+07 3.811E+07 42.0341 1.00000
  1.122E+13 1.122E+13 4.967E+00 5.448E+04 9.666E+05 1.139E+07 1.241E+07 1.241E+07 3.821E+07 42.2643 1.00000
  1.259E+13 1.259E+13 4.991E+00 6.112E+04 1.084E+06 1.307E+07 1.422E+07 1.422E+07 3.832E+07 42.4946 1.00000
  1.413E+13 1.413E+13 5.015E+00 6.858E+04 1.217E+06 1.500E+07 1.629E+07 1.629E+07 3.842E+07 42.7248 1.00000
  1.585E+13 1.585E+13 5.039E+00 7.695E+04 1.365E+06 1.722E+07 1.866E+07 1.866E+07 3.852E+07 42.9551 1.00000
  1.778E+13 1.778E+13 5.064E+00 8.634E+04 1.532E+06 1.976E+07 2.138E+07 2.138E+07 3.861E+07 43.1853 1.00000
  1.995E+13 1.995E+13 5.088E+00 9.688E+04 1.718E+06 2.268E+07 2.450E+07 2.450E+07 3.871E+07 43.4156 1.00000
  2.239E+13 2.239E+13 5.112E+00 1.087E+05 1.928E+06 2.604E+07 2.808E+07 2.808E+07 3.880E+07 43.6459 1.00000
  2.512E+13 2.512E+13 5.137E+00 1.220E+05 2.163E+06 2.989E+07 3.218E+07 3.218E+07 3.889E+07 43.8761 1.00000
  2.818E+13 2.818E+13 5.162E+00 1.368E+05 2.427E+06 3.432E+07 3.688E+07 3.688E+07 3.898E+07 44.1064 1.00000
  3.162E+13 3.162E+13 5.187E+00 1.535E+05 2.723E+06 3.940E+07 4.228E+07 4.228E+07 3.907E+07 44.3366 1.00000
  3.548E+13 3.548E+13 5.212E+00 1.723E+05 3.055E+06 4.524E+07 4.846E+07 4.846E+07 3.915E+07 44.5669 1.00000
  3.981E+13 3.981E+13 5.237E+00 1.933E+05 3.428E+06 5.194E+07 5.556E+07 5.556E+07 3.924E+07 44.7972 1.00000
  4.467E+13 4.467E+13 5.263E+00 2.169E+05 3.846E+06 5.964E+07 6.370E+07 6.370E+07 3.932E+07 45.0274 1.00000
  5.012E+13 5.012E+13 5.288E+00 2.433E+05 4.315E+06 6.848E+07 7.304E+07 7.304E+07 3.940E+07 45.2577 1.00000
  5.623E+13 5.623E+13 5.314E+00 2.730E+05 4.841E+06 7.864E+07 8.375E+07 8.375E+07 3.948E+07 45.4879 1.00000
  6.310E+13 6.310E+13 5.339E+00 3.064E+05 5.431E+06 9.031E+07 9.605E+07 9.605E+07 3.955E+07 45.7182 1.00000
  7.079E+13 7.079E+13 5.365E+00 3.437E+05 6.094E+06 1.037E+08 1.102E+08 1.102E+08 3.963E+07 45.9484 1.00000
  7.943E+13 7.943E+13 5.391E+00 3.857E+05 6.837E+06 1.191E+08 1.263E+08 1.263E+08 3.970E+07 46.1787 1.00000
  8.913E+13 8.913E+13 5.417E+00 4.327E+05 7.670E+06 1.368E+08 1.449E+08 1.449E+08 3.977E+07 46.4090 1.00000
