 Incident particle is a Tau with M = 1776.82000 MeV
 Index = 0: CarbonTetrachloride
      Absorber with <Z/A> = 0.48107
 Sternheimer coef:  a     k=m_s   x_0    x_1    I[eV]   Cbar  delta0
                 0.1902  3.0116  0.1773  2.9165  166.3  4.7712 0.00

 *** Table generated with PUMAS v1.00 ***

      T         p     Ionization  brems     pair     photonuc  Radloss    dE/dx   CSDA Range  delta   beta
    [MeV]    [MeV/c]  -----------------------[MeV cm^2/g]------------------------  [g/cm^2]
  1.000E+05 1.018E+05 2.080E+00 2.873E-04 4.600E-03 8.059E-03 1.295E-02 2.093E+00 2.389E+04  3.6207 0.99985
  1.122E+05 1.140E+05 2.100E+00 3.323E-04 5.527E-03 9.081E-03 1.494E-02 2.115E+00 2.969E+04  3.8109 0.99988
  1.259E+05 1.277E+05 2.120E+00 3.840E-04 6.618E-03 1.018E-02 1.718E-02 2.137E+00 3.613E+04  4.0046 0.99990
  1.413E+05 1.430E+05 2.139E+00 4.437E-04 7.902E-03 1.141E-02 1.976E-02 2.159E+00 4.328E+04  4.2015 0.99992
  1.585E+05 1.603E+05 2.159E+00 5.123E-04 9.409E-03 1.279E-02 2.271E-02 2.181E+00 5.123E+04  4.4016 0.99994
  1.778E+05 1.796E+05 2.178E+00 5.913E-04 1.117E-02 1.433E-02 2.609E-02 2.204E+00 6.005E+04  4.6046 0.99995
  1.995E+05 2.013E+05 2.197E+00 6.821E-04 1.324E-02 1.608E-02 3.000E-02 2.227E+00 6.984E+04  4.8104 0.99996
  2.239E+05 2.256E+05 2.216E+00 7.864E-04 1.565E-02 1.799E-02 3.442E-02 2.250E+00 8.072E+04  5.0189 0.99997
  2.512E+05 2.530E+05 2.235E+00 9.062E-04 1.845E-02 2.012E-02 3.948E-02 2.274E+00 9.279E+04  5.2299 0.99998
  2.818E+05 2.836E+05 2.253E+00 1.044E-03 2.171E-02 2.252E-02 4.528E-02 2.299E+00 1.062E+05  5.4431 0.99998
  3.162E+05 3.180E+05 2.272E+00 1.202E-03 2.550E-02 2.523E-02 5.193E-02 2.324E+00 1.211E+05  5.6586 0.99998
  3.548E+05 3.566E+05 2.290E+00 1.383E-03 2.988E-02 2.826E-02 5.953E-02 2.350E+00 1.376E+05  5.8761 0.99999
  3.981E+05 3.999E+05 2.308E+00 1.591E-03 3.495E-02 3.165E-02 6.819E-02 2.377E+00 1.559E+05  6.0954 0.99999
  4.467E+05 4.485E+05 2.326E+00 1.829E-03 4.082E-02 3.544E-02 7.808E-02 2.404E+00 1.762E+05  6.3165 0.99999
  5.012E+05 5.030E+05 2.344E+00 2.101E-03 4.758E-02 3.970E-02 8.937E-02 2.434E+00 1.988E+05  6.5391 0.99999
  5.623E+05 5.641E+05 2.362E+00 2.414E-03 5.537E-02 4.430E-02 1.021E-01 2.464E+00 2.237E+05  6.7631 1.00000
  6.310E+05 6.327E+05 2.380E+00 2.771E-03 6.433E-02 4.948E-02 1.166E-01 2.496E+00 2.514E+05  6.9884 1.00000
  7.079E+05 7.097E+05 2.397E+00 3.181E-03 7.463E-02 5.533E-02 1.331E-01 2.530E+00 2.820E+05  7.2148 1.00000
  7.943E+05 7.961E+05 2.415E+00 3.649E-03 8.646E-02 6.192E-02 1.520E-01 2.567E+00 3.159E+05  7.4421 1.00000
  8.913E+05 8.930E+05 2.432E+00 4.185E-03 1.000E-01 6.937E-02 1.736E-01 2.606E+00 3.534E+05  7.6702 1.00000
  1.000E+06 1.002E+06 2.449E+00 4.798E-03 1.155E-01 7.779E-02 1.981E-01 2.647E+00 3.948E+05  7.8990 1.00000
  1.122E+06 1.124E+06 2.466E+00 5.498E-03 1.333E-01 8.730E-02 2.261E-01 2.692E+00 4.405E+05  8.1284 1.00000
  1.259E+06 1.261E+06 2.483E+00 6.298E-03 1.536E-01 9.808E-02 2.580E-01 2.741E+00 4.909E+05  8.3580 1.00000
  1.413E+06 1.414E+06 2.500E+00 7.212E-03 1.767E-01 1.103E-01 2.942E-01 2.794E+00 5.464E+05  8.5879 1.00000
  1.585E+06 1.587E+06 2.517E+00 8.256E-03 2.031E-01 1.241E-01 3.355E-01 2.852E+00 6.075E+05  8.8179 1.00000
  1.778E+06 1.780E+06 2.533E+00 9.447E-03 2.332E-01 1.398E-01 3.824E-01 2.916E+00 6.746E+05  9.0479 1.00000
  1.995E+06 1.997E+06 2.550E+00 1.081E-02 2.674E-01 1.576E-01 4.358E-01 2.985E+00 7.481E+05  9.2780 1.00000
  2.239E+06 2.240E+06 2.566E+00 1.236E-02 3.064E-01 1.778E-01 4.965E-01 3.062E+00 8.286E+05  9.5081 1.00000
  2.512E+06 2.514E+06 2.582E+00 1.413E-02 3.506E-01 2.007E-01 5.654E-01 3.147E+00 9.166E+05  9.7381 1.00000
  2.818E+06 2.820E+06 2.598E+00 1.615E-02 4.008E-01 2.268E-01 6.437E-01 3.242E+00 1.013E+06  9.9682 1.00000
  3.162E+06 3.164E+06 2.614E+00 1.845E-02 4.577E-01 2.564E-01 7.326E-01 3.347E+00 1.117E+06 10.1984 1.00000
  3.548E+06 3.550E+06 2.630E+00 2.107E-02 5.223E-01 2.901E-01 8.335E-01 3.463E+00 1.230E+06 10.4285 1.00000
  3.981E+06 3.983E+06 2.645E+00 2.406E-02 5.954E-01 3.284E-01 9.479E-01 3.593E+00 1.353E+06 10.6587 1.00000
  4.467E+06 4.469E+06 2.661E+00 2.746E-02 6.781E-01 3.720E-01 1.078E+00 3.738E+00 1.486E+06 10.8888 1.00000
  5.012E+06 5.014E+06 2.676E+00 3.134E-02 7.717E-01 4.217E-01 1.225E+00 3.901E+00 1.628E+06 11.1190 1.00000
  5.623E+06 5.625E+06 2.691E+00 3.575E-02 8.775E-01 4.782E-01 1.391E+00 4.083E+00 1.782E+06 11.3492 1.00000
  6.310E+06 6.311E+06 2.706E+00 4.077E-02 9.971E-01 5.425E-01 1.580E+00 4.286E+00 1.946E+06 11.5794 1.00000
  7.079E+06 7.081E+06 2.721E+00 4.648E-02 1.132E+00 6.158E-01 1.794E+00 4.515E+00 2.121E+06 11.8096 1.00000
  7.943E+06 7.945E+06 2.736E+00 5.298E-02 1.284E+00 6.993E-01 2.037E+00 4.772E+00 2.307E+06 12.0398 1.00000
  8.913E+06 8.914E+06 2.750E+00 6.037E-02 1.456E+00 7.945E-01 2.311E+00 5.061E+00 2.504E+06 12.2700 1.00000
  1.000E+07 1.000E+07 2.764E+00 6.877E-02 1.650E+00 9.029E-01 2.622E+00 5.386E+00 2.713E+06 12.5002 1.00000
  1.122E+07 1.122E+07 2.779E+00 7.831E-02 1.869E+00 1.027E+00 2.974E+00 5.752E+00 2.932E+06 12.7304 1.00000
  1.259E+07 1.259E+07 2.793E+00 8.915E-02 2.115E+00 1.167E+00 3.372E+00 6.164E+00 3.162E+06 12.9606 1.00000
  1.413E+07 1.413E+07 2.807E+00 1.015E-01 2.392E+00 1.328E+00 3.822E+00 6.629E+00 3.403E+06 13.1909 1.00000
  1.585E+07 1.585E+07 2.821E+00 1.155E-01 2.705E+00 1.511E+00 4.331E+00 7.152E+00 3.653E+06 13.4211 1.00000
  1.778E+07 1.778E+07 2.835E+00 1.313E-01 3.056E+00 1.720E+00 4.908E+00 7.742E+00 3.913E+06 13.6513 1.00000
  1.995E+07 1.995E+07 2.848E+00 1.493E-01 3.452E+00 1.959E+00 5.560E+00 8.408E+00 4.182E+06 13.8816 1.00000
  2.239E+07 2.239E+07 2.862E+00 1.698E-01 3.897E+00 2.231E+00 6.297E+00 9.159E+00 4.460E+06 14.1118 1.00000
  2.512E+07 2.512E+07 2.876E+00 1.929E-01 4.397E+00 2.541E+00 7.131E+00 1.001E+01 4.746E+06 14.3420 1.00000
  2.818E+07 2.819E+07 2.889E+00 2.192E-01 4.960E+00 2.895E+00 8.074E+00 1.096E+01 5.039E+06 14.5723 1.00000
  3.162E+07 3.162E+07 2.903E+00 2.490E-01 5.593E+00 3.299E+00 9.141E+00 1.204E+01 5.338E+06 14.8025 1.00000
  3.548E+07 3.548E+07 2.916E+00 2.827E-01 6.305E+00 3.760E+00 1.035E+01 1.326E+01 5.644E+06 15.0328 1.00000
  3.981E+07 3.981E+07 2.929E+00 3.209E-01 7.104E+00 4.286E+00 1.171E+01 1.464E+01 5.955E+06 15.2630 1.00000
  4.467E+07 4.467E+07 2.943E+00 3.642E-01 8.003E+00 4.887E+00 1.325E+01 1.620E+01 6.271E+06 15.4933 1.00000
  5.012E+07 5.012E+07 2.956E+00 4.132E-01 9.013E+00 5.572E+00 1.500E+01 1.795E+01 6.591E+06 15.7235 1.00000
  5.623E+07 5.624E+07 2.969E+00 4.686E-01 1.015E+01 6.355E+00 1.697E+01 1.994E+01 6.914E+06 15.9538 1.00000
  6.310E+07 6.310E+07 2.983E+00 5.313E-01 1.142E+01 7.248E+00 1.920E+01 2.218E+01 7.241E+06 16.1840 1.00000
  7.079E+07 7.080E+07 2.996E+00 6.022E-01 1.285E+01 8.269E+00 2.172E+01 2.472E+01 7.570E+06 16.4143 1.00000
  7.943E+07 7.943E+07 3.010E+00 6.824E-01 1.446E+01 9.433E+00 2.458E+01 2.759E+01 7.902E+06 16.6445 1.00000
  8.913E+07 8.913E+07 3.023E+00 7.731E-01 1.626E+01 1.076E+01 2.780E+01 3.082E+01 8.235E+06 16.8748 1.00000
  1.000E+08 1.000E+08 3.036E+00 8.756E-01 1.829E+01 1.228E+01 3.145E+01 3.449E+01 8.569E+06 17.1050 1.00000
  1.122E+08 1.122E+08 3.050E+00 9.913E-01 2.057E+01 1.402E+01 3.558E+01 3.863E+01 8.903E+06 17.3353 1.00000
  1.259E+08 1.259E+08 3.063E+00 1.122E+00 2.312E+01 1.600E+01 4.024E+01 4.331E+01 9.239E+06 17.5655 1.00000
  1.413E+08 1.413E+08 3.077E+00 1.270E+00 2.599E+01 1.826E+01 4.552E+01 4.860E+01 9.574E+06 17.7958 1.00000
  1.585E+08 1.585E+08 3.090E+00 1.436E+00 2.921E+01 2.085E+01 5.149E+01 5.458E+01 9.909E+06 18.0261 1.00000
  1.778E+08 1.778E+08 3.104E+00 1.624E+00 3.282E+01 2.380E+01 5.825E+01 6.135E+01 1.024E+07 18.2563 1.00000
  1.995E+08 1.995E+08 3.118E+00 1.837E+00 3.688E+01 2.717E+01 6.589E+01 6.901E+01 1.058E+07 18.4866 1.00000
  2.239E+08 2.239E+08 3.131E+00 2.076E+00 4.144E+01 3.102E+01 7.453E+01 7.767E+01 1.091E+07 18.7168 1.00000
  2.512E+08 2.512E+08 3.145E+00 2.346E+00 4.655E+01 3.542E+01 8.432E+01 8.746E+01 1.124E+07 18.9471 1.00000
  2.818E+08 2.818E+08 3.159E+00 2.650E+00 5.228E+01 4.045E+01 9.539E+01 9.855E+01 1.157E+07 19.1773 1.00000
  3.162E+08 3.162E+08 3.173E+00 2.993E+00 5.872E+01 4.620E+01 1.079E+02 1.111E+02 1.190E+07 19.4076 1.00000
  3.548E+08 3.548E+08 3.187E+00 3.379E+00 6.595E+01 5.277E+01 1.221E+02 1.253E+02 1.223E+07 19.6379 1.00000
  3.981E+08 3.981E+08 3.201E+00 3.814E+00 7.406E+01 6.027E+01 1.381E+02 1.413E+02 1.256E+07 19.8681 1.00000
  4.467E+08 4.467E+08 3.215E+00 4.305E+00 8.316E+01 6.885E+01 1.563E+02 1.595E+02 1.288E+07 20.0984 1.00000
  5.012E+08 5.012E+08 3.229E+00 4.857E+00 9.337E+01 7.865E+01 1.769E+02 1.801E+02 1.320E+07 20.3286 1.00000
  5.623E+08 5.623E+08 3.243E+00 5.478E+00 1.048E+02 8.985E+01 2.002E+02 2.034E+02 1.352E+07 20.5589 1.00000
  6.310E+08 6.310E+08 3.258E+00 6.178E+00 1.177E+02 1.026E+02 2.265E+02 2.298E+02 1.384E+07 20.7891 1.00000
  7.079E+08 7.079E+08 3.272E+00 6.965E+00 1.321E+02 1.173E+02 2.564E+02 2.596E+02 1.416E+07 21.0194 1.00000
  7.943E+08 7.943E+08 3.286E+00 7.851E+00 1.483E+02 1.340E+02 2.902E+02 2.935E+02 1.447E+07 21.2497 1.00000
  8.913E+08 8.913E+08 3.301E+00 8.848E+00 1.665E+02 1.531E+02 3.285E+02 3.318E+02 1.478E+07 21.4799 1.00000
  1.000E+09 1.000E+09 3.316E+00 9.970E+00 1.869E+02 1.750E+02 3.718E+02 3.752E+02 1.509E+07 21.7102 1.00000
  1.122E+09 1.122E+09 3.330E+00 1.123E+01 2.098E+02 2.000E+02 4.210E+02 4.243E+02 1.540E+07 21.9404 1.00000
  1.259E+09 1.259E+09 3.345E+00 1.265E+01 2.354E+02 2.286E+02 4.766E+02 4.800E+02 1.570E+07 22.1707 1.00000
  1.413E+09 1.413E+09 3.360E+00 1.424E+01 2.643E+02 2.612E+02 5.397E+02 5.431E+02 1.600E+07 22.4009 1.00000
  1.585E+09 1.585E+09 3.375E+00 1.604E+01 2.966E+02 2.986E+02 6.112E+02 6.146E+02 1.630E+07 22.6312 1.00000
  1.778E+09 1.778E+09 3.390E+00 1.805E+01 3.329E+02 3.413E+02 6.922E+02 6.956E+02 1.660E+07 22.8615 1.00000
  1.995E+09 1.995E+09 3.405E+00 2.031E+01 3.736E+02 3.902E+02 7.840E+02 7.874E+02 1.689E+07 23.0917 1.00000
  2.239E+09 2.239E+09 3.420E+00 2.286E+01 4.192E+02 4.460E+02 8.881E+02 8.915E+02 1.718E+07 23.3220 1.00000
  2.512E+09 2.512E+09 3.435E+00 2.572E+01 4.705E+02 5.099E+02 1.006E+03 1.010E+03 1.747E+07 23.5522 1.00000
  2.818E+09 2.818E+09 3.450E+00 2.893E+01 5.280E+02 5.830E+02 1.140E+03 1.143E+03 1.776E+07 23.7825 1.00000
  3.162E+09 3.162E+09 3.466E+00 3.254E+01 5.925E+02 6.666E+02 1.292E+03 1.295E+03 1.804E+07 24.0128 1.00000
  3.548E+09 3.548E+09 3.481E+00 3.659E+01 6.649E+02 7.622E+02 1.464E+03 1.467E+03 1.832E+07 24.2430 1.00000
  3.981E+09 3.981E+09 3.497E+00 4.114E+01 7.461E+02 8.716E+02 1.659E+03 1.662E+03 1.860E+07 24.4733 1.00000
  4.467E+09 4.467E+09 3.513E+00 4.626E+01 8.372E+02 9.967E+02 1.880E+03 1.884E+03 1.887E+07 24.7035 1.00000
  5.012E+09 5.012E+09 3.528E+00 5.200E+01 9.394E+02 1.140E+03 2.131E+03 2.135E+03 1.915E+07 24.9338 1.00000
  5.623E+09 5.623E+09 3.544E+00 5.845E+01 1.054E+03 1.304E+03 2.416E+03 2.420E+03 1.942E+07 25.1640 1.00000
  6.310E+09 6.310E+09 3.560E+00 6.569E+01 1.183E+03 1.491E+03 2.740E+03 2.743E+03 1.968E+07 25.3943 1.00000
  7.079E+09 7.079E+09 3.576E+00 7.382E+01 1.327E+03 1.706E+03 3.107E+03 3.110E+03 1.995E+07 25.6246 1.00000
  7.943E+09 7.943E+09 3.592E+00 8.294E+01 1.489E+03 1.951E+03 3.523E+03 3.527E+03 2.021E+07 25.8548 1.00000
  8.913E+09 8.913E+09 3.608E+00 9.319E+01 1.671E+03 2.232E+03 3.996E+03 4.000E+03 2.047E+07 26.0851 1.00000
  1.000E+10 1.000E+10 3.625E+00 1.047E+02 1.875E+03 2.553E+03 4.533E+03 4.537E+03 2.072E+07 26.3153 1.00000
  1.122E+10 1.122E+10 3.641E+00 1.176E+02 2.104E+03 2.921E+03 5.142E+03 5.146E+03 2.097E+07 26.5456 1.00000
  1.259E+10 1.259E+10 3.657E+00 1.321E+02 2.361E+03 3.342E+03 5.835E+03 5.838E+03 2.123E+07 26.7759 1.00000
  1.413E+10 1.413E+10 3.674E+00 1.484E+02 2.649E+03 3.823E+03 6.621E+03 6.625E+03 2.147E+07 27.0061 1.00000
  1.585E+10 1.585E+10 3.691E+00 1.666E+02 2.972E+03 4.375E+03 7.514E+03 7.518E+03 2.172E+07 27.2364 1.00000
  1.778E+10 1.778E+10 3.707E+00 1.871E+02 3.335E+03 5.006E+03 8.528E+03 8.532E+03 2.196E+07 27.4666 1.00000
  1.995E+10 1.995E+10 3.724E+00 2.101E+02 3.742E+03 5.729E+03 9.681E+03 9.685E+03 2.220E+07 27.6969 1.00000
  2.239E+10 2.239E+10 3.741E+00 2.360E+02 4.199E+03 6.556E+03 1.099E+04 1.099E+04 2.243E+07 27.9272 1.00000
  2.512E+10 2.512E+10 3.758E+00 2.649E+02 4.711E+03 7.503E+03 1.248E+04 1.248E+04 2.267E+07 28.1574 1.00000
  2.818E+10 2.818E+10 3.775E+00 2.975E+02 5.286E+03 8.588E+03 1.417E+04 1.417E+04 2.290E+07 28.3877 1.00000
  3.162E+10 3.162E+10 3.793E+00 3.340E+02 5.931E+03 9.829E+03 1.609E+04 1.610E+04 2.313E+07 28.6179 1.00000
  3.548E+10 3.548E+10 3.810E+00 3.749E+02 6.655E+03 1.125E+04 1.828E+04 1.828E+04 2.335E+07 28.8482 1.00000
  3.981E+10 3.981E+10 3.827E+00 4.209E+02 7.467E+03 1.288E+04 2.077E+04 2.077E+04 2.358E+07 29.0784 1.00000
  4.467E+10 4.467E+10 3.845E+00 4.725E+02 8.378E+03 1.474E+04 2.359E+04 2.360E+04 2.380E+07 29.3087 1.00000
  5.012E+10 5.012E+10 3.862E+00 5.304E+02 9.400E+03 1.688E+04 2.681E+04 2.681E+04 2.401E+07 29.5390 1.00000
  5.623E+10 5.623E+10 3.880E+00 5.953E+02 1.055E+04 1.932E+04 3.047E+04 3.047E+04 2.423E+07 29.7692 1.00000
  6.310E+10 6.310E+10 3.898E+00 6.682E+02 1.183E+04 2.213E+04 3.463E+04 3.463E+04 2.444E+07 29.9995 1.00000
  7.079E+10 7.079E+10 3.916E+00 7.500E+02 1.328E+04 2.533E+04 3.936E+04 3.936E+04 2.465E+07 30.2297 1.00000
  7.943E+10 7.943E+10 3.934E+00 8.418E+02 1.490E+04 2.901E+04 4.475E+04 4.475E+04 2.485E+07 30.4600 1.00000
  8.913E+10 8.913E+10 3.952E+00 9.448E+02 1.671E+04 3.322E+04 5.088E+04 5.088E+04 2.506E+07 30.6903 1.00000
  1.000E+11 1.000E+11 3.970E+00 1.060E+03 1.875E+04 3.804E+04 5.785E+04 5.786E+04 2.526E+07 30.9205 1.00000
  1.122E+11 1.122E+11 3.989E+00 1.190E+03 2.104E+04 4.357E+04 6.580E+04 6.580E+04 2.546E+07 31.1508 1.00000
  1.259E+11 1.259E+11 4.007E+00 1.336E+03 2.361E+04 4.990E+04 7.484E+04 7.484E+04 2.565E+07 31.3810 1.00000
  1.413E+11 1.413E+11 4.026E+00 1.499E+03 2.649E+04 5.715E+04 8.514E+04 8.514E+04 2.584E+07 31.6113 1.00000
  1.585E+11 1.585E+11 4.044E+00 1.682E+03 2.972E+04 6.546E+04 9.686E+04 9.687E+04 2.603E+07 31.8415 1.00000
  1.778E+11 1.778E+11 4.063E+00 1.888E+03 3.334E+04 7.498E+04 1.102E+05 1.102E+05 2.622E+07 32.0718 1.00000
  1.995E+11 1.995E+11 4.082E+00 2.118E+03 3.741E+04 8.590E+04 1.254E+05 1.254E+05 2.641E+07 32.3021 1.00000
  2.239E+11 2.239E+11 4.101E+00 2.377E+03 4.198E+04 9.840E+04 1.428E+05 1.428E+05 2.659E+07 32.5323 1.00000
  2.512E+11 2.512E+11 4.120E+00 2.667E+03 4.710E+04 1.127E+05 1.625E+05 1.625E+05 2.677E+07 32.7626 1.00000
  2.818E+11 2.818E+11 4.139E+00 2.993E+03 5.284E+04 1.292E+05 1.850E+05 1.850E+05 2.695E+07 32.9928 1.00000
  3.162E+11 3.162E+11 4.158E+00 3.359E+03 5.929E+04 1.480E+05 2.106E+05 2.106E+05 2.712E+07 33.2231 1.00000
  3.548E+11 3.548E+11 4.178E+00 3.769E+03 6.652E+04 1.696E+05 2.399E+05 2.399E+05 2.729E+07 33.4534 1.00000
  3.981E+11 3.981E+11 4.197E+00 4.229E+03 7.463E+04 1.943E+05 2.732E+05 2.732E+05 2.746E+07 33.6836 1.00000
  4.467E+11 4.467E+11 4.217E+00 4.746E+03 8.374E+04 2.227E+05 3.112E+05 3.112E+05 2.763E+07 33.9139 1.00000
  5.012E+11 5.012E+11 4.237E+00 5.325E+03 9.395E+04 2.552E+05 3.545E+05 3.545E+05 2.779E+07 34.1441 1.00000
  5.623E+11 5.623E+11 4.256E+00 5.975E+03 1.054E+05 2.925E+05 4.039E+05 4.039E+05 2.796E+07 34.3744 1.00000
  6.310E+11 6.310E+11 4.276E+00 6.705E+03 1.183E+05 3.352E+05 4.602E+05 4.602E+05 2.812E+07 34.6046 1.00000
  7.079E+11 7.079E+11 4.296E+00 7.523E+03 1.327E+05 3.842E+05 5.244E+05 5.245E+05 2.827E+07 34.8349 1.00000
  7.943E+11 7.943E+11 4.317E+00 8.442E+03 1.489E+05 4.404E+05 5.977E+05 5.978E+05 2.843E+07 35.0652 1.00000
  8.913E+11 8.913E+11 4.337E+00 9.472E+03 1.670E+05 5.049E+05 6.814E+05 6.814E+05 2.858E+07 35.2954 1.00000
  1.000E+12 1.000E+12 4.357E+00 1.063E+04 1.874E+05 5.788E+05 7.768E+05 7.768E+05 2.873E+07 35.5257 1.00000
  1.122E+12 1.122E+12 4.378E+00 1.193E+04 2.103E+05 6.635E+05 8.857E+05 8.857E+05 2.888E+07 35.7559 1.00000
  1.259E+12 1.259E+12 4.398E+00 1.338E+04 2.359E+05 7.607E+05 1.010E+06 1.010E+06 2.902E+07 35.9862 1.00000
  1.413E+12 1.413E+12 4.419E+00 1.501E+04 2.647E+05 8.722E+05 1.152E+06 1.152E+06 2.916E+07 36.2165 1.00000
  1.585E+12 1.585E+12 4.440E+00 1.685E+04 2.970E+05 1.000E+06 1.314E+06 1.314E+06 2.930E+07 36.4467 1.00000
  1.778E+12 1.778E+12 4.461E+00 1.890E+04 3.332E+05 1.147E+06 1.499E+06 1.499E+06 2.944E+07 36.6770 1.00000
  1.995E+12 1.995E+12 4.482E+00 2.121E+04 3.739E+05 1.315E+06 1.710E+06 1.710E+06 2.958E+07 36.9072 1.00000
  2.239E+12 2.239E+12 4.503E+00 2.380E+04 4.195E+05 1.508E+06 1.951E+06 1.951E+06 2.971E+07 37.1375 1.00000
  2.512E+12 2.512E+12 4.524E+00 2.670E+04 4.706E+05 1.729E+06 2.227E+06 2.227E+06 2.984E+07 37.3677 1.00000
  2.818E+12 2.818E+12 4.546E+00 2.996E+04 5.280E+05 1.983E+06 2.541E+06 2.541E+06 2.997E+07 37.5980 1.00000
  3.162E+12 3.162E+12 4.567E+00 3.362E+04 5.924E+05 2.275E+06 2.901E+06 2.901E+06 3.010E+07 37.8283 1.00000
  3.548E+12 3.548E+12 4.589E+00 3.772E+04 6.647E+05 2.609E+06 3.312E+06 3.312E+06 3.022E+07 38.0585 1.00000
  3.981E+12 3.981E+12 4.611E+00 4.232E+04 7.458E+05 2.993E+06 3.781E+06 3.781E+06 3.035E+07 38.2888 1.00000
  4.467E+12 4.467E+12 4.633E+00 4.749E+04 8.367E+05 3.433E+06 4.318E+06 4.318E+06 3.047E+07 38.5190 1.00000
  5.012E+12 5.012E+12 4.655E+00 5.328E+04 9.388E+05 3.939E+06 4.931E+06 4.931E+06 3.059E+07 38.7493 1.00000
  5.623E+12 5.623E+12 4.677E+00 5.979E+04 1.053E+06 4.519E+06 5.632E+06 5.632E+06 3.070E+07 38.9796 1.00000
  6.310E+12 6.310E+12 4.699E+00 6.708E+04 1.182E+06 5.184E+06 6.433E+06 6.433E+06 3.082E+07 39.2098 1.00000
  7.079E+12 7.079E+12 4.721E+00 7.527E+04 1.326E+06 5.948E+06 7.349E+06 7.349E+06 3.093E+07 39.4401 1.00000
  7.943E+12 7.943E+12 4.744E+00 8.445E+04 1.488E+06 6.825E+06 8.397E+06 8.397E+06 3.104E+07 39.6703 1.00000
  8.913E+12 8.913E+12 4.767E+00 9.476E+04 1.669E+06 7.831E+06 9.595E+06 9.595E+06 3.115E+07 39.9006 1.00000
  1.000E+13 1.000E+13 4.789E+00 1.063E+05 1.873E+06 8.986E+06 1.097E+07 1.097E+07 3.125E+07 40.1309 1.00000
  1.122E+13 1.122E+13 4.812E+00 1.193E+05 2.101E+06 1.031E+07 1.253E+07 1.253E+07 3.136E+07 40.3611 1.00000
  1.259E+13 1.259E+13 4.835E+00 1.338E+05 2.357E+06 1.184E+07 1.433E+07 1.433E+07 3.146E+07 40.5914 1.00000
  1.413E+13 1.413E+13 4.858E+00 1.502E+05 2.645E+06 1.358E+07 1.638E+07 1.638E+07 3.156E+07 40.8216 1.00000
  1.585E+13 1.585E+13 4.882E+00 1.685E+05 2.967E+06 1.559E+07 1.873E+07 1.873E+07 3.166E+07 41.0519 1.00000
  1.778E+13 1.778E+13 4.905E+00 1.891E+05 3.329E+06 1.789E+07 2.141E+07 2.141E+07 3.176E+07 41.2821 1.00000
  1.995E+13 1.995E+13 4.928E+00 2.121E+05 3.735E+06 2.054E+07 2.449E+07 2.449E+07 3.185E+07 41.5124 1.00000
  2.239E+13 2.239E+13 4.952E+00 2.380E+05 4.191E+06 2.358E+07 2.801E+07 2.801E+07 3.194E+07 41.7427 1.00000
  2.512E+13 2.512E+13 4.976E+00 2.671E+05 4.702E+06 2.707E+07 3.203E+07 3.203E+07 3.204E+07 41.9729 1.00000
  2.818E+13 2.818E+13 5.000E+00 2.997E+05 5.275E+06 3.107E+07 3.665E+07 3.665E+07 3.213E+07 42.2032 1.00000
  3.162E+13 3.162E+13 5.024E+00 3.362E+05 5.919E+06 3.567E+07 4.193E+07 4.193E+07 3.221E+07 42.4334 1.00000
  3.548E+13 3.548E+13 5.048E+00 3.772E+05 6.640E+06 4.096E+07 4.797E+07 4.797E+07 3.230E+07 42.6637 1.00000
  3.981E+13 3.981E+13 5.072E+00 4.233E+05 7.450E+06 4.703E+07 5.490E+07 5.490E+07 3.238E+07 42.8940 1.00000
  4.467E+13 4.467E+13 5.097E+00 4.749E+05 8.359E+06 5.400E+07 6.283E+07 6.283E+07 3.247E+07 43.1242 1.00000
  5.012E+13 5.012E+13 5.121E+00 5.329E+05 9.378E+06 6.200E+07 7.192E+07 7.192E+07 3.255E+07 43.3545 1.00000
  5.623E+13 5.623E+13 5.146E+00 5.979E+05 1.052E+07 7.120E+07 8.232E+07 8.232E+07 3.263E+07 43.5847 1.00000
  6.310E+13 6.310E+13 5.171E+00 6.708E+05 1.181E+07 8.177E+07 9.424E+07 9.424E+07 3.271E+07 43.8150 1.00000
  7.079E+13 7.079E+13 5.195E+00 7.527E+05 1.324E+07 9.391E+07 1.079E+08 1.079E+08 3.278E+07 44.0452 1.00000
  7.943E+13 7.943E+13 5.221E+00 8.445E+05 1.486E+07 1.079E+08 1.236E+08 1.236E+08 3.286E+07 44.2755 1.00000
  8.913E+13 8.913E+13 5.246E+00 9.476E+05 1.667E+07 1.239E+08 1.415E+08 1.415E+08 3.293E+07 44.5058 1.00000
