 Incident particle is a Tau with M = 1776.82000 MeV
 Index = 0: CarbonTetrafluoride
      Absorber with <Z/A> = 0.47725
 Sternheimer coef:  a     k=m_s   x_0    x_1    I[eV]   Cbar  delta0
                 0.1855  3.0000  1.7000  4.0000  115.0 10.0858 0.00

 *** Table generated with PUMAS v1.00 ***

      T         p     Ionization  brems     pair     photonuc  Radloss    dE/dx   CSDA Range  delta   beta
    [MeV]    [MeV/c]  -----------------------[MeV cm^2/g]------------------------  [g/cm^2]
  1.000E+05 1.018E+05 2.376E+00 1.591E-04 2.489E-03 8.238E-03 1.089E-02 2.386E+00 2.095E+04  0.1005 0.99985
  1.122E+05 1.140E+05 2.402E+00 1.839E-04 2.999E-03 9.296E-03 1.248E-02 2.415E+00 2.604E+04  0.1924 0.99988
  1.259E+05 1.277E+05 2.429E+00 2.124E-04 3.602E-03 1.043E-02 1.425E-02 2.443E+00 3.167E+04  0.2904 0.99990
  1.413E+05 1.430E+05 2.455E+00 2.452E-04 4.311E-03 1.172E-02 1.627E-02 2.472E+00 3.792E+04  0.3943 0.99992
  1.585E+05 1.603E+05 2.481E+00 2.829E-04 5.145E-03 1.315E-02 1.858E-02 2.500E+00 4.486E+04  0.5041 0.99994
  1.778E+05 1.796E+05 2.507E+00 3.262E-04 6.122E-03 1.475E-02 2.120E-02 2.528E+00 5.255E+04  0.6196 0.99995
  1.995E+05 2.013E+05 2.532E+00 3.761E-04 7.267E-03 1.657E-02 2.421E-02 2.556E+00 6.109E+04  0.7407 0.99996
  2.239E+05 2.256E+05 2.557E+00 4.333E-04 8.605E-03 1.856E-02 2.760E-02 2.584E+00 7.056E+04  0.8672 0.99997
  2.512E+05 2.530E+05 2.581E+00 4.990E-04 1.016E-02 2.079E-02 3.145E-02 2.612E+00 8.107E+04  0.9990 0.99998
  2.818E+05 2.836E+05 2.605E+00 5.744E-04 1.198E-02 2.330E-02 3.585E-02 2.641E+00 9.274E+04  1.1360 0.99998
  3.162E+05 3.180E+05 2.629E+00 6.610E-04 1.409E-02 2.614E-02 4.089E-02 2.670E+00 1.057E+05  1.2781 0.99998
  3.548E+05 3.566E+05 2.652E+00 7.603E-04 1.654E-02 2.932E-02 4.662E-02 2.699E+00 1.201E+05  1.4250 0.99999
  3.981E+05 3.999E+05 2.675E+00 8.741E-04 1.937E-02 3.287E-02 5.312E-02 2.728E+00 1.360E+05  1.5767 0.99999
  4.467E+05 4.485E+05 2.698E+00 1.004E-03 2.265E-02 3.685E-02 6.050E-02 2.758E+00 1.537E+05  1.7330 0.99999
  5.012E+05 5.030E+05 2.720E+00 1.154E-03 2.644E-02 4.133E-02 6.892E-02 2.789E+00 1.734E+05  1.8938 0.99999
  5.623E+05 5.641E+05 2.742E+00 1.325E-03 3.081E-02 4.617E-02 7.831E-02 2.820E+00 1.952E+05  2.0590 1.00000
  6.310E+05 6.327E+05 2.764E+00 1.521E-03 3.584E-02 5.164E-02 8.900E-02 2.853E+00 2.194E+05  2.2283 1.00000
  7.079E+05 7.097E+05 2.785E+00 1.745E-03 4.164E-02 5.780E-02 1.012E-01 2.886E+00 2.462E+05  2.4017 1.00000
  7.943E+05 7.961E+05 2.806E+00 2.002E-03 4.830E-02 6.476E-02 1.151E-01 2.921E+00 2.760E+05  2.5791 1.00000
  8.913E+05 8.930E+05 2.827E+00 2.296E-03 5.594E-02 7.262E-02 1.309E-01 2.957E+00 3.089E+05  2.7602 1.00000
  1.000E+06 1.002E+06 2.847E+00 2.632E-03 6.471E-02 8.151E-02 1.488E-01 2.996E+00 3.455E+05  2.9449 1.00000
  1.122E+06 1.124E+06 2.867E+00 3.016E-03 7.474E-02 9.157E-02 1.693E-01 3.036E+00 3.859E+05  3.1332 1.00000
  1.259E+06 1.261E+06 2.886E+00 3.455E-03 8.623E-02 1.030E-01 1.926E-01 3.079E+00 4.307E+05  3.3248 1.00000
  1.413E+06 1.414E+06 2.905E+00 3.956E-03 9.936E-02 1.159E-01 2.192E-01 3.125E+00 4.802E+05  3.5196 1.00000
  1.585E+06 1.587E+06 2.924E+00 4.530E-03 1.143E-01 1.305E-01 2.494E-01 3.174E+00 5.350E+05  3.7176 1.00000
  1.778E+06 1.780E+06 2.943E+00 5.184E-03 1.314E-01 1.471E-01 2.837E-01 3.227E+00 5.954E+05  3.9184 1.00000
  1.995E+06 1.997E+06 2.961E+00 5.932E-03 1.509E-01 1.659E-01 3.228E-01 3.284E+00 6.621E+05  4.1221 1.00000
  2.239E+06 2.240E+06 2.979E+00 6.786E-03 1.731E-01 1.873E-01 3.672E-01 3.346E+00 7.355E+05  4.3284 1.00000
  2.512E+06 2.514E+06 2.997E+00 7.760E-03 1.983E-01 2.116E-01 4.177E-01 3.414E+00 8.163E+05  4.5372 1.00000
  2.818E+06 2.820E+06 3.014E+00 8.872E-03 2.270E-01 2.393E-01 4.751E-01 3.489E+00 9.051E+05  4.7484 1.00000
  3.162E+06 3.164E+06 3.031E+00 1.014E-02 2.596E-01 2.707E-01 5.404E-01 3.571E+00 1.003E+06  4.9618 1.00000
  3.548E+06 3.550E+06 3.048E+00 1.159E-02 2.965E-01 3.064E-01 6.145E-01 3.662E+00 1.109E+06  5.1774 1.00000
  3.981E+06 3.983E+06 3.064E+00 1.324E-02 3.384E-01 3.470E-01 6.987E-01 3.763E+00 1.226E+06  5.3949 1.00000
  4.467E+06 4.469E+06 3.080E+00 1.512E-02 3.859E-01 3.933E-01 7.943E-01 3.874E+00 1.353E+06  5.6142 1.00000
  5.012E+06 5.014E+06 3.096E+00 1.726E-02 4.397E-01 4.459E-01 9.028E-01 3.999E+00 1.492E+06  5.8352 1.00000
  5.623E+06 5.625E+06 3.112E+00 1.970E-02 5.005E-01 5.058E-01 1.026E+00 4.138E+00 1.642E+06  6.0577 1.00000
  6.310E+06 6.311E+06 3.127E+00 2.248E-02 5.693E-01 5.741E-01 1.166E+00 4.293E+00 1.805E+06  6.2816 1.00000
  7.079E+06 7.081E+06 3.142E+00 2.564E-02 6.471E-01 6.519E-01 1.325E+00 4.467E+00 1.981E+06  6.5068 1.00000
  7.943E+06 7.945E+06 3.157E+00 2.925E-02 7.350E-01 7.405E-01 1.505E+00 4.661E+00 2.170E+06  6.7331 1.00000
  8.913E+06 8.914E+06 3.171E+00 3.335E-02 8.342E-01 8.414E-01 1.709E+00 4.880E+00 2.373E+06  6.9604 1.00000
  1.000E+07 1.000E+07 3.186E+00 3.801E-02 9.462E-01 9.565E-01 1.941E+00 5.126E+00 2.591E+06  7.1885 1.00000
  1.122E+07 1.122E+07 3.200E+00 4.332E-02 1.072E+00 1.088E+00 2.203E+00 5.403E+00 2.823E+06  7.4173 1.00000
  1.259E+07 1.259E+07 3.214E+00 4.935E-02 1.215E+00 1.237E+00 2.501E+00 5.716E+00 3.069E+06  7.6467 1.00000
  1.413E+07 1.413E+07 3.228E+00 5.621E-02 1.375E+00 1.408E+00 2.839E+00 6.067E+00 3.330E+06  7.8764 1.00000
  1.585E+07 1.585E+07 3.242E+00 6.401E-02 1.556E+00 1.602E+00 3.223E+00 6.464E+00 3.605E+06  8.1065 1.00000
  1.778E+07 1.778E+07 3.256E+00 7.286E-02 1.760E+00 1.824E+00 3.657E+00 6.913E+00 3.895E+06  8.3367 1.00000
  1.995E+07 1.995E+07 3.269E+00 8.292E-02 1.989E+00 2.077E+00 4.149E+00 7.419E+00 4.198E+06  8.5670 1.00000
  2.239E+07 2.239E+07 3.283E+00 9.434E-02 2.248E+00 2.366E+00 4.708E+00 7.990E+00 4.515E+06  8.7972 1.00000
  2.512E+07 2.512E+07 3.296E+00 1.073E-01 2.538E+00 2.695E+00 5.341E+00 8.637E+00 4.844E+06  9.0274 1.00000
  2.818E+07 2.819E+07 3.310E+00 1.220E-01 2.865E+00 3.071E+00 6.058E+00 9.368E+00 5.185E+06  9.2577 1.00000
  3.162E+07 3.162E+07 3.323E+00 1.387E-01 3.233E+00 3.500E+00 6.871E+00 1.019E+01 5.537E+06  9.4879 1.00000
  3.548E+07 3.548E+07 3.336E+00 1.576E-01 3.646E+00 3.989E+00 7.793E+00 1.113E+01 5.899E+06  9.7182 1.00000
  3.981E+07 3.981E+07 3.350E+00 1.791E-01 4.111E+00 4.548E+00 8.838E+00 1.219E+01 6.272E+06  9.9484 1.00000
  4.467E+07 4.467E+07 3.363E+00 2.034E-01 4.634E+00 5.185E+00 1.002E+01 1.339E+01 6.652E+06 10.1787 1.00000
  5.012E+07 5.012E+07 3.376E+00 2.309E-01 5.221E+00 5.913E+00 1.137E+01 1.474E+01 7.041E+06 10.4089 1.00000
  5.623E+07 5.624E+07 3.389E+00 2.621E-01 5.881E+00 6.744E+00 1.289E+01 1.628E+01 7.436E+06 10.6392 1.00000
  6.310E+07 6.310E+07 3.403E+00 2.974E-01 6.623E+00 7.693E+00 1.461E+01 1.802E+01 7.837E+06 10.8694 1.00000
  7.079E+07 7.080E+07 3.416E+00 3.375E-01 7.456E+00 8.776E+00 1.657E+01 1.998E+01 8.244E+06 11.0997 1.00000
  7.943E+07 7.943E+07 3.429E+00 3.827E-01 8.391E+00 1.001E+01 1.879E+01 2.222E+01 8.654E+06 11.3299 1.00000
  8.913E+07 8.913E+07 3.442E+00 4.339E-01 9.442E+00 1.142E+01 2.130E+01 2.474E+01 9.068E+06 11.5602 1.00000
  1.000E+08 1.000E+08 3.456E+00 4.919E-01 1.062E+01 1.304E+01 2.415E+01 2.761E+01 9.485E+06 11.7904 1.00000
  1.122E+08 1.122E+08 3.469E+00 5.574E-01 1.195E+01 1.488E+01 2.738E+01 3.085E+01 9.904E+06 12.0207 1.00000
  1.259E+08 1.259E+08 3.483E+00 6.314E-01 1.344E+01 1.698E+01 3.105E+01 3.453E+01 1.032E+07 12.2509 1.00000
  1.413E+08 1.413E+08 3.496E+00 7.151E-01 1.511E+01 1.938E+01 3.521E+01 3.870E+01 1.074E+07 12.4812 1.00000
  1.585E+08 1.585E+08 3.509E+00 8.096E-01 1.698E+01 2.213E+01 3.992E+01 4.343E+01 1.117E+07 12.7115 1.00000
  1.778E+08 1.778E+08 3.523E+00 9.164E-01 1.909E+01 2.526E+01 4.527E+01 4.879E+01 1.159E+07 12.9417 1.00000
  1.995E+08 1.995E+08 3.536E+00 1.037E+00 2.145E+01 2.884E+01 5.133E+01 5.487E+01 1.201E+07 13.1720 1.00000
  2.239E+08 2.239E+08 3.550E+00 1.173E+00 2.411E+01 3.293E+01 5.821E+01 6.176E+01 1.243E+07 13.4022 1.00000
  2.512E+08 2.512E+08 3.564E+00 1.327E+00 2.709E+01 3.761E+01 6.602E+01 6.958E+01 1.284E+07 13.6325 1.00000
  2.818E+08 2.818E+08 3.577E+00 1.500E+00 3.043E+01 4.295E+01 7.488E+01 7.845E+01 1.326E+07 13.8627 1.00000
  3.162E+08 3.162E+08 3.591E+00 1.696E+00 3.418E+01 4.905E+01 8.493E+01 8.852E+01 1.367E+07 14.0930 1.00000
  3.548E+08 3.548E+08 3.605E+00 1.916E+00 3.839E+01 5.602E+01 9.633E+01 9.993E+01 1.408E+07 14.3233 1.00000
  3.981E+08 3.981E+08 3.619E+00 2.165E+00 4.312E+01 6.399E+01 1.093E+02 1.129E+02 1.449E+07 14.5535 1.00000
  4.467E+08 4.467E+08 3.633E+00 2.445E+00 4.843E+01 7.309E+01 1.240E+02 1.276E+02 1.490E+07 14.7838 1.00000
  5.012E+08 5.012E+08 3.647E+00 2.760E+00 5.438E+01 8.349E+01 1.406E+02 1.443E+02 1.530E+07 15.0140 1.00000
  5.623E+08 5.623E+08 3.661E+00 3.116E+00 6.106E+01 9.539E+01 1.596E+02 1.632E+02 1.570E+07 15.2443 1.00000
  6.310E+08 6.310E+08 3.675E+00 3.517E+00 6.856E+01 1.090E+02 1.811E+02 1.847E+02 1.609E+07 15.4745 1.00000
  7.079E+08 7.079E+08 3.689E+00 3.968E+00 7.697E+01 1.245E+02 2.055E+02 2.091E+02 1.649E+07 15.7048 1.00000
  7.943E+08 7.943E+08 3.704E+00 4.476E+00 8.641E+01 1.423E+02 2.332E+02 2.369E+02 1.688E+07 15.9351 1.00000
  8.913E+08 8.913E+08 3.718E+00 5.048E+00 9.701E+01 1.626E+02 2.646E+02 2.684E+02 1.726E+07 16.1653 1.00000
  1.000E+09 1.000E+09 3.733E+00 5.692E+00 1.089E+02 1.858E+02 3.004E+02 3.041E+02 1.764E+07 16.3956 1.00000
  1.122E+09 1.122E+09 3.747E+00 6.417E+00 1.222E+02 2.123E+02 3.410E+02 3.447E+02 1.802E+07 16.6258 1.00000
  1.259E+09 1.259E+09 3.762E+00 7.232E+00 1.372E+02 2.427E+02 3.871E+02 3.909E+02 1.839E+07 16.8561 1.00000
  1.413E+09 1.413E+09 3.777E+00 8.149E+00 1.540E+02 2.773E+02 4.395E+02 4.433E+02 1.876E+07 17.0863 1.00000
  1.585E+09 1.585E+09 3.791E+00 9.181E+00 1.729E+02 3.170E+02 4.990E+02 5.028E+02 1.913E+07 17.3166 1.00000
  1.778E+09 1.778E+09 3.806E+00 1.034E+01 1.940E+02 3.624E+02 5.667E+02 5.705E+02 1.949E+07 17.5469 1.00000
  1.995E+09 1.995E+09 3.821E+00 1.164E+01 2.177E+02 4.142E+02 6.436E+02 6.474E+02 1.985E+07 17.7771 1.00000
  2.239E+09 2.239E+09 3.836E+00 1.311E+01 2.444E+02 4.735E+02 7.310E+02 7.349E+02 2.020E+07 18.0074 1.00000
  2.512E+09 2.512E+09 3.851E+00 1.476E+01 2.742E+02 5.414E+02 8.304E+02 8.342E+02 2.055E+07 18.2376 1.00000
  2.818E+09 2.818E+09 3.866E+00 1.661E+01 3.078E+02 6.190E+02 9.434E+02 9.472E+02 2.090E+07 18.4679 1.00000
  3.162E+09 3.162E+09 3.882E+00 1.869E+01 3.454E+02 7.077E+02 1.072E+03 1.076E+03 2.124E+07 18.6982 1.00000
  3.548E+09 3.548E+09 3.897E+00 2.103E+01 3.876E+02 8.093E+02 1.218E+03 1.222E+03 2.158E+07 18.9284 1.00000
  3.981E+09 3.981E+09 3.913E+00 2.366E+01 4.349E+02 9.254E+02 1.384E+03 1.388E+03 2.191E+07 19.1587 1.00000
  4.467E+09 4.467E+09 3.928E+00 2.662E+01 4.881E+02 1.058E+03 1.573E+03 1.577E+03 2.224E+07 19.3889 1.00000
  5.012E+09 5.012E+09 3.944E+00 2.994E+01 5.477E+02 1.210E+03 1.788E+03 1.792E+03 2.256E+07 19.6192 1.00000
  5.623E+09 5.623E+09 3.959E+00 3.366E+01 6.146E+02 1.384E+03 2.032E+03 2.036E+03 2.288E+07 19.8494 1.00000
  6.310E+09 6.310E+09 3.975E+00 3.785E+01 6.896E+02 1.583E+03 2.311E+03 2.315E+03 2.320E+07 20.0797 1.00000
  7.079E+09 7.079E+09 3.991E+00 4.255E+01 7.739E+02 1.811E+03 2.627E+03 2.631E+03 2.351E+07 20.3100 1.00000
  7.943E+09 7.943E+09 4.007E+00 4.783E+01 8.684E+02 2.071E+03 2.987E+03 2.991E+03 2.382E+07 20.5402 1.00000
  8.913E+09 8.913E+09 4.023E+00 5.376E+01 9.744E+02 2.369E+03 3.398E+03 3.402E+03 2.413E+07 20.7705 1.00000
  1.000E+10 1.000E+10 4.039E+00 6.042E+01 1.093E+03 2.711E+03 3.864E+03 3.868E+03 2.443E+07 21.0007 1.00000
  1.122E+10 1.122E+10 4.056E+00 6.789E+01 1.227E+03 3.101E+03 4.396E+03 4.400E+03 2.472E+07 21.2310 1.00000
  1.259E+10 1.259E+10 4.072E+00 7.628E+01 1.377E+03 3.548E+03 5.001E+03 5.005E+03 2.502E+07 21.4613 1.00000
  1.413E+10 1.413E+10 4.088E+00 8.571E+01 1.545E+03 4.059E+03 5.690E+03 5.694E+03 2.530E+07 21.6915 1.00000
  1.585E+10 1.585E+10 4.105E+00 9.628E+01 1.733E+03 4.645E+03 6.474E+03 6.478E+03 2.559E+07 21.9218 1.00000
  1.778E+10 1.778E+10 4.121E+00 1.082E+02 1.945E+03 5.315E+03 7.368E+03 7.372E+03 2.587E+07 22.1520 1.00000
  1.995E+10 1.995E+10 4.138E+00 1.215E+02 2.182E+03 6.082E+03 8.386E+03 8.390E+03 2.615E+07 22.3823 1.00000
  2.239E+10 2.239E+10 4.155E+00 1.364E+02 2.448E+03 6.961E+03 9.545E+03 9.549E+03 2.642E+07 22.6126 1.00000
  2.512E+10 2.512E+10 4.172E+00 1.532E+02 2.747E+03 7.966E+03 1.087E+04 1.087E+04 2.669E+07 22.8428 1.00000
  2.818E+10 2.818E+10 4.189E+00 1.721E+02 3.082E+03 9.117E+03 1.237E+04 1.238E+04 2.695E+07 23.0731 1.00000
  3.162E+10 3.162E+10 4.206E+00 1.932E+02 3.458E+03 1.044E+04 1.409E+04 1.409E+04 2.721E+07 23.3033 1.00000
  3.548E+10 3.548E+10 4.223E+00 2.170E+02 3.880E+03 1.195E+04 1.604E+04 1.605E+04 2.747E+07 23.5336 1.00000
  3.981E+10 3.981E+10 4.240E+00 2.436E+02 4.354E+03 1.367E+04 1.827E+04 1.828E+04 2.772E+07 23.7638 1.00000
  4.467E+10 4.467E+10 4.258E+00 2.735E+02 4.885E+03 1.565E+04 2.081E+04 2.082E+04 2.797E+07 23.9941 1.00000
  5.012E+10 5.012E+10 4.275E+00 3.071E+02 5.481E+03 1.792E+04 2.371E+04 2.371E+04 2.822E+07 24.2244 1.00000
  5.623E+10 5.623E+10 4.293E+00 3.447E+02 6.150E+03 2.052E+04 2.701E+04 2.702E+04 2.846E+07 24.4546 1.00000
  6.310E+10 6.310E+10 4.311E+00 3.870E+02 6.900E+03 2.349E+04 3.078E+04 3.078E+04 2.870E+07 24.6849 1.00000
  7.079E+10 7.079E+10 4.328E+00 4.344E+02 7.742E+03 2.690E+04 3.507E+04 3.508E+04 2.893E+07 24.9151 1.00000
  7.943E+10 7.943E+10 4.346E+00 4.877E+02 8.686E+03 3.080E+04 3.997E+04 3.998E+04 2.916E+07 25.1454 1.00000
  8.913E+10 8.913E+10 4.364E+00 5.474E+02 9.746E+03 3.527E+04 4.556E+04 4.557E+04 2.939E+07 25.3757 1.00000
  1.000E+11 1.000E+11 4.382E+00 6.144E+02 1.094E+04 4.039E+04 5.194E+04 5.194E+04 2.962E+07 25.6059 1.00000
  1.122E+11 1.122E+11 4.400E+00 6.896E+02 1.227E+04 4.625E+04 5.921E+04 5.922E+04 2.984E+07 25.8362 1.00000
  1.259E+11 1.259E+11 4.419E+00 7.740E+02 1.377E+04 5.298E+04 6.752E+04 6.752E+04 3.005E+07 26.0664 1.00000
  1.413E+11 1.413E+11 4.437E+00 8.687E+02 1.545E+04 6.068E+04 7.699E+04 7.700E+04 3.027E+07 26.2967 1.00000
  1.585E+11 1.585E+11 4.456E+00 9.749E+02 1.733E+04 6.950E+04 8.780E+04 8.781E+04 3.048E+07 26.5269 1.00000
  1.778E+11 1.778E+11 4.474E+00 1.094E+03 1.944E+04 7.961E+04 1.001E+05 1.002E+05 3.068E+07 26.7572 1.00000
  1.995E+11 1.995E+11 4.493E+00 1.228E+03 2.182E+04 9.120E+04 1.142E+05 1.142E+05 3.089E+07 26.9875 1.00000
  2.239E+11 2.239E+11 4.512E+00 1.378E+03 2.448E+04 1.045E+05 1.303E+05 1.303E+05 3.109E+07 27.2177 1.00000
  2.512E+11 2.512E+11 4.531E+00 1.546E+03 2.746E+04 1.197E+05 1.487E+05 1.487E+05 3.128E+07 27.4480 1.00000
  2.818E+11 2.818E+11 4.550E+00 1.735E+03 3.081E+04 1.371E+05 1.697E+05 1.697E+05 3.148E+07 27.6782 1.00000
  3.162E+11 3.162E+11 4.569E+00 1.948E+03 3.457E+04 1.571E+05 1.936E+05 1.937E+05 3.167E+07 27.9085 1.00000
  3.548E+11 3.548E+11 4.588E+00 2.185E+03 3.879E+04 1.800E+05 2.210E+05 2.210E+05 3.185E+07 28.1388 1.00000
  3.981E+11 3.981E+11 4.607E+00 2.452E+03 4.352E+04 2.063E+05 2.523E+05 2.523E+05 3.204E+07 28.3690 1.00000
  4.467E+11 4.467E+11 4.627E+00 2.752E+03 4.883E+04 2.364E+05 2.880E+05 2.880E+05 3.222E+07 28.5993 1.00000
  5.012E+11 5.012E+11 4.646E+00 3.088E+03 5.479E+04 2.709E+05 3.288E+05 3.288E+05 3.240E+07 28.8295 1.00000
  5.623E+11 5.623E+11 4.666E+00 3.465E+03 6.147E+04 3.105E+05 3.755E+05 3.755E+05 3.257E+07 29.0598 1.00000
  6.310E+11 6.310E+11 4.686E+00 3.889E+03 6.897E+04 3.559E+05 4.288E+05 4.288E+05 3.274E+07 29.2900 1.00000
  7.079E+11 7.079E+11 4.706E+00 4.363E+03 7.738E+04 4.079E+05 4.897E+05 4.897E+05 3.291E+07 29.5203 1.00000
  7.943E+11 7.943E+11 4.726E+00 4.896E+03 8.682E+04 4.676E+05 5.593E+05 5.593E+05 3.308E+07 29.7506 1.00000
  8.913E+11 8.913E+11 4.746E+00 5.494E+03 9.741E+04 5.360E+05 6.389E+05 6.389E+05 3.324E+07 29.9808 1.00000
  1.000E+12 1.000E+12 4.766E+00 6.165E+03 1.093E+05 6.145E+05 7.299E+05 7.299E+05 3.340E+07 30.2111 1.00000
  1.122E+12 1.122E+12 4.786E+00 6.917E+03 1.226E+05 7.044E+05 8.340E+05 8.340E+05 3.355E+07 30.4413 1.00000
  1.259E+12 1.259E+12 4.807E+00 7.762E+03 1.376E+05 8.076E+05 9.530E+05 9.530E+05 3.371E+07 30.6716 1.00000
  1.413E+12 1.413E+12 4.827E+00 8.709E+03 1.544E+05 9.260E+05 1.089E+06 1.089E+06 3.386E+07 30.9019 1.00000
  1.585E+12 1.585E+12 4.848E+00 9.772E+03 1.732E+05 1.062E+06 1.245E+06 1.245E+06 3.401E+07 31.1321 1.00000
  1.778E+12 1.778E+12 4.869E+00 1.096E+04 1.943E+05 1.217E+06 1.423E+06 1.423E+06 3.415E+07 31.3624 1.00000
  1.995E+12 1.995E+12 4.890E+00 1.230E+04 2.180E+05 1.396E+06 1.626E+06 1.626E+06 3.430E+07 31.5926 1.00000
  2.239E+12 2.239E+12 4.911E+00 1.380E+04 2.446E+05 1.601E+06 1.859E+06 1.859E+06 3.444E+07 31.8229 1.00000
  2.512E+12 2.512E+12 4.932E+00 1.549E+04 2.744E+05 1.836E+06 2.126E+06 2.126E+06 3.457E+07 32.0531 1.00000
  2.818E+12 2.818E+12 4.953E+00 1.738E+04 3.079E+05 2.106E+06 2.431E+06 2.431E+06 3.471E+07 32.2834 1.00000
  3.162E+12 3.162E+12 4.975E+00 1.950E+04 3.455E+05 2.415E+06 2.780E+06 2.780E+06 3.484E+07 32.5137 1.00000
  3.548E+12 3.548E+12 4.996E+00 2.188E+04 3.876E+05 2.770E+06 3.180E+06 3.180E+06 3.497E+07 32.7439 1.00000
  3.981E+12 3.981E+12 5.018E+00 2.455E+04 4.349E+05 3.178E+06 3.637E+06 3.637E+06 3.510E+07 32.9742 1.00000
  4.467E+12 4.467E+12 5.039E+00 2.755E+04 4.879E+05 3.645E+06 4.161E+06 4.161E+06 3.522E+07 33.2044 1.00000
  5.012E+12 5.012E+12 5.061E+00 3.091E+04 5.474E+05 4.182E+06 4.760E+06 4.760E+06 3.535E+07 33.4347 1.00000
  5.623E+12 5.623E+12 5.083E+00 3.468E+04 6.142E+05 4.797E+06 5.446E+06 5.446E+06 3.547E+07 33.6650 1.00000
  6.310E+12 6.310E+12 5.105E+00 3.891E+04 6.891E+05 5.504E+06 6.232E+06 6.232E+06 3.559E+07 33.8952 1.00000
  7.079E+12 7.079E+12 5.127E+00 4.366E+04 7.731E+05 6.315E+06 7.132E+06 7.132E+06 3.570E+07 34.1255 1.00000
  7.943E+12 7.943E+12 5.150E+00 4.899E+04 8.674E+05 7.246E+06 8.162E+06 8.162E+06 3.582E+07 34.3557 1.00000
  8.913E+12 8.913E+12 5.172E+00 5.497E+04 9.732E+05 8.314E+06 9.343E+06 9.343E+06 3.593E+07 34.5860 1.00000
  1.000E+13 1.000E+13 5.195E+00 6.168E+04 1.092E+06 9.541E+06 1.069E+07 1.069E+07 3.604E+07 34.8163 1.00000
  1.122E+13 1.122E+13 5.217E+00 6.920E+04 1.225E+06 1.095E+07 1.224E+07 1.224E+07 3.614E+07 35.0465 1.00000
  1.259E+13 1.259E+13 5.240E+00 7.765E+04 1.375E+06 1.257E+07 1.402E+07 1.402E+07 3.625E+07 35.2768 1.00000
  1.413E+13 1.413E+13 5.263E+00 8.712E+04 1.542E+06 1.442E+07 1.605E+07 1.605E+07 3.635E+07 35.5070 1.00000
  1.585E+13 1.585E+13 5.286E+00 9.775E+04 1.730E+06 1.655E+07 1.838E+07 1.838E+07 3.645E+07 35.7373 1.00000
  1.778E+13 1.778E+13 5.310E+00 1.097E+05 1.941E+06 1.900E+07 2.105E+07 2.105E+07 3.655E+07 35.9675 1.00000
  1.995E+13 1.995E+13 5.333E+00 1.231E+05 2.178E+06 2.181E+07 2.411E+07 2.411E+07 3.665E+07 36.1978 1.00000
  2.239E+13 2.239E+13 5.356E+00 1.381E+05 2.444E+06 2.503E+07 2.761E+07 2.761E+07 3.674E+07 36.4281 1.00000
  2.512E+13 2.512E+13 5.380E+00 1.549E+05 2.742E+06 2.874E+07 3.163E+07 3.163E+07 3.683E+07 36.6583 1.00000
  2.818E+13 2.818E+13 5.404E+00 1.738E+05 3.076E+06 3.299E+07 3.624E+07 3.624E+07 3.692E+07 36.8886 1.00000
  3.162E+13 3.162E+13 5.427E+00 1.950E+05 3.451E+06 3.787E+07 4.152E+07 4.152E+07 3.701E+07 37.1188 1.00000
  3.548E+13 3.548E+13 5.451E+00 2.188E+05 3.872E+06 4.348E+07 4.758E+07 4.758E+07 3.710E+07 37.3491 1.00000
  3.981E+13 3.981E+13 5.475E+00 2.455E+05 4.344E+06 4.993E+07 5.452E+07 5.452E+07 3.718E+07 37.5794 1.00000
  4.467E+13 4.467E+13 5.500E+00 2.755E+05 4.874E+06 5.733E+07 6.248E+07 6.248E+07 3.727E+07 37.8096 1.00000
  5.012E+13 5.012E+13 5.524E+00 3.091E+05 5.469E+06 6.583E+07 7.161E+07 7.161E+07 3.735E+07 38.0399 1.00000
  5.623E+13 5.623E+13 5.548E+00 3.468E+05 6.136E+06 7.560E+07 8.208E+07 8.208E+07 3.743E+07 38.2701 1.00000
  6.310E+13 6.310E+13 5.573E+00 3.892E+05 6.884E+06 8.681E+07 9.409E+07 9.409E+07 3.751E+07 38.5004 1.00000
  7.079E+13 7.079E+13 5.598E+00 4.367E+05 7.723E+06 9.970E+07 1.079E+08 1.079E+08 3.758E+07 38.7306 1.00000
  7.943E+13 7.943E+13 5.623E+00 4.899E+05 8.665E+06 1.145E+08 1.237E+08 1.237E+08 3.766E+07 38.9609 1.00000
  8.913E+13 8.913E+13 5.648E+00 5.497E+05 9.722E+06 1.315E+08 1.418E+08 1.418E+08 3.773E+07 39.1912 1.00000
