 Incident particle is a Tau with M = 1776.82000 MeV
 Index = 0: CarbonDioxideGas
      Absorber with <Z/A> = 0.49989
 Sternheimer coef:  a     k=m_s   x_0    x_1    I[eV]   Cbar  delta0
                 0.1177  3.3227  1.6294  4.1825   85.0 10.1537 0.00

 *** Table generated with PUMAS v1.00 ***

      T         p     Ionization  brems     pair     photonuc  Radloss    dE/dx   CSDA Range  delta   beta
    [MeV]    [MeV/c]  -----------------------[MeV cm^2/g]------------------------  [g/cm^2]
  1.000E+05 1.018E+05 2.529E+00 1.470E-04 2.283E-03 8.295E-03 1.073E-02 2.540E+00 1.969E+04  0.1744 0.99985
  1.122E+05 1.140E+05 2.558E+00 1.698E-04 2.754E-03 9.365E-03 1.229E-02 2.570E+00 2.446E+04  0.2540 0.99988
  1.259E+05 1.277E+05 2.587E+00 1.961E-04 3.310E-03 1.052E-02 1.402E-02 2.601E+00 2.976E+04  0.3406 0.99990
  1.413E+05 1.430E+05 2.615E+00 2.263E-04 3.965E-03 1.181E-02 1.600E-02 2.631E+00 3.563E+04  0.4341 0.99992
  1.585E+05 1.603E+05 2.643E+00 2.611E-04 4.735E-03 1.326E-02 1.826E-02 2.661E+00 4.214E+04  0.5343 0.99994
  1.778E+05 1.796E+05 2.670E+00 3.010E-04 5.639E-03 1.488E-02 2.082E-02 2.691E+00 4.937E+04  0.6410 0.99995
  1.995E+05 2.013E+05 2.697E+00 3.469E-04 6.697E-03 1.673E-02 2.377E-02 2.721E+00 5.739E+04  0.7541 0.99996
  2.239E+05 2.256E+05 2.724E+00 3.997E-04 7.934E-03 1.875E-02 2.708E-02 2.751E+00 6.629E+04  0.8734 0.99997
  2.512E+05 2.530E+05 2.750E+00 4.602E-04 9.376E-03 2.101E-02 3.084E-02 2.781E+00 7.617E+04  0.9986 0.99998
  2.818E+05 2.836E+05 2.776E+00 5.297E-04 1.106E-02 2.355E-02 3.514E-02 2.811E+00 8.713E+04  1.1297 0.99998
  3.162E+05 3.180E+05 2.801E+00 6.094E-04 1.301E-02 2.643E-02 4.005E-02 2.841E+00 9.930E+04  1.2664 0.99998
  3.548E+05 3.566E+05 2.826E+00 7.008E-04 1.527E-02 2.966E-02 4.563E-02 2.871E+00 1.128E+05  1.4085 0.99999
  3.981E+05 3.999E+05 2.850E+00 8.056E-04 1.790E-02 3.326E-02 5.197E-02 2.902E+00 1.278E+05  1.5560 0.99999
  4.467E+05 4.485E+05 2.874E+00 9.258E-04 2.094E-02 3.731E-02 5.917E-02 2.933E+00 1.445E+05  1.7085 0.99999
  5.012E+05 5.030E+05 2.898E+00 1.063E-03 2.445E-02 4.185E-02 6.736E-02 2.965E+00 1.629E+05  1.8659 0.99999
  5.623E+05 5.641E+05 2.921E+00 1.221E-03 2.850E-02 4.678E-02 7.650E-02 2.998E+00 1.835E+05  2.0280 1.00000
  6.310E+05 6.327E+05 2.944E+00 1.401E-03 3.316E-02 5.233E-02 8.690E-02 3.031E+00 2.062E+05  2.1946 1.00000
  7.079E+05 7.097E+05 2.966E+00 1.608E-03 3.854E-02 5.860E-02 9.874E-02 3.065E+00 2.315E+05  2.3657 1.00000
  7.943E+05 7.961E+05 2.988E+00 1.845E-03 4.471E-02 6.567E-02 1.122E-01 3.101E+00 2.595E+05  2.5409 1.00000
  8.913E+05 8.930E+05 3.010E+00 2.115E-03 5.181E-02 7.367E-02 1.276E-01 3.138E+00 2.906E+05  2.7201 1.00000
  1.000E+06 1.002E+06 3.031E+00 2.424E-03 5.994E-02 8.271E-02 1.451E-01 3.176E+00 3.250E+05  2.9032 1.00000
  1.122E+06 1.124E+06 3.052E+00 2.778E-03 6.926E-02 9.295E-02 1.650E-01 3.217E+00 3.632E+05  3.0900 1.00000
  1.259E+06 1.261E+06 3.073E+00 3.183E-03 7.993E-02 1.045E-01 1.877E-01 3.261E+00 4.055E+05  3.2803 1.00000
  1.413E+06 1.414E+06 3.093E+00 3.645E-03 9.213E-02 1.177E-01 2.134E-01 3.307E+00 4.522E+05  3.4739 1.00000
  1.585E+06 1.587E+06 3.113E+00 4.173E-03 1.061E-01 1.326E-01 2.428E-01 3.356E+00 5.040E+05  3.6706 1.00000
  1.778E+06 1.780E+06 3.133E+00 4.777E-03 1.220E-01 1.495E-01 2.762E-01 3.409E+00 5.612E+05  3.8704 1.00000
  1.995E+06 1.997E+06 3.152E+00 5.466E-03 1.401E-01 1.686E-01 3.142E-01 3.466E+00 6.243E+05  4.0731 1.00000
  2.239E+06 2.240E+06 3.171E+00 6.253E-03 1.607E-01 1.904E-01 3.574E-01 3.528E+00 6.939E+05  4.2784 1.00000
  2.512E+06 2.514E+06 3.189E+00 7.152E-03 1.842E-01 2.152E-01 4.065E-01 3.596E+00 7.706E+05  4.4863 1.00000
  2.818E+06 2.820E+06 3.207E+00 8.177E-03 2.109E-01 2.433E-01 4.624E-01 3.670E+00 8.550E+05  4.6965 1.00000
  3.162E+06 3.164E+06 3.225E+00 9.347E-03 2.412E-01 2.753E-01 5.258E-01 3.751E+00 9.477E+05  4.9090 1.00000
  3.548E+06 3.550E+06 3.243E+00 1.068E-02 2.756E-01 3.117E-01 5.980E-01 3.841E+00 1.049E+06  5.1235 1.00000
  3.981E+06 3.983E+06 3.260E+00 1.220E-02 3.147E-01 3.530E-01 6.799E-01 3.940E+00 1.161E+06  5.3400 1.00000
  4.467E+06 4.469E+06 3.277E+00 1.394E-02 3.589E-01 4.001E-01 7.730E-01 4.050E+00 1.282E+06  5.5583 1.00000
  5.012E+06 5.014E+06 3.294E+00 1.592E-02 4.090E-01 4.538E-01 8.787E-01 4.172E+00 1.415E+06  5.7782 1.00000
  5.623E+06 5.625E+06 3.310E+00 1.817E-02 4.657E-01 5.148E-01 9.987E-01 4.309E+00 1.559E+06  5.9997 1.00000
  6.310E+06 6.311E+06 3.326E+00 2.074E-02 5.299E-01 5.843E-01 1.135E+00 4.461E+00 1.716E+06  6.2225 1.00000
  7.079E+06 7.081E+06 3.342E+00 2.367E-02 6.025E-01 6.636E-01 1.290E+00 4.632E+00 1.885E+06  6.4465 1.00000
  7.943E+06 7.945E+06 3.358E+00 2.700E-02 6.844E-01 7.538E-01 1.465E+00 4.823E+00 2.068E+06  6.6717 1.00000
  8.913E+06 8.914E+06 3.373E+00 3.079E-02 7.770E-01 8.567E-01 1.664E+00 5.037E+00 2.265E+06  6.8979 1.00000
  1.000E+07 1.000E+07 3.388E+00 3.510E-02 8.815E-01 9.739E-01 1.891E+00 5.279E+00 2.476E+06  7.1249 1.00000
  1.122E+07 1.122E+07 3.403E+00 4.001E-02 9.995E-01 1.108E+00 2.147E+00 5.550E+00 2.701E+06  7.3527 1.00000
  1.259E+07 1.259E+07 3.418E+00 4.559E-02 1.132E+00 1.260E+00 2.438E+00 5.856E+00 2.941E+06  7.5811 1.00000
  1.413E+07 1.413E+07 3.433E+00 5.194E-02 1.282E+00 1.434E+00 2.768E+00 6.201E+00 3.196E+06  7.8101 1.00000
  1.585E+07 1.585E+07 3.447E+00 5.915E-02 1.451E+00 1.632E+00 3.142E+00 6.589E+00 3.466E+06  8.0395 1.00000
  1.778E+07 1.778E+07 3.462E+00 6.735E-02 1.642E+00 1.858E+00 3.567E+00 7.028E+00 3.750E+06  8.2692 1.00000
  1.995E+07 1.995E+07 3.476E+00 7.667E-02 1.856E+00 2.116E+00 4.048E+00 7.524E+00 4.049E+06  8.4992 1.00000
  2.239E+07 2.239E+07 3.490E+00 8.724E-02 2.097E+00 2.410E+00 4.594E+00 8.084E+00 4.361E+06  8.7293 1.00000
  2.512E+07 2.512E+07 3.504E+00 9.925E-02 2.369E+00 2.745E+00 5.213E+00 8.718E+00 4.687E+06  8.9595 1.00000
  2.818E+07 2.819E+07 3.518E+00 1.129E-01 2.675E+00 3.128E+00 5.916E+00 9.434E+00 5.025E+06  9.1898 1.00000
  3.162E+07 3.162E+07 3.532E+00 1.283E-01 3.018E+00 3.565E+00 6.712E+00 1.024E+01 5.375E+06  9.4200 1.00000
  3.548E+07 3.548E+07 3.546E+00 1.459E-01 3.405E+00 4.064E+00 7.614E+00 1.116E+01 5.736E+06  9.6503 1.00000
  3.981E+07 3.981E+07 3.560E+00 1.658E-01 3.840E+00 4.633E+00 8.638E+00 1.220E+01 6.108E+06  9.8805 1.00000
  4.467E+07 4.467E+07 3.574E+00 1.883E-01 4.328E+00 5.282E+00 9.799E+00 1.337E+01 6.489E+06 10.1108 1.00000
  5.012E+07 5.012E+07 3.588E+00 2.139E-01 4.878E+00 6.024E+00 1.112E+01 1.470E+01 6.878E+06 10.3410 1.00000
  5.623E+07 5.624E+07 3.602E+00 2.428E-01 5.495E+00 6.870E+00 1.261E+01 1.621E+01 7.274E+06 10.5713 1.00000
  6.310E+07 6.310E+07 3.616E+00 2.756E-01 6.188E+00 7.837E+00 1.430E+01 1.792E+01 7.677E+06 10.8015 1.00000
  7.079E+07 7.080E+07 3.630E+00 3.128E-01 6.968E+00 8.940E+00 1.622E+01 1.985E+01 8.086E+06 11.0318 1.00000
  7.943E+07 7.943E+07 3.643E+00 3.548E-01 7.843E+00 1.020E+01 1.840E+01 2.204E+01 8.500E+06 11.2620 1.00000
  8.913E+07 8.913E+07 3.657E+00 4.024E-01 8.826E+00 1.164E+01 2.087E+01 2.453E+01 8.917E+06 11.4923 1.00000
  1.000E+08 1.000E+08 3.671E+00 4.562E-01 9.931E+00 1.328E+01 2.367E+01 2.734E+01 9.338E+06 11.7225 1.00000
  1.122E+08 1.122E+08 3.685E+00 5.171E-01 1.117E+01 1.516E+01 2.685E+01 3.053E+01 9.761E+06 11.9528 1.00000
  1.259E+08 1.259E+08 3.699E+00 5.859E-01 1.256E+01 1.730E+01 3.045E+01 3.415E+01 1.019E+07 12.1830 1.00000
  1.413E+08 1.413E+08 3.713E+00 6.637E-01 1.413E+01 1.975E+01 3.454E+01 3.825E+01 1.061E+07 12.4133 1.00000
  1.585E+08 1.585E+08 3.728E+00 7.517E-01 1.588E+01 2.254E+01 3.918E+01 4.291E+01 1.104E+07 12.6436 1.00000
  1.778E+08 1.778E+08 3.742E+00 8.510E-01 1.785E+01 2.574E+01 4.444E+01 4.818E+01 1.146E+07 12.8738 1.00000
  1.995E+08 1.995E+08 3.756E+00 9.632E-01 2.007E+01 2.939E+01 5.041E+01 5.417E+01 1.189E+07 13.1041 1.00000
  2.239E+08 2.239E+08 3.770E+00 1.090E+00 2.255E+01 3.355E+01 5.719E+01 6.096E+01 1.231E+07 13.3343 1.00000
  2.512E+08 2.512E+08 3.784E+00 1.233E+00 2.534E+01 3.832E+01 6.488E+01 6.867E+01 1.274E+07 13.5646 1.00000
  2.818E+08 2.818E+08 3.799E+00 1.394E+00 2.847E+01 4.376E+01 7.362E+01 7.741E+01 1.316E+07 13.7948 1.00000
  3.162E+08 3.162E+08 3.813E+00 1.576E+00 3.198E+01 4.997E+01 8.353E+01 8.734E+01 1.358E+07 14.0251 1.00000
  3.548E+08 3.548E+08 3.828E+00 1.782E+00 3.592E+01 5.708E+01 9.478E+01 9.860E+01 1.399E+07 14.2554 1.00000
  3.981E+08 3.981E+08 3.842E+00 2.013E+00 4.034E+01 6.519E+01 1.075E+02 1.114E+02 1.441E+07 14.4856 1.00000
  4.467E+08 4.467E+08 3.857E+00 2.274E+00 4.531E+01 7.447E+01 1.220E+02 1.259E+02 1.482E+07 14.7159 1.00000
  5.012E+08 5.012E+08 3.872E+00 2.569E+00 5.088E+01 8.507E+01 1.385E+02 1.424E+02 1.523E+07 14.9461 1.00000
  5.623E+08 5.623E+08 3.886E+00 2.900E+00 5.713E+01 9.719E+01 1.572E+02 1.611E+02 1.563E+07 15.1764 1.00000
  6.310E+08 6.310E+08 3.901E+00 3.274E+00 6.415E+01 1.110E+02 1.785E+02 1.824E+02 1.603E+07 15.4066 1.00000
  7.079E+08 7.079E+08 3.916E+00 3.695E+00 7.202E+01 1.269E+02 2.026E+02 2.065E+02 1.643E+07 15.6369 1.00000
  7.943E+08 7.943E+08 3.931E+00 4.169E+00 8.086E+01 1.450E+02 2.300E+02 2.339E+02 1.682E+07 15.8672 1.00000
  8.913E+08 8.913E+08 3.946E+00 4.702E+00 9.077E+01 1.656E+02 2.611E+02 2.651E+02 1.721E+07 16.0974 1.00000
  1.000E+09 1.000E+09 3.961E+00 5.303E+00 1.019E+02 1.893E+02 2.965E+02 3.005E+02 1.760E+07 16.3277 1.00000
  1.122E+09 1.122E+09 3.977E+00 5.979E+00 1.144E+02 2.163E+02 3.367E+02 3.407E+02 1.798E+07 16.5579 1.00000
  1.259E+09 1.259E+09 3.992E+00 6.740E+00 1.284E+02 2.472E+02 3.824E+02 3.864E+02 1.836E+07 16.7882 1.00000
  1.413E+09 1.413E+09 4.007E+00 7.596E+00 1.441E+02 2.826E+02 4.343E+02 4.383E+02 1.873E+07 17.0184 1.00000
  1.585E+09 1.585E+09 4.023E+00 8.559E+00 1.618E+02 3.230E+02 4.933E+02 4.973E+02 1.910E+07 17.2487 1.00000
  1.778E+09 1.778E+09 4.038E+00 9.642E+00 1.815E+02 3.692E+02 5.604E+02 5.644E+02 1.947E+07 17.4790 1.00000
  1.995E+09 1.995E+09 4.054E+00 1.086E+01 2.038E+02 4.220E+02 6.367E+02 6.407E+02 1.983E+07 17.7092 1.00000
  2.239E+09 2.239E+09 4.070E+00 1.223E+01 2.287E+02 4.825E+02 7.234E+02 7.275E+02 2.019E+07 17.9395 1.00000
  2.512E+09 2.512E+09 4.086E+00 1.377E+01 2.566E+02 5.516E+02 8.220E+02 8.261E+02 2.054E+07 18.1697 1.00000
  2.818E+09 2.818E+09 4.102E+00 1.550E+01 2.880E+02 6.307E+02 9.342E+02 9.383E+02 2.089E+07 18.4000 1.00000
  3.162E+09 3.162E+09 4.118E+00 1.745E+01 3.232E+02 7.211E+02 1.062E+03 1.066E+03 2.123E+07 18.6303 1.00000
  3.548E+09 3.548E+09 4.134E+00 1.963E+01 3.627E+02 8.245E+02 1.207E+03 1.211E+03 2.157E+07 18.8605 1.00000
  3.981E+09 3.981E+09 4.150E+00 2.209E+01 4.070E+02 9.429E+02 1.372E+03 1.376E+03 2.191E+07 19.0908 1.00000
  4.467E+09 4.467E+09 4.166E+00 2.485E+01 4.568E+02 1.078E+03 1.560E+03 1.564E+03 2.224E+07 19.3210 1.00000
  5.012E+09 5.012E+09 4.182E+00 2.795E+01 5.126E+02 1.233E+03 1.774E+03 1.778E+03 2.257E+07 19.5513 1.00000
  5.623E+09 5.623E+09 4.199E+00 3.143E+01 5.752E+02 1.410E+03 2.017E+03 2.021E+03 2.289E+07 19.7815 1.00000
  6.310E+09 6.310E+09 4.215E+00 3.535E+01 6.454E+02 1.613E+03 2.294E+03 2.298E+03 2.321E+07 20.0118 1.00000
  7.079E+09 7.079E+09 4.232E+00 3.974E+01 7.242E+02 1.845E+03 2.609E+03 2.613E+03 2.353E+07 20.2421 1.00000
  7.943E+09 7.943E+09 4.249E+00 4.468E+01 8.127E+02 2.110E+03 2.968E+03 2.972E+03 2.384E+07 20.4723 1.00000
  8.913E+09 8.913E+09 4.266E+00 5.022E+01 9.119E+02 2.414E+03 3.376E+03 3.381E+03 2.414E+07 20.7026 1.00000
  1.000E+10 1.000E+10 4.283E+00 5.645E+01 1.023E+03 2.762E+03 3.841E+03 3.846E+03 2.445E+07 20.9328 1.00000
  1.122E+10 1.122E+10 4.300E+00 6.344E+01 1.148E+03 3.160E+03 4.371E+03 4.375E+03 2.474E+07 21.1631 1.00000
  1.259E+10 1.259E+10 4.317E+00 7.129E+01 1.288E+03 3.615E+03 4.974E+03 4.979E+03 2.504E+07 21.3934 1.00000
  1.413E+10 1.413E+10 4.334E+00 8.010E+01 1.446E+03 4.136E+03 5.662E+03 5.666E+03 2.533E+07 21.6236 1.00000
  1.585E+10 1.585E+10 4.351E+00 8.999E+01 1.622E+03 4.733E+03 6.445E+03 6.449E+03 2.561E+07 21.8539 1.00000
  1.778E+10 1.778E+10 4.369E+00 1.011E+02 1.820E+03 5.415E+03 7.336E+03 7.341E+03 2.590E+07 22.0841 1.00000
  1.995E+10 1.995E+10 4.386E+00 1.136E+02 2.042E+03 6.197E+03 8.353E+03 8.357E+03 2.617E+07 22.3144 1.00000
  2.239E+10 2.239E+10 4.404E+00 1.276E+02 2.291E+03 7.092E+03 9.511E+03 9.515E+03 2.645E+07 22.5447 1.00000
  2.512E+10 2.512E+10 4.421E+00 1.433E+02 2.571E+03 8.117E+03 1.083E+04 1.084E+04 2.672E+07 22.7749 1.00000
  2.818E+10 2.818E+10 4.439E+00 1.609E+02 2.885E+03 9.290E+03 1.234E+04 1.234E+04 2.698E+07 23.0052 1.00000
  3.162E+10 3.162E+10 4.457E+00 1.807E+02 3.237E+03 1.063E+04 1.405E+04 1.405E+04 2.724E+07 23.2354 1.00000
  3.548E+10 3.548E+10 4.475E+00 2.029E+02 3.632E+03 1.217E+04 1.601E+04 1.601E+04 2.750E+07 23.4657 1.00000
  3.981E+10 3.981E+10 4.493E+00 2.278E+02 4.075E+03 1.393E+04 1.823E+04 1.824E+04 2.775E+07 23.6959 1.00000
  4.467E+10 4.467E+10 4.511E+00 2.558E+02 4.572E+03 1.595E+04 2.078E+04 2.078E+04 2.800E+07 23.9262 1.00000
  5.012E+10 5.012E+10 4.530E+00 2.872E+02 5.130E+03 1.826E+04 2.368E+04 2.368E+04 2.825E+07 24.1565 1.00000
  5.623E+10 5.623E+10 4.548E+00 3.224E+02 5.755E+03 2.090E+04 2.698E+04 2.699E+04 2.849E+07 24.3867 1.00000
  6.310E+10 6.310E+10 4.567E+00 3.620E+02 6.458E+03 2.393E+04 3.075E+04 3.076E+04 2.873E+07 24.6170 1.00000
  7.079E+10 7.079E+10 4.585E+00 4.063E+02 7.246E+03 2.740E+04 3.506E+04 3.506E+04 2.897E+07 24.8472 1.00000
  7.943E+10 7.943E+10 4.604E+00 4.561E+02 8.130E+03 3.138E+04 3.997E+04 3.997E+04 2.920E+07 25.0775 1.00000
  8.913E+10 8.913E+10 4.623E+00 5.120E+02 9.121E+03 3.593E+04 4.557E+04 4.557E+04 2.943E+07 25.3078 1.00000
  1.000E+11 1.000E+11 4.642E+00 5.747E+02 1.023E+04 4.115E+04 5.196E+04 5.196E+04 2.965E+07 25.5380 1.00000
  1.122E+11 1.122E+11 4.661E+00 6.451E+02 1.148E+04 4.713E+04 5.926E+04 5.926E+04 2.987E+07 25.7683 1.00000
  1.259E+11 1.259E+11 4.680E+00 7.240E+02 1.288E+04 5.398E+04 6.758E+04 6.759E+04 3.009E+07 25.9985 1.00000
  1.413E+11 1.413E+11 4.699E+00 8.126E+02 1.446E+04 6.182E+04 7.709E+04 7.709E+04 3.030E+07 26.2288 1.00000
  1.585E+11 1.585E+11 4.719E+00 9.120E+02 1.622E+04 7.081E+04 8.794E+04 8.795E+04 3.051E+07 26.4590 1.00000
  1.778E+11 1.778E+11 4.738E+00 1.024E+03 1.820E+04 8.111E+04 1.003E+05 1.003E+05 3.072E+07 26.6893 1.00000
  1.995E+11 1.995E+11 4.758E+00 1.149E+03 2.042E+04 9.292E+04 1.145E+05 1.145E+05 3.092E+07 26.9196 1.00000
  2.239E+11 2.239E+11 4.777E+00 1.289E+03 2.291E+04 1.064E+05 1.306E+05 1.307E+05 3.112E+07 27.1498 1.00000
  2.512E+11 2.512E+11 4.797E+00 1.447E+03 2.570E+04 1.220E+05 1.491E+05 1.491E+05 3.131E+07 27.3801 1.00000
  2.818E+11 2.818E+11 4.817E+00 1.624E+03 2.884E+04 1.397E+05 1.702E+05 1.702E+05 3.151E+07 27.6103 1.00000
  3.162E+11 3.162E+11 4.837E+00 1.822E+03 3.236E+04 1.601E+05 1.943E+05 1.943E+05 3.170E+07 27.8406 1.00000
  3.548E+11 3.548E+11 4.857E+00 2.045E+03 3.630E+04 1.834E+05 2.218E+05 2.218E+05 3.188E+07 28.0709 1.00000
  3.981E+11 3.981E+11 4.878E+00 2.295E+03 4.073E+04 2.102E+05 2.532E+05 2.532E+05 3.207E+07 28.3011 1.00000
  4.467E+11 4.467E+11 4.898E+00 2.575E+03 4.570E+04 2.409E+05 2.892E+05 2.892E+05 3.225E+07 28.5314 1.00000
  5.012E+11 5.012E+11 4.918E+00 2.889E+03 5.127E+04 2.761E+05 3.302E+05 3.302E+05 3.242E+07 28.7616 1.00000
  5.623E+11 5.623E+11 4.939E+00 3.242E+03 5.753E+04 3.164E+05 3.772E+05 3.772E+05 3.260E+07 28.9919 1.00000
  6.310E+11 6.310E+11 4.960E+00 3.638E+03 6.455E+04 3.626E+05 4.308E+05 4.308E+05 3.277E+07 29.2221 1.00000
  7.079E+11 7.079E+11 4.981E+00 4.083E+03 7.242E+04 4.156E+05 4.921E+05 4.921E+05 3.294E+07 29.4524 1.00000
  7.943E+11 7.943E+11 5.002E+00 4.581E+03 8.125E+04 4.764E+05 5.623E+05 5.623E+05 3.310E+07 29.6827 1.00000
  8.913E+11 8.913E+11 5.023E+00 5.140E+03 9.116E+04 5.461E+05 6.424E+05 6.424E+05 3.326E+07 29.9129 1.00000
  1.000E+12 1.000E+12 5.044E+00 5.768E+03 1.023E+05 6.261E+05 7.341E+05 7.341E+05 3.342E+07 30.1432 1.00000
  1.122E+12 1.122E+12 5.065E+00 6.472E+03 1.148E+05 7.177E+05 8.390E+05 8.390E+05 3.358E+07 30.3734 1.00000
  1.259E+12 1.259E+12 5.087E+00 7.262E+03 1.288E+05 8.229E+05 9.589E+05 9.589E+05 3.373E+07 30.6037 1.00000
  1.413E+12 1.413E+12 5.108E+00 8.149E+03 1.445E+05 9.435E+05 1.096E+06 1.096E+06 3.388E+07 30.8340 1.00000
  1.585E+12 1.585E+12 5.130E+00 9.144E+03 1.621E+05 1.082E+06 1.253E+06 1.253E+06 3.403E+07 31.0642 1.00000
  1.778E+12 1.778E+12 5.151E+00 1.026E+04 1.819E+05 1.240E+06 1.433E+06 1.433E+06 3.417E+07 31.2945 1.00000
  1.995E+12 1.995E+12 5.173E+00 1.151E+04 2.040E+05 1.422E+06 1.638E+06 1.638E+06 3.431E+07 31.5247 1.00000
  2.239E+12 2.239E+12 5.195E+00 1.292E+04 2.289E+05 1.631E+06 1.873E+06 1.873E+06 3.445E+07 31.7550 1.00000
  2.512E+12 2.512E+12 5.218E+00 1.449E+04 2.568E+05 1.871E+06 2.142E+06 2.142E+06 3.459E+07 31.9852 1.00000
  2.818E+12 2.818E+12 5.240E+00 1.626E+04 2.882E+05 2.146E+06 2.450E+06 2.450E+06 3.472E+07 32.2155 1.00000
  3.162E+12 3.162E+12 5.262E+00 1.825E+04 3.233E+05 2.461E+06 2.802E+06 2.802E+06 3.485E+07 32.4458 1.00000
  3.548E+12 3.548E+12 5.285E+00 2.047E+04 3.628E+05 2.823E+06 3.206E+06 3.206E+06 3.498E+07 32.6760 1.00000
  3.981E+12 3.981E+12 5.307E+00 2.297E+04 4.070E+05 3.238E+06 3.668E+06 3.668E+06 3.511E+07 32.9063 1.00000
  4.467E+12 4.467E+12 5.330E+00 2.578E+04 4.566E+05 3.714E+06 4.196E+06 4.196E+06 3.523E+07 33.1365 1.00000
  5.012E+12 5.012E+12 5.353E+00 2.892E+04 5.123E+05 4.261E+06 4.802E+06 4.802E+06 3.536E+07 33.3668 1.00000
  5.623E+12 5.623E+12 5.376E+00 3.245E+04 5.748E+05 4.888E+06 5.495E+06 5.495E+06 3.548E+07 33.5971 1.00000
  6.310E+12 6.310E+12 5.399E+00 3.641E+04 6.449E+05 5.608E+06 6.289E+06 6.289E+06 3.559E+07 33.8273 1.00000
  7.079E+12 7.079E+12 5.422E+00 4.086E+04 7.236E+05 6.434E+06 7.199E+06 7.199E+06 3.571E+07 34.0576 1.00000
  7.943E+12 7.943E+12 5.446E+00 4.584E+04 8.118E+05 7.383E+06 8.240E+06 8.240E+06 3.582E+07 34.2878 1.00000
  8.913E+12 8.913E+12 5.469E+00 5.143E+04 9.109E+05 8.471E+06 9.434E+06 9.434E+06 3.593E+07 34.5181 1.00000
  1.000E+13 1.000E+13 5.493E+00 5.771E+04 1.022E+06 9.721E+06 1.080E+07 1.080E+07 3.604E+07 34.7484 1.00000
  1.122E+13 1.122E+13 5.517E+00 6.475E+04 1.147E+06 1.116E+07 1.237E+07 1.237E+07 3.614E+07 34.9786 1.00000
  1.259E+13 1.259E+13 5.541E+00 7.266E+04 1.286E+06 1.280E+07 1.416E+07 1.416E+07 3.625E+07 35.2089 1.00000
  1.413E+13 1.413E+13 5.565E+00 8.152E+04 1.443E+06 1.469E+07 1.622E+07 1.622E+07 3.635E+07 35.4391 1.00000
  1.585E+13 1.585E+13 5.589E+00 9.147E+04 1.619E+06 1.686E+07 1.858E+07 1.858E+07 3.645E+07 35.6694 1.00000
  1.778E+13 1.778E+13 5.613E+00 1.026E+05 1.817E+06 1.936E+07 2.128E+07 2.128E+07 3.655E+07 35.8996 1.00000
  1.995E+13 1.995E+13 5.637E+00 1.152E+05 2.038E+06 2.222E+07 2.437E+07 2.437E+07 3.664E+07 36.1299 1.00000
  2.239E+13 2.239E+13 5.662E+00 1.292E+05 2.287E+06 2.550E+07 2.792E+07 2.792E+07 3.673E+07 36.3602 1.00000
  2.512E+13 2.512E+13 5.687E+00 1.450E+05 2.566E+06 2.928E+07 3.199E+07 3.199E+07 3.683E+07 36.5904 1.00000
  2.818E+13 2.818E+13 5.712E+00 1.627E+05 2.879E+06 3.361E+07 3.665E+07 3.665E+07 3.692E+07 36.8207 1.00000
  3.162E+13 3.162E+13 5.736E+00 1.825E+05 3.230E+06 3.859E+07 4.200E+07 4.200E+07 3.700E+07 37.0509 1.00000
  3.548E+13 3.548E+13 5.762E+00 2.048E+05 3.624E+06 4.431E+07 4.813E+07 4.813E+07 3.709E+07 37.2812 1.00000
  3.981E+13 3.981E+13 5.787E+00 2.298E+05 4.066E+06 5.087E+07 5.517E+07 5.517E+07 3.717E+07 37.5115 1.00000
  4.467E+13 4.467E+13 5.812E+00 2.578E+05 4.562E+06 5.841E+07 6.323E+07 6.323E+07 3.726E+07 37.7417 1.00000
  5.012E+13 5.012E+13 5.838E+00 2.893E+05 5.118E+06 6.707E+07 7.248E+07 7.248E+07 3.734E+07 37.9720 1.00000
  5.623E+13 5.623E+13 5.863E+00 3.246E+05 5.742E+06 7.702E+07 8.309E+07 8.309E+07 3.742E+07 38.2022 1.00000
  6.310E+13 6.310E+13 5.889E+00 3.642E+05 6.443E+06 8.845E+07 9.526E+07 9.526E+07 3.749E+07 38.4325 1.00000
  7.079E+13 7.079E+13 5.915E+00 4.086E+05 7.228E+06 1.016E+08 1.092E+08 1.092E+08 3.757E+07 38.6627 1.00000
  7.943E+13 7.943E+13 5.941E+00 4.584E+05 8.110E+06 1.167E+08 1.252E+08 1.252E+08 3.764E+07 38.8930 1.00000
  8.913E+13 8.913E+13 5.967E+00 5.144E+05 9.099E+06 1.340E+08 1.436E+08 1.436E+08 3.772E+07 39.1233 1.00000
