 Incident particle is a Tau with M = 1776.82000 MeV
 Index = 0: CarbonDioxideIce
      Absorber with <Z/A> = 0.49989
 Sternheimer coef:  a     k=m_s   x_0    x_1    I[eV]   Cbar  delta0
                 0.4339  3.0000  0.2000  2.0000   85.0  3.4513 0.00

 *** Table generated with PUMAS v1.00 ***

      T         p     Ionization  brems     pair     photonuc  Radloss    dE/dx   CSDA Range  delta   beta
    [MeV]    [MeV/c]  -----------------------[MeV cm^2/g]------------------------  [g/cm^2]
  1.000E+05 1.018E+05 2.185E+00 1.470E-04 2.283E-03 8.295E-03 1.073E-02 2.196E+00 2.277E+04  4.6505 0.99985
  1.122E+05 1.140E+05 2.203E+00 1.698E-04 2.754E-03 9.365E-03 1.229E-02 2.216E+00 2.830E+04  4.8739 0.99988
  1.259E+05 1.277E+05 2.222E+00 1.961E-04 3.310E-03 1.052E-02 1.402E-02 2.236E+00 3.445E+04  5.0990 0.99990
  1.413E+05 1.430E+05 2.240E+00 2.263E-04 3.965E-03 1.181E-02 1.600E-02 2.256E+00 4.129E+04  5.3254 0.99992
  1.585E+05 1.603E+05 2.258E+00 2.611E-04 4.735E-03 1.326E-02 1.826E-02 2.276E+00 4.890E+04  5.5526 0.99994
  1.778E+05 1.796E+05 2.276E+00 3.010E-04 5.639E-03 1.488E-02 2.082E-02 2.297E+00 5.736E+04  5.7805 0.99995
  1.995E+05 2.013E+05 2.294E+00 3.469E-04 6.697E-03 1.673E-02 2.377E-02 2.318E+00 6.676E+04  6.0086 0.99996
  2.239E+05 2.256E+05 2.312E+00 3.997E-04 7.934E-03 1.875E-02 2.708E-02 2.339E+00 7.722E+04  6.2369 0.99997
  2.512E+05 2.530E+05 2.330E+00 4.602E-04 9.376E-03 2.101E-02 3.084E-02 2.361E+00 8.884E+04  6.4655 0.99998
  2.818E+05 2.836E+05 2.348E+00 5.297E-04 1.106E-02 2.355E-02 3.514E-02 2.384E+00 1.018E+05  6.6942 0.99998
  3.162E+05 3.180E+05 2.367E+00 6.094E-04 1.301E-02 2.643E-02 4.005E-02 2.407E+00 1.161E+05  6.9231 0.99998
  3.548E+05 3.566E+05 2.385E+00 7.008E-04 1.527E-02 2.966E-02 4.563E-02 2.430E+00 1.321E+05  7.1522 0.99999
  3.981E+05 3.999E+05 2.403E+00 8.056E-04 1.790E-02 3.326E-02 5.197E-02 2.455E+00 1.498E+05  7.3814 0.99999
  4.467E+05 4.485E+05 2.421E+00 9.258E-04 2.094E-02 3.731E-02 5.917E-02 2.480E+00 1.695E+05  7.6107 0.99999
  5.012E+05 5.030E+05 2.439E+00 1.063E-03 2.445E-02 4.185E-02 6.736E-02 2.507E+00 1.913E+05  7.8401 0.99999
  5.623E+05 5.641E+05 2.457E+00 1.221E-03 2.850E-02 4.678E-02 7.650E-02 2.534E+00 2.156E+05  8.0696 1.00000
  6.310E+05 6.327E+05 2.475E+00 1.401E-03 3.316E-02 5.233E-02 8.690E-02 2.562E+00 2.425E+05  8.2991 1.00000
  7.079E+05 7.097E+05 2.493E+00 1.608E-03 3.854E-02 5.860E-02 9.874E-02 2.592E+00 2.724E+05  8.5288 1.00000
  7.943E+05 7.961E+05 2.511E+00 1.845E-03 4.471E-02 6.567E-02 1.122E-01 2.623E+00 3.055E+05  8.7585 1.00000
  8.913E+05 8.930E+05 2.529E+00 2.115E-03 5.181E-02 7.367E-02 1.276E-01 2.657E+00 3.423E+05  8.9883 1.00000
  1.000E+06 1.002E+06 2.547E+00 2.424E-03 5.994E-02 8.271E-02 1.451E-01 2.692E+00 3.829E+05  9.2181 1.00000
  1.122E+06 1.124E+06 2.564E+00 2.778E-03 6.926E-02 9.295E-02 1.650E-01 2.729E+00 4.279E+05  9.4480 1.00000
  1.259E+06 1.261E+06 2.582E+00 3.183E-03 7.993E-02 1.045E-01 1.877E-01 2.770E+00 4.777E+05  9.6779 1.00000
  1.413E+06 1.414E+06 2.599E+00 3.645E-03 9.213E-02 1.177E-01 2.134E-01 2.813E+00 5.328E+05  9.9078 1.00000
  1.585E+06 1.587E+06 2.617E+00 4.173E-03 1.061E-01 1.326E-01 2.428E-01 2.859E+00 5.936E+05 10.1378 1.00000
  1.778E+06 1.780E+06 2.634E+00 4.777E-03 1.220E-01 1.495E-01 2.762E-01 2.910E+00 6.606E+05 10.3678 1.00000
  1.995E+06 1.997E+06 2.651E+00 5.466E-03 1.401E-01 1.686E-01 3.142E-01 2.965E+00 7.345E+05 10.5979 1.00000
  2.239E+06 2.240E+06 2.668E+00 6.253E-03 1.607E-01 1.904E-01 3.574E-01 3.025E+00 8.158E+05 10.8280 1.00000
  2.512E+06 2.514E+06 2.685E+00 7.152E-03 1.842E-01 2.152E-01 4.065E-01 3.091E+00 9.051E+05 11.0580 1.00000
  2.818E+06 2.820E+06 2.701E+00 8.177E-03 2.109E-01 2.433E-01 4.624E-01 3.164E+00 1.003E+06 11.2881 1.00000
  3.162E+06 3.164E+06 2.718E+00 9.347E-03 2.412E-01 2.753E-01 5.258E-01 3.244E+00 1.110E+06 11.5183 1.00000
  3.548E+06 3.550E+06 2.734E+00 1.068E-02 2.756E-01 3.117E-01 5.980E-01 3.332E+00 1.228E+06 11.7484 1.00000
  3.981E+06 3.983E+06 2.750E+00 1.220E-02 3.147E-01 3.530E-01 6.799E-01 3.430E+00 1.356E+06 11.9786 1.00000
  4.467E+06 4.469E+06 2.766E+00 1.394E-02 3.589E-01 4.001E-01 7.730E-01 3.539E+00 1.495E+06 12.2087 1.00000
  5.012E+06 5.014E+06 2.782E+00 1.592E-02 4.090E-01 4.538E-01 8.787E-01 3.661E+00 1.647E+06 12.4389 1.00000
  5.623E+06 5.625E+06 2.798E+00 1.817E-02 4.657E-01 5.148E-01 9.987E-01 3.797E+00 1.811E+06 12.6691 1.00000
  6.310E+06 6.311E+06 2.814E+00 2.074E-02 5.299E-01 5.843E-01 1.135E+00 3.949E+00 1.988E+06 12.8993 1.00000
  7.079E+06 7.081E+06 2.829E+00 2.367E-02 6.025E-01 6.636E-01 1.290E+00 4.119E+00 2.179E+06 13.1295 1.00000
  7.943E+06 7.945E+06 2.844E+00 2.700E-02 6.844E-01 7.538E-01 1.465E+00 4.310E+00 2.384E+06 13.3597 1.00000
  8.913E+06 8.914E+06 2.859E+00 3.079E-02 7.770E-01 8.567E-01 1.664E+00 4.524E+00 2.604E+06 13.5899 1.00000
  1.000E+07 1.000E+07 2.874E+00 3.510E-02 8.815E-01 9.739E-01 1.891E+00 4.765E+00 2.838E+06 13.8201 1.00000
  1.122E+07 1.122E+07 2.889E+00 4.001E-02 9.995E-01 1.108E+00 2.147E+00 5.036E+00 3.087E+06 14.0503 1.00000
  1.259E+07 1.259E+07 2.904E+00 4.559E-02 1.132E+00 1.260E+00 2.438E+00 5.342E+00 3.351E+06 14.2805 1.00000
  1.413E+07 1.413E+07 2.918E+00 5.194E-02 1.282E+00 1.434E+00 2.768E+00 5.686E+00 3.630E+06 14.5108 1.00000
  1.585E+07 1.585E+07 2.933E+00 5.915E-02 1.451E+00 1.632E+00 3.142E+00 6.075E+00 3.923E+06 14.7410 1.00000
  1.778E+07 1.778E+07 2.947E+00 6.735E-02 1.642E+00 1.858E+00 3.567E+00 6.514E+00 4.231E+06 14.9712 1.00000
  1.995E+07 1.995E+07 2.961E+00 7.667E-02 1.856E+00 2.116E+00 4.048E+00 7.010E+00 4.552E+06 15.2015 1.00000
  2.239E+07 2.239E+07 2.976E+00 8.724E-02 2.097E+00 2.410E+00 4.594E+00 7.570E+00 4.887E+06 15.4317 1.00000
  2.512E+07 2.512E+07 2.990E+00 9.925E-02 2.369E+00 2.745E+00 5.213E+00 8.203E+00 5.234E+06 15.6619 1.00000
  2.818E+07 2.819E+07 3.004E+00 1.129E-01 2.675E+00 3.128E+00 5.916E+00 8.919E+00 5.592E+06 15.8922 1.00000
  3.162E+07 3.162E+07 3.018E+00 1.283E-01 3.018E+00 3.565E+00 6.712E+00 9.730E+00 5.962E+06 16.1224 1.00000
  3.548E+07 3.548E+07 3.032E+00 1.459E-01 3.405E+00 4.064E+00 7.614E+00 1.065E+01 6.341E+06 16.3527 1.00000
  3.981E+07 3.981E+07 3.046E+00 1.658E-01 3.840E+00 4.633E+00 8.638E+00 1.168E+01 6.730E+06 16.5829 1.00000
  4.467E+07 4.467E+07 3.060E+00 1.883E-01 4.328E+00 5.282E+00 9.799E+00 1.286E+01 7.127E+06 16.8132 1.00000
  5.012E+07 5.012E+07 3.074E+00 2.139E-01 4.878E+00 6.024E+00 1.112E+01 1.419E+01 7.531E+06 17.0434 1.00000
  5.623E+07 5.624E+07 3.087E+00 2.428E-01 5.495E+00 6.870E+00 1.261E+01 1.570E+01 7.941E+06 17.2737 1.00000
  6.310E+07 6.310E+07 3.101E+00 2.756E-01 6.188E+00 7.837E+00 1.430E+01 1.740E+01 8.357E+06 17.5039 1.00000
  7.079E+07 7.080E+07 3.115E+00 3.128E-01 6.968E+00 8.940E+00 1.622E+01 1.934E+01 8.777E+06 17.7342 1.00000
  7.943E+07 7.943E+07 3.129E+00 3.548E-01 7.843E+00 1.020E+01 1.840E+01 2.153E+01 9.201E+06 17.9644 1.00000
  8.913E+07 8.913E+07 3.143E+00 4.024E-01 8.826E+00 1.164E+01 2.087E+01 2.401E+01 9.628E+06 18.1947 1.00000
  1.000E+08 1.000E+08 3.157E+00 4.562E-01 9.931E+00 1.328E+01 2.367E+01 2.683E+01 1.006E+07 18.4249 1.00000
  1.122E+08 1.122E+08 3.171E+00 5.171E-01 1.117E+01 1.516E+01 2.685E+01 3.002E+01 1.049E+07 18.6552 1.00000
  1.259E+08 1.259E+08 3.185E+00 5.859E-01 1.256E+01 1.730E+01 3.045E+01 3.364E+01 1.092E+07 18.8854 1.00000
  1.413E+08 1.413E+08 3.199E+00 6.637E-01 1.413E+01 1.975E+01 3.454E+01 3.774E+01 1.135E+07 19.1157 1.00000
  1.585E+08 1.585E+08 3.213E+00 7.517E-01 1.588E+01 2.254E+01 3.918E+01 4.239E+01 1.178E+07 19.3460 1.00000
  1.778E+08 1.778E+08 3.227E+00 8.510E-01 1.785E+01 2.574E+01 4.444E+01 4.767E+01 1.221E+07 19.5762 1.00000
  1.995E+08 1.995E+08 3.241E+00 9.632E-01 2.007E+01 2.939E+01 5.041E+01 5.366E+01 1.264E+07 19.8065 1.00000
  2.239E+08 2.239E+08 3.256E+00 1.090E+00 2.255E+01 3.355E+01 5.719E+01 6.045E+01 1.307E+07 20.0367 1.00000
  2.512E+08 2.512E+08 3.270E+00 1.233E+00 2.534E+01 3.832E+01 6.488E+01 6.815E+01 1.350E+07 20.2670 1.00000
  2.818E+08 2.818E+08 3.284E+00 1.394E+00 2.847E+01 4.376E+01 7.362E+01 7.690E+01 1.392E+07 20.4972 1.00000
  3.162E+08 3.162E+08 3.299E+00 1.576E+00 3.198E+01 4.997E+01 8.353E+01 8.682E+01 1.434E+07 20.7275 1.00000
  3.548E+08 3.548E+08 3.313E+00 1.782E+00 3.592E+01 5.708E+01 9.478E+01 9.809E+01 1.476E+07 20.9578 1.00000
  3.981E+08 3.981E+08 3.328E+00 2.013E+00 4.034E+01 6.519E+01 1.075E+02 1.109E+02 1.518E+07 21.1880 1.00000
  4.467E+08 4.467E+08 3.342E+00 2.274E+00 4.531E+01 7.447E+01 1.220E+02 1.254E+02 1.559E+07 21.4183 1.00000
  5.012E+08 5.012E+08 3.357E+00 2.569E+00 5.088E+01 8.507E+01 1.385E+02 1.419E+02 1.600E+07 21.6485 1.00000
  5.623E+08 5.623E+08 3.372E+00 2.900E+00 5.713E+01 9.719E+01 1.572E+02 1.606E+02 1.641E+07 21.8788 1.00000
  6.310E+08 6.310E+08 3.387E+00 3.274E+00 6.415E+01 1.110E+02 1.785E+02 1.818E+02 1.681E+07 22.1090 1.00000
  7.079E+08 7.079E+08 3.402E+00 3.695E+00 7.202E+01 1.269E+02 2.026E+02 2.060E+02 1.721E+07 22.3393 1.00000
  7.943E+08 7.943E+08 3.417E+00 4.169E+00 8.086E+01 1.450E+02 2.300E+02 2.334E+02 1.760E+07 22.5696 1.00000
  8.913E+08 8.913E+08 3.432E+00 4.702E+00 9.077E+01 1.656E+02 2.611E+02 2.645E+02 1.799E+07 22.7998 1.00000
  1.000E+09 1.000E+09 3.447E+00 5.303E+00 1.019E+02 1.893E+02 2.965E+02 2.999E+02 1.838E+07 23.0301 1.00000
  1.122E+09 1.122E+09 3.462E+00 5.979E+00 1.144E+02 2.163E+02 3.367E+02 3.402E+02 1.876E+07 23.2603 1.00000
  1.259E+09 1.259E+09 3.478E+00 6.740E+00 1.284E+02 2.472E+02 3.824E+02 3.858E+02 1.914E+07 23.4906 1.00000
  1.413E+09 1.413E+09 3.493E+00 7.596E+00 1.441E+02 2.826E+02 4.343E+02 4.378E+02 1.952E+07 23.7208 1.00000
  1.585E+09 1.585E+09 3.508E+00 8.559E+00 1.618E+02 3.230E+02 4.933E+02 4.968E+02 1.989E+07 23.9511 1.00000
  1.778E+09 1.778E+09 3.524E+00 9.642E+00 1.815E+02 3.692E+02 5.604E+02 5.639E+02 2.025E+07 24.1814 1.00000
  1.995E+09 1.995E+09 3.540E+00 1.086E+01 2.038E+02 4.220E+02 6.367E+02 6.402E+02 2.061E+07 24.4116 1.00000
  2.239E+09 2.239E+09 3.555E+00 1.223E+01 2.287E+02 4.825E+02 7.234E+02 7.270E+02 2.097E+07 24.6419 1.00000
  2.512E+09 2.512E+09 3.571E+00 1.377E+01 2.566E+02 5.516E+02 8.220E+02 8.256E+02 2.133E+07 24.8721 1.00000
  2.818E+09 2.818E+09 3.587E+00 1.550E+01 2.880E+02 6.307E+02 9.342E+02 9.378E+02 2.167E+07 25.1024 1.00000
  3.162E+09 3.162E+09 3.603E+00 1.745E+01 3.232E+02 7.211E+02 1.062E+03 1.065E+03 2.202E+07 25.3327 1.00000
  3.548E+09 3.548E+09 3.619E+00 1.963E+01 3.627E+02 8.245E+02 1.207E+03 1.211E+03 2.236E+07 25.5629 1.00000
  3.981E+09 3.981E+09 3.635E+00 2.209E+01 4.070E+02 9.429E+02 1.372E+03 1.376E+03 2.270E+07 25.7932 1.00000
  4.467E+09 4.467E+09 3.652E+00 2.485E+01 4.568E+02 1.078E+03 1.560E+03 1.563E+03 2.303E+07 26.0234 1.00000
  5.012E+09 5.012E+09 3.668E+00 2.795E+01 5.126E+02 1.233E+03 1.774E+03 1.777E+03 2.336E+07 26.2537 1.00000
  5.623E+09 5.623E+09 3.684E+00 3.143E+01 5.752E+02 1.410E+03 2.017E+03 2.021E+03 2.368E+07 26.4839 1.00000
  6.310E+09 6.310E+09 3.701E+00 3.535E+01 6.454E+02 1.613E+03 2.294E+03 2.297E+03 2.400E+07 26.7142 1.00000
  7.079E+09 7.079E+09 3.718E+00 3.974E+01 7.242E+02 1.845E+03 2.609E+03 2.613E+03 2.431E+07 26.9445 1.00000
  7.943E+09 7.943E+09 3.734E+00 4.468E+01 8.127E+02 2.110E+03 2.968E+03 2.971E+03 2.462E+07 27.1747 1.00000
  8.913E+09 8.913E+09 3.751E+00 5.022E+01 9.119E+02 2.414E+03 3.376E+03 3.380E+03 2.493E+07 27.4050 1.00000
  1.000E+10 1.000E+10 3.768E+00 5.645E+01 1.023E+03 2.762E+03 3.841E+03 3.845E+03 2.523E+07 27.6352 1.00000
  1.122E+10 1.122E+10 3.785E+00 6.344E+01 1.148E+03 3.160E+03 4.371E+03 4.375E+03 2.553E+07 27.8655 1.00000
  1.259E+10 1.259E+10 3.802E+00 7.129E+01 1.288E+03 3.615E+03 4.974E+03 4.978E+03 2.582E+07 28.0958 1.00000
  1.413E+10 1.413E+10 3.819E+00 8.010E+01 1.446E+03 4.136E+03 5.662E+03 5.665E+03 2.611E+07 28.3260 1.00000
  1.585E+10 1.585E+10 3.837E+00 8.999E+01 1.622E+03 4.733E+03 6.445E+03 6.448E+03 2.640E+07 28.5563 1.00000
  1.778E+10 1.778E+10 3.854E+00 1.011E+02 1.820E+03 5.415E+03 7.336E+03 7.340E+03 2.668E+07 28.7865 1.00000
  1.995E+10 1.995E+10 3.872E+00 1.136E+02 2.042E+03 6.197E+03 8.353E+03 8.357E+03 2.696E+07 29.0168 1.00000
  2.239E+10 2.239E+10 3.889E+00 1.276E+02 2.291E+03 7.092E+03 9.511E+03 9.515E+03 2.723E+07 29.2471 1.00000
  2.512E+10 2.512E+10 3.907E+00 1.433E+02 2.571E+03 8.117E+03 1.083E+04 1.083E+04 2.750E+07 29.4773 1.00000
  2.818E+10 2.818E+10 3.925E+00 1.609E+02 2.885E+03 9.290E+03 1.234E+04 1.234E+04 2.777E+07 29.7076 1.00000
  3.162E+10 3.162E+10 3.943E+00 1.807E+02 3.237E+03 1.063E+04 1.405E+04 1.405E+04 2.803E+07 29.9378 1.00000
  3.548E+10 3.548E+10 3.961E+00 2.029E+02 3.632E+03 1.217E+04 1.601E+04 1.601E+04 2.829E+07 30.1681 1.00000
  3.981E+10 3.981E+10 3.979E+00 2.278E+02 4.075E+03 1.393E+04 1.823E+04 1.824E+04 2.854E+07 30.3983 1.00000
  4.467E+10 4.467E+10 3.997E+00 2.558E+02 4.572E+03 1.595E+04 2.078E+04 2.078E+04 2.879E+07 30.6286 1.00000
  5.012E+10 5.012E+10 4.015E+00 2.872E+02 5.130E+03 1.826E+04 2.368E+04 2.368E+04 2.904E+07 30.8589 1.00000
  5.623E+10 5.623E+10 4.034E+00 3.224E+02 5.755E+03 2.090E+04 2.698E+04 2.699E+04 2.928E+07 31.0891 1.00000
  6.310E+10 6.310E+10 4.052E+00 3.620E+02 6.458E+03 2.393E+04 3.075E+04 3.076E+04 2.952E+07 31.3194 1.00000
  7.079E+10 7.079E+10 4.071E+00 4.063E+02 7.246E+03 2.740E+04 3.506E+04 3.506E+04 2.975E+07 31.5496 1.00000
  7.943E+10 7.943E+10 4.090E+00 4.561E+02 8.130E+03 3.138E+04 3.997E+04 3.997E+04 2.999E+07 31.7799 1.00000
  8.913E+10 8.913E+10 4.108E+00 5.120E+02 9.121E+03 3.593E+04 4.557E+04 4.557E+04 3.021E+07 32.0102 1.00000
  1.000E+11 1.000E+11 4.127E+00 5.747E+02 1.023E+04 4.115E+04 5.196E+04 5.196E+04 3.044E+07 32.2404 1.00000
  1.122E+11 1.122E+11 4.146E+00 6.451E+02 1.148E+04 4.713E+04 5.926E+04 5.926E+04 3.066E+07 32.4707 1.00000
  1.259E+11 1.259E+11 4.166E+00 7.240E+02 1.288E+04 5.398E+04 6.758E+04 6.759E+04 3.087E+07 32.7009 1.00000
  1.413E+11 1.413E+11 4.185E+00 8.126E+02 1.446E+04 6.182E+04 7.709E+04 7.709E+04 3.109E+07 32.9312 1.00000
  1.585E+11 1.585E+11 4.204E+00 9.120E+02 1.622E+04 7.081E+04 8.794E+04 8.795E+04 3.130E+07 33.1614 1.00000
  1.778E+11 1.778E+11 4.224E+00 1.024E+03 1.820E+04 8.111E+04 1.003E+05 1.003E+05 3.150E+07 33.3917 1.00000
  1.995E+11 1.995E+11 4.243E+00 1.149E+03 2.042E+04 9.292E+04 1.145E+05 1.145E+05 3.171E+07 33.6220 1.00000
  2.239E+11 2.239E+11 4.263E+00 1.289E+03 2.291E+04 1.064E+05 1.306E+05 1.307E+05 3.191E+07 33.8522 1.00000
  2.512E+11 2.512E+11 4.283E+00 1.447E+03 2.570E+04 1.220E+05 1.491E+05 1.491E+05 3.210E+07 34.0825 1.00000
  2.818E+11 2.818E+11 4.303E+00 1.624E+03 2.884E+04 1.397E+05 1.702E+05 1.702E+05 3.229E+07 34.3127 1.00000
  3.162E+11 3.162E+11 4.323E+00 1.822E+03 3.236E+04 1.601E+05 1.943E+05 1.943E+05 3.248E+07 34.5430 1.00000
  3.548E+11 3.548E+11 4.343E+00 2.045E+03 3.630E+04 1.834E+05 2.218E+05 2.218E+05 3.267E+07 34.7733 1.00000
  3.981E+11 3.981E+11 4.363E+00 2.295E+03 4.073E+04 2.102E+05 2.532E+05 2.532E+05 3.285E+07 35.0035 1.00000
  4.467E+11 4.467E+11 4.384E+00 2.575E+03 4.570E+04 2.409E+05 2.892E+05 2.892E+05 3.303E+07 35.2338 1.00000
  5.012E+11 5.012E+11 4.404E+00 2.889E+03 5.127E+04 2.761E+05 3.302E+05 3.302E+05 3.321E+07 35.4640 1.00000
  5.623E+11 5.623E+11 4.425E+00 3.242E+03 5.753E+04 3.164E+05 3.772E+05 3.772E+05 3.338E+07 35.6943 1.00000
  6.310E+11 6.310E+11 4.445E+00 3.638E+03 6.455E+04 3.626E+05 4.308E+05 4.308E+05 3.355E+07 35.9245 1.00000
  7.079E+11 7.079E+11 4.466E+00 4.083E+03 7.242E+04 4.156E+05 4.921E+05 4.921E+05 3.372E+07 36.1548 1.00000
  7.943E+11 7.943E+11 4.487E+00 4.581E+03 8.125E+04 4.764E+05 5.623E+05 5.623E+05 3.389E+07 36.3851 1.00000
  8.913E+11 8.913E+11 4.508E+00 5.140E+03 9.116E+04 5.461E+05 6.424E+05 6.424E+05 3.405E+07 36.6153 1.00000
  1.000E+12 1.000E+12 4.529E+00 5.768E+03 1.023E+05 6.261E+05 7.341E+05 7.341E+05 3.421E+07 36.8456 1.00000
  1.122E+12 1.122E+12 4.551E+00 6.472E+03 1.148E+05 7.177E+05 8.390E+05 8.390E+05 3.436E+07 37.0758 1.00000
  1.259E+12 1.259E+12 4.572E+00 7.262E+03 1.288E+05 8.229E+05 9.589E+05 9.589E+05 3.452E+07 37.3061 1.00000
  1.413E+12 1.413E+12 4.594E+00 8.149E+03 1.445E+05 9.435E+05 1.096E+06 1.096E+06 3.467E+07 37.5364 1.00000
  1.585E+12 1.585E+12 4.615E+00 9.144E+03 1.621E+05 1.082E+06 1.253E+06 1.253E+06 3.481E+07 37.7666 1.00000
  1.778E+12 1.778E+12 4.637E+00 1.026E+04 1.819E+05 1.240E+06 1.433E+06 1.433E+06 3.496E+07 37.9969 1.00000
  1.995E+12 1.995E+12 4.659E+00 1.151E+04 2.040E+05 1.422E+06 1.638E+06 1.638E+06 3.510E+07 38.2271 1.00000
  2.239E+12 2.239E+12 4.681E+00 1.292E+04 2.289E+05 1.631E+06 1.873E+06 1.873E+06 3.524E+07 38.4574 1.00000
  2.512E+12 2.512E+12 4.703E+00 1.449E+04 2.568E+05 1.871E+06 2.142E+06 2.142E+06 3.538E+07 38.6876 1.00000
  2.818E+12 2.818E+12 4.725E+00 1.626E+04 2.882E+05 2.146E+06 2.450E+06 2.450E+06 3.551E+07 38.9179 1.00000
  3.162E+12 3.162E+12 4.748E+00 1.825E+04 3.233E+05 2.461E+06 2.802E+06 2.802E+06 3.564E+07 39.1482 1.00000
  3.548E+12 3.548E+12 4.770E+00 2.047E+04 3.628E+05 2.823E+06 3.206E+06 3.206E+06 3.577E+07 39.3784 1.00000
  3.981E+12 3.981E+12 4.793E+00 2.297E+04 4.070E+05 3.238E+06 3.668E+06 3.668E+06 3.590E+07 39.6087 1.00000
  4.467E+12 4.467E+12 4.816E+00 2.578E+04 4.566E+05 3.714E+06 4.196E+06 4.196E+06 3.602E+07 39.8389 1.00000
  5.012E+12 5.012E+12 4.839E+00 2.892E+04 5.123E+05 4.261E+06 4.802E+06 4.802E+06 3.614E+07 40.0692 1.00000
  5.623E+12 5.623E+12 4.862E+00 3.245E+04 5.748E+05 4.888E+06 5.495E+06 5.495E+06 3.626E+07 40.2995 1.00000
  6.310E+12 6.310E+12 4.885E+00 3.641E+04 6.449E+05 5.608E+06 6.289E+06 6.289E+06 3.638E+07 40.5297 1.00000
  7.079E+12 7.079E+12 4.908E+00 4.086E+04 7.236E+05 6.434E+06 7.199E+06 7.199E+06 3.649E+07 40.7600 1.00000
  7.943E+12 7.943E+12 4.931E+00 4.584E+04 8.118E+05 7.383E+06 8.240E+06 8.240E+06 3.661E+07 40.9902 1.00000
  8.913E+12 8.913E+12 4.955E+00 5.143E+04 9.109E+05 8.471E+06 9.434E+06 9.434E+06 3.672E+07 41.2205 1.00000
  1.000E+13 1.000E+13 4.978E+00 5.771E+04 1.022E+06 9.721E+06 1.080E+07 1.080E+07 3.682E+07 41.4508 1.00000
  1.122E+13 1.122E+13 5.002E+00 6.475E+04 1.147E+06 1.116E+07 1.237E+07 1.237E+07 3.693E+07 41.6810 1.00000
  1.259E+13 1.259E+13 5.026E+00 7.266E+04 1.286E+06 1.280E+07 1.416E+07 1.416E+07 3.703E+07 41.9113 1.00000
  1.413E+13 1.413E+13 5.050E+00 8.152E+04 1.443E+06 1.469E+07 1.622E+07 1.622E+07 3.714E+07 42.1415 1.00000
  1.585E+13 1.585E+13 5.074E+00 9.147E+04 1.619E+06 1.686E+07 1.858E+07 1.858E+07 3.723E+07 42.3718 1.00000
  1.778E+13 1.778E+13 5.099E+00 1.026E+05 1.817E+06 1.936E+07 2.128E+07 2.128E+07 3.733E+07 42.6020 1.00000
  1.995E+13 1.995E+13 5.123E+00 1.152E+05 2.038E+06 2.222E+07 2.437E+07 2.437E+07 3.743E+07 42.8323 1.00000
  2.239E+13 2.239E+13 5.148E+00 1.292E+05 2.287E+06 2.550E+07 2.792E+07 2.792E+07 3.752E+07 43.0626 1.00000
  2.512E+13 2.512E+13 5.172E+00 1.450E+05 2.566E+06 2.928E+07 3.199E+07 3.199E+07 3.761E+07 43.2928 1.00000
  2.818E+13 2.818E+13 5.197E+00 1.627E+05 2.879E+06 3.361E+07 3.665E+07 3.665E+07 3.770E+07 43.5231 1.00000
  3.162E+13 3.162E+13 5.222E+00 1.825E+05 3.230E+06 3.859E+07 4.200E+07 4.200E+07 3.779E+07 43.7533 1.00000
  3.548E+13 3.548E+13 5.247E+00 2.048E+05 3.624E+06 4.431E+07 4.813E+07 4.813E+07 3.788E+07 43.9836 1.00000
  3.981E+13 3.981E+13 5.272E+00 2.298E+05 4.066E+06 5.087E+07 5.517E+07 5.517E+07 3.796E+07 44.2139 1.00000
  4.467E+13 4.467E+13 5.298E+00 2.578E+05 4.562E+06 5.841E+07 6.323E+07 6.323E+07 3.804E+07 44.4441 1.00000
  5.012E+13 5.012E+13 5.323E+00 2.893E+05 5.118E+06 6.707E+07 7.248E+07 7.248E+07 3.812E+07 44.6744 1.00000
  5.623E+13 5.623E+13 5.349E+00 3.246E+05 5.742E+06 7.702E+07 8.309E+07 8.309E+07 3.820E+07 44.9046 1.00000
  6.310E+13 6.310E+13 5.375E+00 3.642E+05 6.443E+06 8.845E+07 9.526E+07 9.526E+07 3.828E+07 45.1349 1.00000
  7.079E+13 7.079E+13 5.400E+00 4.086E+05 7.228E+06 1.016E+08 1.092E+08 1.092E+08 3.836E+07 45.3651 1.00000
  7.943E+13 7.943E+13 5.427E+00 4.584E+05 8.110E+06 1.167E+08 1.252E+08 1.252E+08 3.843E+07 45.5954 1.00000
  8.913E+13 8.913E+13 5.453E+00 5.144E+05 9.099E+06 1.340E+08 1.436E+08 1.436E+08 3.850E+07 45.8257 1.00000
