 Incident particle is a Tau with M = 1776.82000 MeV
 Index = 0: CarbonAmorphous
      Absorber with <Z/A> = 0.49955
 Sternheimer coef:  a     k=m_s   x_0    x_1    I[eV]   Cbar  delta0
                 0.2024  3.0036  0.0351  2.4860   78.0  2.9925 0.10

 *** Table generated with PUMAS v1.00 ***

      T         p     Ionization  brems     pair     photonuc  Radloss    dE/dx   CSDA Range  delta   beta
    [MeV]    [MeV/c]  -----------------------[MeV cm^2/g]------------------------  [g/cm^2]
  1.000E+05 1.018E+05 2.156E+00 1.202E-04 1.860E-03 8.360E-03 1.034E-02 2.167E+00 2.308E+04  5.1811 0.99985
  1.122E+05 1.140E+05 2.175E+00 1.389E-04 2.248E-03 9.442E-03 1.183E-02 2.187E+00 2.868E+04  5.3929 0.99988
  1.259E+05 1.277E+05 2.194E+00 1.603E-04 2.706E-03 1.061E-02 1.347E-02 2.208E+00 3.491E+04  5.6070 0.99990
  1.413E+05 1.430E+05 2.213E+00 1.849E-04 3.246E-03 1.192E-02 1.535E-02 2.228E+00 4.184E+04  5.8233 0.99992
  1.585E+05 1.603E+05 2.232E+00 2.133E-04 3.881E-03 1.339E-02 1.748E-02 2.249E+00 4.954E+04  6.0416 0.99994
  1.778E+05 1.796E+05 2.251E+00 2.459E-04 4.626E-03 1.503E-02 1.990E-02 2.270E+00 5.810E+04  6.2618 0.99995
  1.995E+05 2.013E+05 2.269E+00 2.833E-04 5.499E-03 1.691E-02 2.269E-02 2.292E+00 6.761E+04  6.4836 0.99996
  2.239E+05 2.256E+05 2.288E+00 3.264E-04 6.521E-03 1.895E-02 2.580E-02 2.313E+00 7.818E+04  6.7070 0.99997
  2.512E+05 2.530E+05 2.306E+00 3.757E-04 7.712E-03 2.125E-02 2.934E-02 2.335E+00 8.993E+04  6.9317 0.99998
  2.818E+05 2.836E+05 2.325E+00 4.324E-04 9.101E-03 2.384E-02 3.337E-02 2.358E+00 1.030E+05  7.1576 0.99998
  3.162E+05 3.180E+05 2.343E+00 4.974E-04 1.072E-02 2.676E-02 3.797E-02 2.381E+00 1.175E+05  7.3845 0.99998
  3.548E+05 3.566E+05 2.361E+00 5.720E-04 1.259E-02 3.004E-02 4.321E-02 2.404E+00 1.336E+05  7.6122 0.99999
  3.981E+05 3.999E+05 2.379E+00 6.575E-04 1.476E-02 3.371E-02 4.913E-02 2.428E+00 1.516E+05  7.8407 0.99999
  4.467E+05 4.485E+05 2.397E+00 7.554E-04 1.728E-02 3.782E-02 5.586E-02 2.453E+00 1.715E+05  8.0696 0.99999
  5.012E+05 5.030E+05 2.416E+00 8.677E-04 2.019E-02 4.245E-02 6.351E-02 2.479E+00 1.936E+05  8.2989 0.99999
  5.623E+05 5.641E+05 2.434E+00 9.963E-04 2.355E-02 4.746E-02 7.201E-02 2.506E+00 2.181E+05  8.5284 1.00000
  6.310E+05 6.327E+05 2.452E+00 1.144E-03 2.742E-02 5.312E-02 8.168E-02 2.533E+00 2.453E+05  8.7579 1.00000
  7.079E+05 7.097E+05 2.470E+00 1.312E-03 3.188E-02 5.950E-02 9.270E-02 2.562E+00 2.755E+05  8.9876 1.00000
  7.943E+05 7.961E+05 2.487E+00 1.505E-03 3.701E-02 6.671E-02 1.052E-01 2.593E+00 3.091E+05  9.2173 1.00000
  8.913E+05 8.930E+05 2.505E+00 1.726E-03 4.291E-02 7.486E-02 1.195E-01 2.625E+00 3.462E+05  9.4471 1.00000
  1.000E+06 1.002E+06 2.523E+00 1.979E-03 4.967E-02 8.407E-02 1.357E-01 2.659E+00 3.874E+05  9.6769 1.00000
  1.122E+06 1.124E+06 2.541E+00 2.268E-03 5.743E-02 9.451E-02 1.542E-01 2.695E+00 4.330E+05  9.9068 1.00000
  1.259E+06 1.261E+06 2.558E+00 2.598E-03 6.631E-02 1.063E-01 1.752E-01 2.733E+00 4.834E+05 10.1367 1.00000
  1.413E+06 1.414E+06 2.576E+00 2.976E-03 7.646E-02 1.197E-01 1.992E-01 2.775E+00 5.392E+05 10.3666 1.00000
  1.585E+06 1.587E+06 2.593E+00 3.408E-03 8.807E-02 1.349E-01 2.264E-01 2.819E+00 6.008E+05 10.5966 1.00000
  1.778E+06 1.780E+06 2.610E+00 3.902E-03 1.013E-01 1.521E-01 2.574E-01 2.867E+00 6.688E+05 10.8266 1.00000
  1.995E+06 1.997E+06 2.627E+00 4.466E-03 1.164E-01 1.717E-01 2.926E-01 2.920E+00 7.438E+05 11.0567 1.00000
  2.239E+06 2.240E+06 2.644E+00 5.110E-03 1.336E-01 1.939E-01 3.327E-01 2.977E+00 8.264E+05 11.2868 1.00000
  2.512E+06 2.514E+06 2.661E+00 5.846E-03 1.532E-01 2.192E-01 3.783E-01 3.039E+00 9.172E+05 11.5168 1.00000
  2.818E+06 2.820E+06 2.678E+00 6.686E-03 1.755E-01 2.479E-01 4.301E-01 3.108E+00 1.017E+06 11.7469 1.00000
  3.162E+06 3.164E+06 2.694E+00 7.646E-03 2.009E-01 2.805E-01 4.890E-01 3.183E+00 1.126E+06 11.9771 1.00000
  3.548E+06 3.550E+06 2.710E+00 8.740E-03 2.296E-01 3.176E-01 5.560E-01 3.266E+00 1.246E+06 12.2072 1.00000
  3.981E+06 3.983E+06 2.727E+00 9.989E-03 2.623E-01 3.599E-01 6.322E-01 3.359E+00 1.377E+06 12.4374 1.00000
  4.467E+06 4.469E+06 2.743E+00 1.141E-02 2.993E-01 4.079E-01 7.187E-01 3.461E+00 1.519E+06 12.6675 1.00000
  5.012E+06 5.014E+06 2.758E+00 1.304E-02 3.413E-01 4.627E-01 8.170E-01 3.575E+00 1.674E+06 12.8977 1.00000
  5.623E+06 5.625E+06 2.774E+00 1.489E-02 3.888E-01 5.250E-01 9.286E-01 3.703E+00 1.842E+06 13.1279 1.00000
  6.310E+06 6.311E+06 2.790E+00 1.700E-02 4.425E-01 5.959E-01 1.055E+00 3.845E+00 2.024E+06 13.3581 1.00000
  7.079E+06 7.081E+06 2.805E+00 1.941E-02 5.033E-01 6.768E-01 1.200E+00 4.005E+00 2.220E+06 13.5883 1.00000
  7.943E+06 7.945E+06 2.820E+00 2.215E-02 5.721E-01 7.689E-01 1.363E+00 4.183E+00 2.431E+06 13.8185 1.00000
  8.913E+06 8.914E+06 2.835E+00 2.527E-02 6.497E-01 8.739E-01 1.549E+00 4.384E+00 2.658E+06 14.0487 1.00000
  1.000E+07 1.000E+07 2.850E+00 2.882E-02 7.374E-01 9.936E-01 1.760E+00 4.610E+00 2.900E+06 14.2789 1.00000
  1.122E+07 1.122E+07 2.865E+00 3.286E-02 8.364E-01 1.130E+00 1.999E+00 4.864E+00 3.158E+06 14.5091 1.00000
  1.259E+07 1.259E+07 2.880E+00 3.746E-02 9.481E-01 1.286E+00 2.271E+00 5.151E+00 3.431E+06 14.7393 1.00000
  1.413E+07 1.413E+07 2.894E+00 4.270E-02 1.074E+00 1.463E+00 2.580E+00 5.474E+00 3.721E+06 14.9696 1.00000
  1.585E+07 1.585E+07 2.909E+00 4.865E-02 1.216E+00 1.665E+00 2.930E+00 5.839E+00 4.026E+06 15.1998 1.00000
  1.778E+07 1.778E+07 2.923E+00 5.541E-02 1.376E+00 1.896E+00 3.327E+00 6.250E+00 4.346E+06 15.4300 1.00000
  1.995E+07 1.995E+07 2.937E+00 6.311E-02 1.556E+00 2.159E+00 3.778E+00 6.716E+00 4.681E+06 15.6603 1.00000
  2.239E+07 2.239E+07 2.952E+00 7.184E-02 1.759E+00 2.459E+00 4.290E+00 7.242E+00 5.030E+06 15.8905 1.00000
  2.512E+07 2.512E+07 2.966E+00 8.177E-02 1.987E+00 2.802E+00 4.871E+00 7.837E+00 5.393E+06 16.1207 1.00000
  2.818E+07 2.819E+07 2.980E+00 9.304E-02 2.244E+00 3.193E+00 5.530E+00 8.510E+00 5.769E+06 16.3510 1.00000
  3.162E+07 3.162E+07 2.994E+00 1.058E-01 2.534E+00 3.639E+00 6.278E+00 9.272E+00 6.156E+06 16.5812 1.00000
  3.548E+07 3.548E+07 3.008E+00 1.203E-01 2.859E+00 4.148E+00 7.127E+00 1.014E+01 6.555E+06 16.8115 1.00000
  3.981E+07 3.981E+07 3.022E+00 1.368E-01 3.225E+00 4.729E+00 8.091E+00 1.111E+01 6.963E+06 17.0417 1.00000
  4.467E+07 4.467E+07 3.036E+00 1.555E-01 3.636E+00 5.392E+00 9.184E+00 1.222E+01 7.381E+06 17.2720 1.00000
  5.012E+07 5.012E+07 3.049E+00 1.767E-01 4.099E+00 6.149E+00 1.042E+01 1.347E+01 7.806E+06 17.5022 1.00000
  5.623E+07 5.624E+07 3.063E+00 2.007E-01 4.619E+00 7.014E+00 1.183E+01 1.490E+01 8.238E+06 17.7325 1.00000
  6.310E+07 6.310E+07 3.077E+00 2.279E-01 5.203E+00 8.000E+00 1.343E+01 1.651E+01 8.676E+06 17.9627 1.00000
  7.079E+07 7.080E+07 3.091E+00 2.587E-01 5.859E+00 9.127E+00 1.524E+01 1.834E+01 9.119E+06 18.1930 1.00000
  7.943E+07 7.943E+07 3.105E+00 2.936E-01 6.597E+00 1.041E+01 1.730E+01 2.041E+01 9.566E+06 18.4232 1.00000
  8.913E+07 8.913E+07 3.119E+00 3.331E-01 7.425E+00 1.188E+01 1.964E+01 2.276E+01 1.002E+07 18.6535 1.00000
  1.000E+08 1.000E+08 3.133E+00 3.779E-01 8.355E+00 1.356E+01 2.229E+01 2.543E+01 1.047E+07 18.8837 1.00000
  1.122E+08 1.122E+08 3.147E+00 4.285E-01 9.400E+00 1.548E+01 2.530E+01 2.845E+01 1.092E+07 19.1140 1.00000
  1.259E+08 1.259E+08 3.161E+00 4.857E-01 1.057E+01 1.766E+01 2.872E+01 3.188E+01 1.138E+07 19.3442 1.00000
  1.413E+08 1.413E+08 3.175E+00 5.504E-01 1.189E+01 2.016E+01 3.260E+01 3.578E+01 1.183E+07 19.5745 1.00000
  1.585E+08 1.585E+08 3.189E+00 6.236E-01 1.337E+01 2.302E+01 3.701E+01 4.020E+01 1.229E+07 19.8048 1.00000
  1.778E+08 1.778E+08 3.203E+00 7.063E-01 1.503E+01 2.628E+01 4.201E+01 4.522E+01 1.274E+07 20.0350 1.00000
  1.995E+08 1.995E+08 3.217E+00 7.998E-01 1.690E+01 3.000E+01 4.770E+01 5.091E+01 1.320E+07 20.2653 1.00000
  2.239E+08 2.239E+08 3.231E+00 9.053E-01 1.899E+01 3.426E+01 5.415E+01 5.738E+01 1.365E+07 20.4955 1.00000
  2.512E+08 2.512E+08 3.246E+00 1.025E+00 2.134E+01 3.912E+01 6.148E+01 6.473E+01 1.410E+07 20.7258 1.00000
  2.818E+08 2.818E+08 3.260E+00 1.159E+00 2.398E+01 4.467E+01 6.981E+01 7.307E+01 1.454E+07 20.9560 1.00000
  3.162E+08 3.162E+08 3.275E+00 1.311E+00 2.694E+01 5.102E+01 7.927E+01 8.254E+01 1.499E+07 21.1863 1.00000
  3.548E+08 3.548E+08 3.289E+00 1.482E+00 3.026E+01 5.827E+01 9.001E+01 9.330E+01 1.543E+07 21.4166 1.00000
  3.981E+08 3.981E+08 3.304E+00 1.676E+00 3.399E+01 6.656E+01 1.022E+02 1.055E+02 1.587E+07 21.6468 1.00000
  4.467E+08 4.467E+08 3.318E+00 1.894E+00 3.817E+01 7.603E+01 1.161E+02 1.194E+02 1.630E+07 21.8771 1.00000
  5.012E+08 5.012E+08 3.333E+00 2.139E+00 4.287E+01 8.685E+01 1.319E+02 1.352E+02 1.673E+07 22.1073 1.00000
  5.623E+08 5.623E+08 3.348E+00 2.417E+00 4.814E+01 9.922E+01 1.498E+02 1.531E+02 1.715E+07 22.3376 1.00000
  6.310E+08 6.310E+08 3.362E+00 2.729E+00 5.405E+01 1.134E+02 1.701E+02 1.735E+02 1.758E+07 22.5678 1.00000
  7.079E+08 7.079E+08 3.377E+00 3.081E+00 6.069E+01 1.295E+02 1.933E+02 1.967E+02 1.799E+07 22.7981 1.00000
  7.943E+08 7.943E+08 3.392E+00 3.477E+00 6.814E+01 1.480E+02 2.196E+02 2.230E+02 1.841E+07 23.0284 1.00000
  8.913E+08 8.913E+08 3.407E+00 3.924E+00 7.650E+01 1.691E+02 2.495E+02 2.529E+02 1.882E+07 23.2586 1.00000
  1.000E+09 1.000E+09 3.423E+00 4.427E+00 8.588E+01 1.933E+02 2.836E+02 2.870E+02 1.922E+07 23.4889 1.00000
  1.122E+09 1.122E+09 3.438E+00 4.993E+00 9.640E+01 2.209E+02 3.223E+02 3.257E+02 1.962E+07 23.7191 1.00000
  1.259E+09 1.259E+09 3.453E+00 5.630E+00 1.082E+02 2.524E+02 3.663E+02 3.697E+02 2.002E+07 23.9494 1.00000
  1.413E+09 1.413E+09 3.469E+00 6.347E+00 1.215E+02 2.885E+02 4.163E+02 4.198E+02 2.041E+07 24.1796 1.00000
  1.585E+09 1.585E+09 3.484E+00 7.154E+00 1.363E+02 3.298E+02 4.733E+02 4.767E+02 2.079E+07 24.4099 1.00000
  1.778E+09 1.778E+09 3.500E+00 8.062E+00 1.530E+02 3.769E+02 5.380E+02 5.415E+02 2.117E+07 24.6402 1.00000
  1.995E+09 1.995E+09 3.515E+00 9.083E+00 1.717E+02 4.309E+02 6.117E+02 6.152E+02 2.155E+07 24.8704 1.00000
  2.239E+09 2.239E+09 3.531E+00 1.023E+01 1.928E+02 4.926E+02 6.956E+02 6.991E+02 2.192E+07 25.1007 1.00000
  2.512E+09 2.512E+09 3.547E+00 1.152E+01 2.163E+02 5.632E+02 7.910E+02 7.946E+02 2.229E+07 25.3309 1.00000
  2.818E+09 2.818E+09 3.563E+00 1.297E+01 2.428E+02 6.439E+02 8.996E+02 9.032E+02 2.265E+07 25.5612 1.00000
  3.162E+09 3.162E+09 3.579E+00 1.461E+01 2.724E+02 7.362E+02 1.023E+03 1.027E+03 2.301E+07 25.7915 1.00000
  3.548E+09 3.548E+09 3.595E+00 1.644E+01 3.057E+02 8.418E+02 1.164E+03 1.168E+03 2.336E+07 26.0217 1.00000
  3.981E+09 3.981E+09 3.611E+00 1.850E+01 3.431E+02 9.626E+02 1.324E+03 1.328E+03 2.371E+07 26.2520 1.00000
  4.467E+09 4.467E+09 3.627E+00 2.082E+01 3.850E+02 1.101E+03 1.507E+03 1.510E+03 2.406E+07 26.4822 1.00000
  5.012E+09 5.012E+09 3.644E+00 2.342E+01 4.321E+02 1.259E+03 1.714E+03 1.718E+03 2.439E+07 26.7125 1.00000
  5.623E+09 5.623E+09 3.660E+00 2.635E+01 4.849E+02 1.440E+03 1.951E+03 1.955E+03 2.473E+07 26.9427 1.00000
  6.310E+09 6.310E+09 3.676E+00 2.964E+01 5.441E+02 1.647E+03 2.221E+03 2.224E+03 2.506E+07 27.1730 1.00000
  7.079E+09 7.079E+09 3.693E+00 3.333E+01 6.105E+02 1.884E+03 2.528E+03 2.531E+03 2.538E+07 27.4033 1.00000
  7.943E+09 7.943E+09 3.710E+00 3.748E+01 6.851E+02 2.155E+03 2.877E+03 2.881E+03 2.570E+07 27.6335 1.00000
  8.913E+09 8.913E+09 3.727E+00 4.213E+01 7.687E+02 2.465E+03 3.276E+03 3.279E+03 2.602E+07 27.8638 1.00000
  1.000E+10 1.000E+10 3.744E+00 4.736E+01 8.626E+02 2.820E+03 3.730E+03 3.733E+03 2.633E+07 28.0940 1.00000
  1.122E+10 1.122E+10 3.761E+00 5.324E+01 9.679E+02 3.226E+03 4.247E+03 4.251E+03 2.664E+07 28.3243 1.00000
  1.259E+10 1.259E+10 3.778E+00 5.983E+01 1.086E+03 3.691E+03 4.837E+03 4.840E+03 2.694E+07 28.5546 1.00000
  1.413E+10 1.413E+10 3.795E+00 6.724E+01 1.219E+03 4.223E+03 5.509E+03 5.512E+03 2.724E+07 28.7848 1.00000
  1.585E+10 1.585E+10 3.812E+00 7.555E+01 1.367E+03 4.832E+03 6.275E+03 6.279E+03 2.753E+07 29.0151 1.00000
  1.778E+10 1.778E+10 3.830E+00 8.489E+01 1.534E+03 5.529E+03 7.148E+03 7.152E+03 2.782E+07 29.2453 1.00000
  1.995E+10 1.995E+10 3.847E+00 9.537E+01 1.721E+03 6.327E+03 8.144E+03 8.148E+03 2.811E+07 29.4756 1.00000
  2.239E+10 2.239E+10 3.865E+00 1.071E+02 1.932E+03 7.241E+03 9.279E+03 9.283E+03 2.839E+07 29.7059 1.00000
  2.512E+10 2.512E+10 3.882E+00 1.203E+02 2.167E+03 8.287E+03 1.057E+04 1.058E+04 2.866E+07 29.9361 1.00000
  2.818E+10 2.818E+10 3.900E+00 1.352E+02 2.432E+03 9.485E+03 1.205E+04 1.206E+04 2.894E+07 30.1664 1.00000
  3.162E+10 3.162E+10 3.918E+00 1.518E+02 2.728E+03 1.086E+04 1.374E+04 1.374E+04 2.920E+07 30.3966 1.00000
  3.548E+10 3.548E+10 3.936E+00 1.705E+02 3.061E+03 1.243E+04 1.566E+04 1.566E+04 2.947E+07 30.6269 1.00000
  3.981E+10 3.981E+10 3.954E+00 1.914E+02 3.435E+03 1.422E+04 1.785E+04 1.785E+04 2.973E+07 30.8571 1.00000
  4.467E+10 4.467E+10 3.972E+00 2.150E+02 3.854E+03 1.628E+04 2.035E+04 2.036E+04 2.998E+07 31.0874 1.00000
  5.012E+10 5.012E+10 3.991E+00 2.414E+02 4.324E+03 1.864E+04 2.321E+04 2.321E+04 3.023E+07 31.3177 1.00000
  5.623E+10 5.623E+10 4.009E+00 2.710E+02 4.852E+03 2.134E+04 2.647E+04 2.647E+04 3.048E+07 31.5479 1.00000
  6.310E+10 6.310E+10 4.027E+00 3.043E+02 5.444E+03 2.444E+04 3.018E+04 3.019E+04 3.072E+07 31.7782 1.00000
  7.079E+10 7.079E+10 4.046E+00 3.416E+02 6.108E+03 2.798E+04 3.443E+04 3.443E+04 3.096E+07 32.0084 1.00000
  7.943E+10 7.943E+10 4.065E+00 3.835E+02 6.853E+03 3.204E+04 3.928E+04 3.928E+04 3.120E+07 32.2387 1.00000
  8.913E+10 8.913E+10 4.084E+00 4.305E+02 7.689E+03 3.669E+04 4.481E+04 4.481E+04 3.143E+07 32.4690 1.00000
  1.000E+11 1.000E+11 4.103E+00 4.832E+02 8.628E+03 4.201E+04 5.113E+04 5.113E+04 3.166E+07 32.6992 1.00000
  1.122E+11 1.122E+11 4.122E+00 5.424E+02 9.680E+03 4.812E+04 5.834E+04 5.834E+04 3.188E+07 32.9295 1.00000
  1.259E+11 1.259E+11 4.141E+00 6.088E+02 1.086E+04 5.511E+04 6.658E+04 6.658E+04 3.210E+07 33.1597 1.00000
  1.413E+11 1.413E+11 4.160E+00 6.833E+02 1.219E+04 6.312E+04 7.599E+04 7.599E+04 3.232E+07 33.3900 1.00000
  1.585E+11 1.585E+11 4.179E+00 7.670E+02 1.367E+04 7.230E+04 8.674E+04 8.674E+04 3.253E+07 33.6202 1.00000
  1.778E+11 1.778E+11 4.199E+00 8.608E+02 1.534E+04 8.282E+04 9.902E+04 9.902E+04 3.274E+07 33.8505 1.00000
  1.995E+11 1.995E+11 4.218E+00 9.661E+02 1.721E+04 9.487E+04 1.130E+05 1.131E+05 3.295E+07 34.0808 1.00000
  2.239E+11 2.239E+11 4.238E+00 1.084E+03 1.931E+04 1.087E+05 1.291E+05 1.291E+05 3.315E+07 34.3110 1.00000
  2.512E+11 2.512E+11 4.258E+00 1.217E+03 2.167E+04 1.245E+05 1.474E+05 1.474E+05 3.335E+07 34.5413 1.00000
  2.818E+11 2.818E+11 4.278E+00 1.366E+03 2.431E+04 1.427E+05 1.683E+05 1.683E+05 3.354E+07 34.7715 1.00000
  3.162E+11 3.162E+11 4.298E+00 1.533E+03 2.728E+04 1.635E+05 1.923E+05 1.923E+05 3.373E+07 35.0018 1.00000
  3.548E+11 3.548E+11 4.318E+00 1.720E+03 3.060E+04 1.873E+05 2.196E+05 2.196E+05 3.392E+07 35.2321 1.00000
  3.981E+11 3.981E+11 4.338E+00 1.930E+03 3.434E+04 2.146E+05 2.509E+05 2.509E+05 3.411E+07 35.4623 1.00000
  4.467E+11 4.467E+11 4.359E+00 2.166E+03 3.853E+04 2.459E+05 2.866E+05 2.866E+05 3.429E+07 35.6926 1.00000
  5.012E+11 5.012E+11 4.379E+00 2.430E+03 4.323E+04 2.819E+05 3.275E+05 3.275E+05 3.447E+07 35.9228 1.00000
  5.623E+11 5.623E+11 4.400E+00 2.727E+03 4.850E+04 3.230E+05 3.743E+05 3.743E+05 3.464E+07 36.1531 1.00000
  6.310E+11 6.310E+11 4.420E+00 3.060E+03 5.441E+04 3.702E+05 4.277E+05 4.277E+05 3.481E+07 36.3833 1.00000
  7.079E+11 7.079E+11 4.441E+00 3.434E+03 6.105E+04 4.244E+05 4.888E+05 4.889E+05 3.498E+07 36.6136 1.00000
  7.943E+11 7.943E+11 4.462E+00 3.854E+03 6.850E+04 4.864E+05 5.588E+05 5.588E+05 3.515E+07 36.8439 1.00000
  8.913E+11 8.913E+11 4.483E+00 4.324E+03 7.685E+04 5.576E+05 6.388E+05 6.388E+05 3.531E+07 37.0741 1.00000
  1.000E+12 1.000E+12 4.504E+00 4.852E+03 8.623E+04 6.392E+05 7.303E+05 7.303E+05 3.547E+07 37.3044 1.00000
  1.122E+12 1.122E+12 4.526E+00 5.445E+03 9.675E+04 7.328E+05 8.350E+05 8.350E+05 3.563E+07 37.5346 1.00000
  1.259E+12 1.259E+12 4.547E+00 6.109E+03 1.085E+05 8.402E+05 9.548E+05 9.548E+05 3.578E+07 37.7649 1.00000
  1.413E+12 1.413E+12 4.568E+00 6.855E+03 1.218E+05 9.633E+05 1.092E+06 1.092E+06 3.593E+07 37.9952 1.00000
  1.585E+12 1.585E+12 4.590E+00 7.692E+03 1.366E+05 1.104E+06 1.249E+06 1.249E+06 3.608E+07 38.2254 1.00000
  1.778E+12 1.778E+12 4.612E+00 8.631E+03 1.533E+05 1.266E+06 1.428E+06 1.428E+06 3.622E+07 38.4557 1.00000
  1.995E+12 1.995E+12 4.634E+00 9.684E+03 1.720E+05 1.452E+06 1.634E+06 1.634E+06 3.637E+07 38.6859 1.00000
  2.239E+12 2.239E+12 4.656E+00 1.087E+04 1.930E+05 1.665E+06 1.869E+06 1.869E+06 3.651E+07 38.9162 1.00000
  2.512E+12 2.512E+12 4.678E+00 1.219E+04 2.165E+05 1.910E+06 2.139E+06 2.139E+06 3.664E+07 39.1464 1.00000
  2.818E+12 2.818E+12 4.700E+00 1.368E+04 2.429E+05 2.191E+06 2.447E+06 2.447E+06 3.678E+07 39.3767 1.00000
  3.162E+12 3.162E+12 4.723E+00 1.535E+04 2.726E+05 2.512E+06 2.800E+06 2.800E+06 3.691E+07 39.6070 1.00000
  3.548E+12 3.548E+12 4.745E+00 1.722E+04 3.058E+05 2.882E+06 3.205E+06 3.205E+06 3.704E+07 39.8372 1.00000
  3.981E+12 3.981E+12 4.768E+00 1.933E+04 3.431E+05 3.306E+06 3.668E+06 3.668E+06 3.716E+07 40.0675 1.00000
  4.467E+12 4.467E+12 4.790E+00 2.169E+04 3.850E+05 3.792E+06 4.199E+06 4.199E+06 3.729E+07 40.2977 1.00000
  5.012E+12 5.012E+12 4.813E+00 2.433E+04 4.319E+05 4.350E+06 4.806E+06 4.806E+06 3.741E+07 40.5280 1.00000
  5.623E+12 5.623E+12 4.836E+00 2.730E+04 4.846E+05 4.991E+06 5.502E+06 5.502E+06 3.753E+07 40.7583 1.00000
  6.310E+12 6.310E+12 4.859E+00 3.063E+04 5.437E+05 5.726E+06 6.300E+06 6.300E+06 3.765E+07 40.9885 1.00000
  7.079E+12 7.079E+12 4.883E+00 3.437E+04 6.100E+05 6.569E+06 7.214E+06 7.214E+06 3.776E+07 41.2188 1.00000
  7.943E+12 7.943E+12 4.906E+00 3.857E+04 6.844E+05 7.538E+06 8.261E+06 8.261E+06 3.787E+07 41.4490 1.00000
  8.913E+12 8.913E+12 4.929E+00 4.327E+04 7.679E+05 8.649E+06 9.460E+06 9.460E+06 3.798E+07 41.6793 1.00000
  1.000E+13 1.000E+13 4.953E+00 4.855E+04 8.615E+05 9.925E+06 1.084E+07 1.084E+07 3.809E+07 41.9096 1.00000
  1.122E+13 1.122E+13 4.977E+00 5.448E+04 9.666E+05 1.139E+07 1.241E+07 1.241E+07 3.819E+07 42.1398 1.00000
  1.259E+13 1.259E+13 5.001E+00 6.112E+04 1.084E+06 1.307E+07 1.422E+07 1.422E+07 3.830E+07 42.3701 1.00000
  1.413E+13 1.413E+13 5.025E+00 6.858E+04 1.217E+06 1.500E+07 1.629E+07 1.629E+07 3.840E+07 42.6003 1.00000
  1.585E+13 1.585E+13 5.049E+00 7.695E+04 1.365E+06 1.722E+07 1.866E+07 1.866E+07 3.850E+07 42.8306 1.00000
  1.778E+13 1.778E+13 5.073E+00 8.634E+04 1.532E+06 1.976E+07 2.138E+07 2.138E+07 3.860E+07 43.0608 1.00000
  1.995E+13 1.995E+13 5.098E+00 9.688E+04 1.718E+06 2.268E+07 2.450E+07 2.450E+07 3.869E+07 43.2911 1.00000
  2.239E+13 2.239E+13 5.122E+00 1.087E+05 1.928E+06 2.604E+07 2.808E+07 2.808E+07 3.878E+07 43.5214 1.00000
  2.512E+13 2.512E+13 5.147E+00 1.220E+05 2.163E+06 2.989E+07 3.218E+07 3.218E+07 3.887E+07 43.7516 1.00000
  2.818E+13 2.818E+13 5.172E+00 1.368E+05 2.427E+06 3.432E+07 3.688E+07 3.688E+07 3.896E+07 43.9819 1.00000
  3.162E+13 3.162E+13 5.196E+00 1.535E+05 2.723E+06 3.940E+07 4.228E+07 4.228E+07 3.905E+07 44.2121 1.00000
  3.548E+13 3.548E+13 5.222E+00 1.723E+05 3.055E+06 4.524E+07 4.846E+07 4.846E+07 3.914E+07 44.4424 1.00000
  3.981E+13 3.981E+13 5.247E+00 1.933E+05 3.428E+06 5.194E+07 5.556E+07 5.556E+07 3.922E+07 44.6727 1.00000
  4.467E+13 4.467E+13 5.272E+00 2.169E+05 3.846E+06 5.964E+07 6.370E+07 6.370E+07 3.930E+07 44.9029 1.00000
  5.012E+13 5.012E+13 5.298E+00 2.433E+05 4.315E+06 6.848E+07 7.304E+07 7.304E+07 3.938E+07 45.1332 1.00000
  5.623E+13 5.623E+13 5.323E+00 2.730E+05 4.841E+06 7.864E+07 8.375E+07 8.375E+07 3.946E+07 45.3634 1.00000
  6.310E+13 6.310E+13 5.349E+00 3.064E+05 5.431E+06 9.031E+07 9.605E+07 9.605E+07 3.954E+07 45.5937 1.00000
  7.079E+13 7.079E+13 5.375E+00 3.437E+05 6.094E+06 1.037E+08 1.102E+08 1.102E+08 3.961E+07 45.8239 1.00000
  7.943E+13 7.943E+13 5.401E+00 3.857E+05 6.837E+06 1.191E+08 1.263E+08 1.263E+08 3.969E+07 46.0542 1.00000
  8.913E+13 8.913E+13 5.427E+00 4.327E+05 7.670E+06 1.368E+08 1.449E+08 1.449E+08 3.976E+07 46.2845 1.00000
