 Incident particle is a Tau with M = 1776.82000 MeV
 Index = 0: Cellulose
      Absorber with <Z/A> = 0.53036
 Sternheimer coef:  a     k=m_s   x_0    x_1    I[eV]   Cbar  delta0
                 0.1115  3.3810  0.1580  2.6778   77.6  3.2647 0.00

 *** Table generated with PUMAS v1.00 ***

      T         p     Ionization  brems     pair     photonuc  Radloss    dE/dx   CSDA Range  delta   beta
    [MeV]    [MeV/c]  -----------------------[MeV cm^2/g]------------------------  [g/cm^2]
  1.000E+05 1.018E+05 2.312E+00 1.339E-04 2.082E-03 8.368E-03 1.058E-02 2.322E+00 2.153E+04  4.9150 0.99985
  1.122E+05 1.140E+05 2.332E+00 1.547E-04 2.514E-03 9.453E-03 1.212E-02 2.344E+00 2.676E+04  5.1272 0.99988
  1.259E+05 1.277E+05 2.352E+00 1.786E-04 3.025E-03 1.062E-02 1.382E-02 2.366E+00 3.257E+04  5.3417 0.99990
  1.413E+05 1.430E+05 2.372E+00 2.061E-04 3.627E-03 1.194E-02 1.577E-02 2.388E+00 3.904E+04  5.5581 0.99992
  1.585E+05 1.603E+05 2.392E+00 2.377E-04 4.335E-03 1.341E-02 1.798E-02 2.410E+00 4.622E+04  5.7764 0.99994
  1.778E+05 1.796E+05 2.412E+00 2.740E-04 5.166E-03 1.505E-02 2.049E-02 2.432E+00 5.421E+04  5.9963 0.99995
  1.995E+05 2.013E+05 2.432E+00 3.158E-04 6.139E-03 1.693E-02 2.339E-02 2.455E+00 6.309E+04  6.2178 0.99996
  2.239E+05 2.256E+05 2.451E+00 3.638E-04 7.277E-03 1.898E-02 2.662E-02 2.478E+00 7.296E+04  6.4406 0.99997
  2.512E+05 2.530E+05 2.471E+00 4.189E-04 8.605E-03 2.128E-02 3.031E-02 2.501E+00 8.393E+04  6.6647 0.99998
  2.818E+05 2.836E+05 2.490E+00 4.821E-04 1.015E-02 2.388E-02 3.451E-02 2.525E+00 9.613E+04  6.8898 0.99998
  3.162E+05 3.180E+05 2.510E+00 5.547E-04 1.195E-02 2.681E-02 3.931E-02 2.549E+00 1.097E+05  7.1159 0.99998
  3.548E+05 3.566E+05 2.529E+00 6.379E-04 1.404E-02 3.010E-02 4.478E-02 2.574E+00 1.247E+05  7.3429 0.99999
  3.981E+05 3.999E+05 2.549E+00 7.332E-04 1.646E-02 3.378E-02 5.097E-02 2.600E+00 1.415E+05  7.5705 0.99999
  4.467E+05 4.485E+05 2.568E+00 8.426E-04 1.926E-02 3.790E-02 5.800E-02 2.626E+00 1.601E+05  7.7987 0.99999
  5.012E+05 5.030E+05 2.587E+00 9.679E-04 2.250E-02 4.254E-02 6.601E-02 2.653E+00 1.807E+05  8.0274 0.99999
  5.623E+05 5.641E+05 2.607E+00 1.111E-03 2.624E-02 4.757E-02 7.492E-02 2.682E+00 2.036E+05  8.2565 1.00000
  6.310E+05 6.327E+05 2.626E+00 1.276E-03 3.054E-02 5.324E-02 8.506E-02 2.711E+00 2.291E+05  8.4858 1.00000
  7.079E+05 7.097E+05 2.645E+00 1.464E-03 3.551E-02 5.964E-02 9.661E-02 2.741E+00 2.573E+05  8.7154 1.00000
  7.943E+05 7.961E+05 2.664E+00 1.679E-03 4.121E-02 6.687E-02 1.098E-01 2.774E+00 2.887E+05  8.9451 1.00000
  8.913E+05 8.930E+05 2.683E+00 1.926E-03 4.776E-02 7.504E-02 1.247E-01 2.807E+00 3.234E+05  9.1749 1.00000
  1.000E+06 1.002E+06 2.702E+00 2.208E-03 5.528E-02 8.429E-02 1.418E-01 2.843E+00 3.619E+05  9.4047 1.00000
  1.122E+06 1.124E+06 2.720E+00 2.530E-03 6.390E-02 9.476E-02 1.612E-01 2.881E+00 4.045E+05  9.6346 1.00000
  1.259E+06 1.261E+06 2.739E+00 2.899E-03 7.376E-02 1.066E-01 1.833E-01 2.922E+00 4.517E+05  9.8645 1.00000
  1.413E+06 1.414E+06 2.757E+00 3.321E-03 8.504E-02 1.201E-01 2.084E-01 2.966E+00 5.039E+05 10.0944 1.00000
  1.585E+06 1.587E+06 2.776E+00 3.803E-03 9.793E-02 1.353E-01 2.370E-01 3.013E+00 5.615E+05 10.3244 1.00000
  1.778E+06 1.780E+06 2.794E+00 4.353E-03 1.126E-01 1.526E-01 2.696E-01 3.064E+00 6.252E+05 10.5544 1.00000
  1.995E+06 1.997E+06 2.812E+00 4.983E-03 1.294E-01 1.722E-01 3.066E-01 3.119E+00 6.954E+05 10.7845 1.00000
  2.239E+06 2.240E+06 2.830E+00 5.701E-03 1.485E-01 1.945E-01 3.487E-01 3.179E+00 7.727E+05 11.0146 1.00000
  2.512E+06 2.514E+06 2.848E+00 6.522E-03 1.703E-01 2.198E-01 3.966E-01 3.245E+00 8.578E+05 11.2446 1.00000
  2.818E+06 2.820E+06 2.866E+00 7.459E-03 1.950E-01 2.486E-01 4.511E-01 3.317E+00 9.512E+05 11.4747 1.00000
  3.162E+06 3.164E+06 2.883E+00 8.529E-03 2.231E-01 2.814E-01 5.130E-01 3.396E+00 1.054E+06 11.7049 1.00000
  3.548E+06 3.550E+06 2.901E+00 9.749E-03 2.550E-01 3.186E-01 5.834E-01 3.484E+00 1.166E+06 11.9350 1.00000
  3.981E+06 3.983E+06 2.918E+00 1.114E-02 2.912E-01 3.610E-01 6.634E-01 3.581E+00 1.288E+06 12.1652 1.00000
  4.467E+06 4.469E+06 2.935E+00 1.273E-02 3.323E-01 4.092E-01 7.542E-01 3.689E+00 1.422E+06 12.3953 1.00000
  5.012E+06 5.014E+06 2.952E+00 1.454E-02 3.788E-01 4.642E-01 8.575E-01 3.809E+00 1.568E+06 12.6255 1.00000
  5.623E+06 5.625E+06 2.968E+00 1.660E-02 4.314E-01 5.267E-01 9.747E-01 3.943E+00 1.725E+06 12.8557 1.00000
  6.310E+06 6.311E+06 2.985E+00 1.896E-02 4.910E-01 5.979E-01 1.108E+00 4.093E+00 1.896E+06 13.0859 1.00000
  7.079E+06 7.081E+06 3.001E+00 2.164E-02 5.583E-01 6.790E-01 1.259E+00 4.260E+00 2.081E+06 13.3161 1.00000
  7.943E+06 7.945E+06 3.017E+00 2.469E-02 6.345E-01 7.715E-01 1.431E+00 4.448E+00 2.279E+06 13.5463 1.00000
  8.913E+06 8.914E+06 3.033E+00 2.816E-02 7.205E-01 8.768E-01 1.625E+00 4.659E+00 2.492E+06 13.7765 1.00000
  1.000E+07 1.000E+07 3.049E+00 3.212E-02 8.175E-01 9.969E-01 1.847E+00 4.896E+00 2.720E+06 14.0067 1.00000
  1.122E+07 1.122E+07 3.065E+00 3.662E-02 9.271E-01 1.134E+00 2.098E+00 5.162E+00 2.963E+06 14.2369 1.00000
  1.259E+07 1.259E+07 3.080E+00 4.175E-02 1.051E+00 1.290E+00 2.382E+00 5.463E+00 3.221E+06 14.4671 1.00000
  1.413E+07 1.413E+07 3.096E+00 4.757E-02 1.190E+00 1.468E+00 2.706E+00 5.801E+00 3.494E+06 14.6974 1.00000
  1.585E+07 1.585E+07 3.111E+00 5.420E-02 1.347E+00 1.671E+00 3.072E+00 6.183E+00 3.781E+06 14.9276 1.00000
  1.778E+07 1.778E+07 3.126E+00 6.173E-02 1.524E+00 1.902E+00 3.488E+00 6.615E+00 4.084E+06 15.1578 1.00000
  1.995E+07 1.995E+07 3.142E+00 7.029E-02 1.724E+00 2.167E+00 3.960E+00 7.102E+00 4.401E+06 15.3881 1.00000
  2.239E+07 2.239E+07 3.157E+00 8.001E-02 1.948E+00 2.468E+00 4.496E+00 7.652E+00 4.731E+06 15.6183 1.00000
  2.512E+07 2.512E+07 3.172E+00 9.106E-02 2.201E+00 2.812E+00 5.103E+00 8.275E+00 5.075E+06 15.8485 1.00000
  2.818E+07 2.819E+07 3.187E+00 1.036E-01 2.485E+00 3.204E+00 5.792E+00 8.979E+00 5.431E+06 16.0788 1.00000
  3.162E+07 3.162E+07 3.201E+00 1.178E-01 2.805E+00 3.652E+00 6.574E+00 9.776E+00 5.798E+06 16.3090 1.00000
  3.548E+07 3.548E+07 3.216E+00 1.340E-01 3.165E+00 4.162E+00 7.461E+00 1.068E+01 6.176E+06 16.5393 1.00000
  3.981E+07 3.981E+07 3.231E+00 1.523E-01 3.569E+00 4.745E+00 8.467E+00 1.170E+01 6.564E+06 16.7695 1.00000
  4.467E+07 4.467E+07 3.246E+00 1.731E-01 4.024E+00 5.411E+00 9.608E+00 1.285E+01 6.961E+06 16.9998 1.00000
  5.012E+07 5.012E+07 3.260E+00 1.966E-01 4.535E+00 6.171E+00 1.090E+01 1.416E+01 7.365E+06 17.2300 1.00000
  5.623E+07 5.624E+07 3.275E+00 2.233E-01 5.110E+00 7.038E+00 1.237E+01 1.565E+01 7.776E+06 17.4603 1.00000
  6.310E+07 6.310E+07 3.290E+00 2.535E-01 5.756E+00 8.028E+00 1.404E+01 1.733E+01 8.194E+06 17.6905 1.00000
  7.079E+07 7.080E+07 3.305E+00 2.878E-01 6.481E+00 9.159E+00 1.593E+01 1.923E+01 8.616E+06 17.9208 1.00000
  7.943E+07 7.943E+07 3.319E+00 3.266E-01 7.296E+00 1.045E+01 1.807E+01 2.139E+01 9.042E+06 18.1510 1.00000
  8.913E+07 8.913E+07 3.334E+00 3.705E-01 8.212E+00 1.192E+01 2.051E+01 2.384E+01 9.472E+06 18.3813 1.00000
  1.000E+08 1.000E+08 3.349E+00 4.201E-01 9.240E+00 1.361E+01 2.327E+01 2.662E+01 9.905E+06 18.6115 1.00000
  1.122E+08 1.122E+08 3.364E+00 4.763E-01 1.039E+01 1.553E+01 2.640E+01 2.976E+01 1.034E+07 18.8418 1.00000
  1.259E+08 1.259E+08 3.379E+00 5.399E-01 1.169E+01 1.772E+01 2.996E+01 3.334E+01 1.077E+07 19.0720 1.00000
  1.413E+08 1.413E+08 3.394E+00 6.117E-01 1.315E+01 2.023E+01 3.399E+01 3.739E+01 1.121E+07 19.3023 1.00000
  1.585E+08 1.585E+08 3.409E+00 6.930E-01 1.478E+01 2.310E+01 3.857E+01 4.198E+01 1.165E+07 19.5326 1.00000
  1.778E+08 1.778E+08 3.424E+00 7.848E-01 1.662E+01 2.637E+01 4.377E+01 4.720E+01 1.208E+07 19.7628 1.00000
  1.995E+08 1.995E+08 3.439E+00 8.885E-01 1.868E+01 3.011E+01 4.967E+01 5.311E+01 1.252E+07 19.9931 1.00000
  2.239E+08 2.239E+08 3.454E+00 1.006E+00 2.099E+01 3.438E+01 5.637E+01 5.983E+01 1.295E+07 20.2233 1.00000
  2.512E+08 2.512E+08 3.469E+00 1.138E+00 2.359E+01 3.926E+01 6.398E+01 6.745E+01 1.338E+07 20.4536 1.00000
  2.818E+08 2.818E+08 3.484E+00 1.287E+00 2.650E+01 4.483E+01 7.262E+01 7.610E+01 1.381E+07 20.6838 1.00000
  3.162E+08 3.162E+08 3.499E+00 1.456E+00 2.977E+01 5.120E+01 8.243E+01 8.593E+01 1.423E+07 20.9141 1.00000
  3.548E+08 3.548E+08 3.515E+00 1.646E+00 3.344E+01 5.848E+01 9.357E+01 9.708E+01 1.466E+07 21.1444 1.00000
  3.981E+08 3.981E+08 3.530E+00 1.860E+00 3.756E+01 6.679E+01 1.062E+02 1.097E+02 1.508E+07 21.3746 1.00000
  4.467E+08 4.467E+08 3.546E+00 2.102E+00 4.219E+01 7.630E+01 1.206E+02 1.241E+02 1.549E+07 21.6049 1.00000
  5.012E+08 5.012E+08 3.561E+00 2.374E+00 4.738E+01 8.716E+01 1.369E+02 1.405E+02 1.591E+07 21.8351 1.00000
  5.623E+08 5.623E+08 3.577E+00 2.681E+00 5.320E+01 9.957E+01 1.555E+02 1.590E+02 1.632E+07 22.0654 1.00000
  6.310E+08 6.310E+08 3.593E+00 3.027E+00 5.974E+01 1.138E+02 1.765E+02 1.801E+02 1.672E+07 22.2956 1.00000
  7.079E+08 7.079E+08 3.609E+00 3.417E+00 6.707E+01 1.300E+02 2.005E+02 2.041E+02 1.713E+07 22.5259 1.00000
  7.943E+08 7.943E+08 3.625E+00 3.857E+00 7.530E+01 1.485E+02 2.277E+02 2.313E+02 1.752E+07 22.7562 1.00000
  8.913E+08 8.913E+08 3.641E+00 4.352E+00 8.454E+01 1.697E+02 2.586E+02 2.622E+02 1.792E+07 22.9864 1.00000
  1.000E+09 1.000E+09 3.657E+00 4.909E+00 9.490E+01 1.939E+02 2.938E+02 2.974E+02 1.831E+07 23.2167 1.00000
  1.122E+09 1.122E+09 3.673E+00 5.536E+00 1.065E+02 2.216E+02 3.337E+02 3.374E+02 1.869E+07 23.4469 1.00000
  1.259E+09 1.259E+09 3.689E+00 6.241E+00 1.196E+02 2.533E+02 3.791E+02 3.828E+02 1.908E+07 23.6772 1.00000
  1.413E+09 1.413E+09 3.705E+00 7.036E+00 1.342E+02 2.895E+02 4.308E+02 4.345E+02 1.945E+07 23.9074 1.00000
  1.585E+09 1.585E+09 3.722E+00 7.929E+00 1.507E+02 3.309E+02 4.895E+02 4.932E+02 1.983E+07 24.1377 1.00000
  1.778E+09 1.778E+09 3.738E+00 8.934E+00 1.691E+02 3.783E+02 5.563E+02 5.600E+02 2.020E+07 24.3680 1.00000
  1.995E+09 1.995E+09 3.755E+00 1.006E+01 1.898E+02 4.324E+02 6.323E+02 6.360E+02 2.056E+07 24.5982 1.00000
  2.239E+09 2.239E+09 3.772E+00 1.134E+01 2.130E+02 4.943E+02 7.187E+02 7.225E+02 2.092E+07 24.8285 1.00000
  2.512E+09 2.512E+09 3.788E+00 1.277E+01 2.390E+02 5.652E+02 8.170E+02 8.208E+02 2.127E+07 25.0587 1.00000
  2.818E+09 2.818E+09 3.805E+00 1.437E+01 2.683E+02 6.462E+02 9.288E+02 9.326E+02 2.163E+07 25.2890 1.00000
  3.162E+09 3.162E+09 3.822E+00 1.618E+01 3.011E+02 7.388E+02 1.056E+03 1.060E+03 2.197E+07 25.5193 1.00000
  3.548E+09 3.548E+09 3.839E+00 1.821E+01 3.379E+02 8.448E+02 1.201E+03 1.205E+03 2.231E+07 25.7495 1.00000
  3.981E+09 3.981E+09 3.857E+00 2.049E+01 3.792E+02 9.660E+02 1.366E+03 1.370E+03 2.265E+07 25.9798 1.00000
  4.467E+09 4.467E+09 3.874E+00 2.306E+01 4.255E+02 1.105E+03 1.553E+03 1.557E+03 2.299E+07 26.2100 1.00000
  5.012E+09 5.012E+09 3.891E+00 2.594E+01 4.775E+02 1.263E+03 1.767E+03 1.771E+03 2.331E+07 26.4403 1.00000
  5.623E+09 5.623E+09 3.909E+00 2.918E+01 5.358E+02 1.445E+03 2.010E+03 2.014E+03 2.364E+07 26.6705 1.00000
  6.310E+09 6.310E+09 3.926E+00 3.281E+01 6.012E+02 1.653E+03 2.287E+03 2.291E+03 2.396E+07 26.9008 1.00000
  7.079E+09 7.079E+09 3.944E+00 3.690E+01 6.746E+02 1.890E+03 2.602E+03 2.606E+03 2.428E+07 27.1311 1.00000
  7.943E+09 7.943E+09 3.962E+00 4.149E+01 7.570E+02 2.162E+03 2.961E+03 2.965E+03 2.459E+07 27.3613 1.00000
  8.913E+09 8.913E+09 3.979E+00 4.664E+01 8.494E+02 2.473E+03 3.370E+03 3.374E+03 2.489E+07 27.5916 1.00000
  1.000E+10 1.000E+10 3.997E+00 5.242E+01 9.531E+02 2.830E+03 3.835E+03 3.839E+03 2.520E+07 27.8218 1.00000
  1.122E+10 1.122E+10 4.015E+00 5.892E+01 1.070E+03 3.237E+03 4.366E+03 4.370E+03 2.549E+07 28.0521 1.00000
  1.259E+10 1.259E+10 4.034E+00 6.622E+01 1.200E+03 3.704E+03 4.970E+03 4.974E+03 2.579E+07 28.2824 1.00000
  1.413E+10 1.413E+10 4.052E+00 7.441E+01 1.347E+03 4.238E+03 5.659E+03 5.663E+03 2.608E+07 28.5126 1.00000
  1.585E+10 1.585E+10 4.070E+00 8.361E+01 1.511E+03 4.849E+03 6.443E+03 6.447E+03 2.637E+07 28.7429 1.00000
  1.778E+10 1.778E+10 4.089E+00 9.393E+01 1.695E+03 5.549E+03 7.338E+03 7.342E+03 2.665E+07 28.9731 1.00000
  1.995E+10 1.995E+10 4.107E+00 1.055E+02 1.902E+03 6.349E+03 8.357E+03 8.361E+03 2.692E+07 29.2034 1.00000
  2.239E+10 2.239E+10 4.126E+00 1.185E+02 2.134E+03 7.266E+03 9.519E+03 9.523E+03 2.720E+07 29.4337 1.00000
  2.512E+10 2.512E+10 4.145E+00 1.331E+02 2.395E+03 8.316E+03 1.084E+04 1.085E+04 2.747E+07 29.6639 1.00000
  2.818E+10 2.818E+10 4.164E+00 1.495E+02 2.687E+03 9.518E+03 1.235E+04 1.236E+04 2.773E+07 29.8942 1.00000
  3.162E+10 3.162E+10 4.183E+00 1.679E+02 3.015E+03 1.089E+04 1.408E+04 1.408E+04 2.799E+07 30.1244 1.00000
  3.548E+10 3.548E+10 4.202E+00 1.886E+02 3.383E+03 1.247E+04 1.604E+04 1.605E+04 2.825E+07 30.3547 1.00000
  3.981E+10 3.981E+10 4.221E+00 2.118E+02 3.796E+03 1.427E+04 1.828E+04 1.829E+04 2.850E+07 30.5849 1.00000
  4.467E+10 4.467E+10 4.240E+00 2.378E+02 4.259E+03 1.634E+04 2.084E+04 2.084E+04 2.875E+07 30.8152 1.00000
  5.012E+10 5.012E+10 4.260E+00 2.670E+02 4.778E+03 1.871E+04 2.375E+04 2.376E+04 2.900E+07 31.0455 1.00000
  5.623E+10 5.623E+10 4.279E+00 2.998E+02 5.361E+03 2.142E+04 2.708E+04 2.708E+04 2.924E+07 31.2757 1.00000
  6.310E+10 6.310E+10 4.299E+00 3.366E+02 6.016E+03 2.452E+04 3.087E+04 3.088E+04 2.948E+07 31.5060 1.00000
  7.079E+10 7.079E+10 4.319E+00 3.778E+02 6.749E+03 2.808E+04 3.521E+04 3.521E+04 2.971E+07 31.7362 1.00000
  7.943E+10 7.943E+10 4.338E+00 4.242E+02 7.573E+03 3.215E+04 4.015E+04 4.015E+04 2.994E+07 31.9665 1.00000
  8.913E+10 8.913E+10 4.358E+00 4.761E+02 8.497E+03 3.682E+04 4.579E+04 4.579E+04 3.017E+07 32.1968 1.00000
  1.000E+11 1.000E+11 4.379E+00 5.345E+02 9.533E+03 4.216E+04 5.223E+04 5.224E+04 3.039E+07 32.4270 1.00000
  1.122E+11 1.122E+11 4.399E+00 5.999E+02 1.070E+04 4.829E+04 5.958E+04 5.959E+04 3.061E+07 32.6573 1.00000
  1.259E+11 1.259E+11 4.419E+00 6.734E+02 1.200E+04 5.530E+04 6.798E+04 6.798E+04 3.083E+07 32.8875 1.00000
  1.413E+11 1.413E+11 4.440E+00 7.558E+02 1.347E+04 6.334E+04 7.756E+04 7.757E+04 3.104E+07 33.1178 1.00000
  1.585E+11 1.585E+11 4.460E+00 8.483E+02 1.511E+04 7.255E+04 8.851E+04 8.851E+04 3.125E+07 33.3480 1.00000
  1.778E+11 1.778E+11 4.481E+00 9.520E+02 1.695E+04 8.311E+04 1.010E+05 1.010E+05 3.145E+07 33.5783 1.00000
  1.995E+11 1.995E+11 4.502E+00 1.068E+03 1.902E+04 9.520E+04 1.153E+05 1.153E+05 3.165E+07 33.8086 1.00000
  2.239E+11 2.239E+11 4.522E+00 1.199E+03 2.134E+04 1.091E+05 1.316E+05 1.316E+05 3.185E+07 34.0388 1.00000
  2.512E+11 2.512E+11 4.543E+00 1.346E+03 2.394E+04 1.250E+05 1.502E+05 1.502E+05 3.205E+07 34.2691 1.00000
  2.818E+11 2.818E+11 4.565E+00 1.510E+03 2.686E+04 1.432E+05 1.715E+05 1.715E+05 3.224E+07 34.4993 1.00000
  3.162E+11 3.162E+11 4.586E+00 1.695E+03 3.014E+04 1.640E+05 1.959E+05 1.959E+05 3.243E+07 34.7296 1.00000
  3.548E+11 3.548E+11 4.607E+00 1.902E+03 3.382E+04 1.880E+05 2.237E+05 2.237E+05 3.261E+07 34.9599 1.00000
  3.981E+11 3.981E+11 4.629E+00 2.134E+03 3.794E+04 2.154E+05 2.555E+05 2.555E+05 3.279E+07 35.1901 1.00000
  4.467E+11 4.467E+11 4.650E+00 2.395E+03 4.257E+04 2.468E+05 2.918E+05 2.918E+05 3.297E+07 35.4204 1.00000
  5.012E+11 5.012E+11 4.672E+00 2.688E+03 4.776E+04 2.829E+05 3.333E+05 3.333E+05 3.315E+07 35.6506 1.00000
  5.623E+11 5.623E+11 4.694E+00 3.016E+03 5.359E+04 3.242E+05 3.808E+05 3.808E+05 3.332E+07 35.8809 1.00000
  6.310E+11 6.310E+11 4.716E+00 3.384E+03 6.013E+04 3.715E+05 4.351E+05 4.351E+05 3.349E+07 36.1111 1.00000
  7.079E+11 7.079E+11 4.738E+00 3.798E+03 6.746E+04 4.259E+05 4.971E+05 4.971E+05 3.365E+07 36.3414 1.00000
  7.943E+11 7.943E+11 4.760E+00 4.262E+03 7.569E+04 4.881E+05 5.681E+05 5.681E+05 3.382E+07 36.5717 1.00000
  8.913E+11 8.913E+11 4.783E+00 4.782E+03 8.492E+04 5.596E+05 6.493E+05 6.493E+05 3.398E+07 36.8019 1.00000
  1.000E+12 1.000E+12 4.805E+00 5.366E+03 9.528E+04 6.415E+05 7.421E+05 7.421E+05 3.413E+07 37.0322 1.00000
  1.122E+12 1.122E+12 4.828E+00 6.021E+03 1.069E+05 7.354E+05 8.483E+05 8.483E+05 3.429E+07 37.2624 1.00000
  1.259E+12 1.259E+12 4.850E+00 6.756E+03 1.199E+05 8.431E+05 9.698E+05 9.698E+05 3.444E+07 37.4927 1.00000
  1.413E+12 1.413E+12 4.873E+00 7.581E+03 1.346E+05 9.667E+05 1.109E+06 1.109E+06 3.459E+07 37.7230 1.00000
  1.585E+12 1.585E+12 4.896E+00 8.506E+03 1.510E+05 1.108E+06 1.268E+06 1.268E+06 3.473E+07 37.9532 1.00000
  1.778E+12 1.778E+12 4.919E+00 9.545E+03 1.694E+05 1.271E+06 1.450E+06 1.450E+06 3.487E+07 38.1835 1.00000
  1.995E+12 1.995E+12 4.943E+00 1.071E+04 1.901E+05 1.457E+06 1.658E+06 1.658E+06 3.501E+07 38.4137 1.00000
  2.239E+12 2.239E+12 4.966E+00 1.202E+04 2.132E+05 1.671E+06 1.897E+06 1.897E+06 3.515E+07 38.6440 1.00000
  2.512E+12 2.512E+12 4.989E+00 1.348E+04 2.393E+05 1.917E+06 2.169E+06 2.169E+06 3.529E+07 38.8742 1.00000
  2.818E+12 2.818E+12 5.013E+00 1.513E+04 2.684E+05 2.198E+06 2.482E+06 2.482E+06 3.542E+07 39.1045 1.00000
  3.162E+12 3.162E+12 5.037E+00 1.698E+04 3.012E+05 2.521E+06 2.839E+06 2.840E+06 3.555E+07 39.3348 1.00000
  3.548E+12 3.548E+12 5.061E+00 1.905E+04 3.379E+05 2.892E+06 3.249E+06 3.249E+06 3.568E+07 39.5650 1.00000
  3.981E+12 3.981E+12 5.085E+00 2.137E+04 3.791E+05 3.317E+06 3.718E+06 3.718E+06 3.580E+07 39.7953 1.00000
  4.467E+12 4.467E+12 5.109E+00 2.398E+04 4.254E+05 3.805E+06 4.255E+06 4.255E+06 3.592E+07 40.0255 1.00000
  5.012E+12 5.012E+12 5.133E+00 2.691E+04 4.773E+05 4.365E+06 4.870E+06 4.870E+06 3.604E+07 40.2558 1.00000
  5.623E+12 5.623E+12 5.157E+00 3.019E+04 5.355E+05 5.008E+06 5.574E+06 5.574E+06 3.616E+07 40.4861 1.00000
  6.310E+12 6.310E+12 5.182E+00 3.387E+04 6.008E+05 5.746E+06 6.380E+06 6.380E+06 3.628E+07 40.7163 1.00000
  7.079E+12 7.079E+12 5.207E+00 3.801E+04 6.741E+05 6.592E+06 7.305E+06 7.305E+06 3.639E+07 40.9466 1.00000
  7.943E+12 7.943E+12 5.231E+00 4.265E+04 7.563E+05 7.564E+06 8.363E+06 8.363E+06 3.650E+07 41.1768 1.00000
  8.913E+12 8.913E+12 5.256E+00 4.785E+04 8.485E+05 8.680E+06 9.576E+06 9.576E+06 3.661E+07 41.4071 1.00000
  1.000E+13 1.000E+13 5.281E+00 5.369E+04 9.520E+05 9.960E+06 1.097E+07 1.097E+07 3.672E+07 41.6374 1.00000
  1.122E+13 1.122E+13 5.307E+00 6.024E+04 1.068E+06 1.143E+07 1.256E+07 1.256E+07 3.682E+07 41.8676 1.00000
  1.259E+13 1.259E+13 5.332E+00 6.759E+04 1.198E+06 1.312E+07 1.438E+07 1.438E+07 3.692E+07 42.0979 1.00000
  1.413E+13 1.413E+13 5.358E+00 7.584E+04 1.345E+06 1.505E+07 1.647E+07 1.647E+07 3.702E+07 42.3281 1.00000
  1.585E+13 1.585E+13 5.383E+00 8.509E+04 1.508E+06 1.728E+07 1.887E+07 1.887E+07 3.712E+07 42.5584 1.00000
  1.778E+13 1.778E+13 5.409E+00 9.548E+04 1.692E+06 1.983E+07 2.162E+07 2.162E+07 3.722E+07 42.7886 1.00000
  1.995E+13 1.995E+13 5.435E+00 1.071E+05 1.899E+06 2.276E+07 2.477E+07 2.477E+07 3.731E+07 43.0189 1.00000
  2.239E+13 2.239E+13 5.461E+00 1.202E+05 2.130E+06 2.613E+07 2.838E+07 2.838E+07 3.740E+07 43.2492 1.00000
  2.512E+13 2.512E+13 5.487E+00 1.349E+05 2.390E+06 3.000E+07 3.252E+07 3.252E+07 3.749E+07 43.4794 1.00000
  2.818E+13 2.818E+13 5.513E+00 1.513E+05 2.682E+06 3.444E+07 3.727E+07 3.727E+07 3.758E+07 43.7097 1.00000
  3.162E+13 3.162E+13 5.540E+00 1.698E+05 3.009E+06 3.954E+07 4.272E+07 4.272E+07 3.767E+07 43.9399 1.00000
  3.548E+13 3.548E+13 5.567E+00 1.905E+05 3.376E+06 4.539E+07 4.896E+07 4.896E+07 3.775E+07 44.1702 1.00000
  3.981E+13 3.981E+13 5.593E+00 2.138E+05 3.788E+06 5.212E+07 5.612E+07 5.612E+07 3.783E+07 44.4005 1.00000
  4.467E+13 4.467E+13 5.620E+00 2.398E+05 4.249E+06 5.985E+07 6.434E+07 6.434E+07 3.792E+07 44.6307 1.00000
  5.012E+13 5.012E+13 5.647E+00 2.691E+05 4.768E+06 6.872E+07 7.376E+07 7.376E+07 3.799E+07 44.8610 1.00000
  5.623E+13 5.623E+13 5.674E+00 3.019E+05 5.349E+06 7.892E+07 8.457E+07 8.457E+07 3.807E+07 45.0912 1.00000
  6.310E+13 6.310E+13 5.702E+00 3.388E+05 6.001E+06 9.063E+07 9.697E+07 9.697E+07 3.815E+07 45.3215 1.00000
  7.079E+13 7.079E+13 5.729E+00 3.801E+05 6.733E+06 1.041E+08 1.112E+08 1.112E+08 3.822E+07 45.5517 1.00000
  7.943E+13 7.943E+13 5.757E+00 4.265E+05 7.555E+06 1.195E+08 1.275E+08 1.275E+08 3.830E+07 45.7820 1.00000
  8.913E+13 8.913E+13 5.785E+00 4.785E+05 8.476E+06 1.373E+08 1.463E+08 1.463E+08 3.837E+07 46.0123 1.00000
