 Incident particle is a Tau with M = 1776.82000 MeV
 Index = 0: CericSulfateDosimeterSolution
      Absorber with <Z/A> = 0.55270
 Sternheimer coef:  a     k=m_s   x_0    x_1    I[eV]   Cbar  delta0
                 0.0767  3.5607  0.2363  2.8769   76.7  3.5212 0.00

 *** Table generated with PUMAS v1.00 ***

      T         p     Ionization  brems     pair     photonuc  Radloss    dE/dx   CSDA Range  delta   beta
    [MeV]    [MeV/c]  -----------------------[MeV cm^2/g]------------------------  [g/cm^2]
  1.000E+05 1.018E+05 2.430E+00 1.486E-04 2.322E-03 8.367E-03 1.084E-02 2.441E+00 2.048E+04  4.6889 0.99985
  1.122E+05 1.140E+05 2.452E+00 1.717E-04 2.803E-03 9.451E-03 1.243E-02 2.464E+00 2.546E+04  4.8984 0.99988
  1.259E+05 1.277E+05 2.473E+00 1.983E-04 3.370E-03 1.062E-02 1.419E-02 2.487E+00 3.099E+04  5.1103 0.99990
  1.413E+05 1.430E+05 2.494E+00 2.288E-04 4.039E-03 1.193E-02 1.620E-02 2.510E+00 3.714E+04  5.3242 0.99992
  1.585E+05 1.603E+05 2.515E+00 2.640E-04 4.825E-03 1.341E-02 1.850E-02 2.533E+00 4.397E+04  5.5401 0.99994
  1.778E+05 1.796E+05 2.536E+00 3.044E-04 5.748E-03 1.505E-02 2.110E-02 2.557E+00 5.157E+04  5.7577 0.99995
  1.995E+05 2.013E+05 2.556E+00 3.509E-04 6.829E-03 1.693E-02 2.411E-02 2.581E+00 6.002E+04  5.9770 0.99996
  2.239E+05 2.256E+05 2.577E+00 4.042E-04 8.092E-03 1.898E-02 2.748E-02 2.605E+00 6.941E+04  6.1977 0.99997
  2.512E+05 2.530E+05 2.598E+00 4.655E-04 9.566E-03 2.128E-02 3.131E-02 2.629E+00 7.985E+04  6.4198 0.99998
  2.818E+05 2.836E+05 2.618E+00 5.358E-04 1.128E-02 2.387E-02 3.569E-02 2.654E+00 9.145E+04  6.6432 0.99998
  3.162E+05 3.180E+05 2.639E+00 6.165E-04 1.328E-02 2.681E-02 4.070E-02 2.680E+00 1.043E+05  6.8676 0.99998
  3.548E+05 3.566E+05 2.659E+00 7.090E-04 1.559E-02 3.010E-02 4.640E-02 2.706E+00 1.187E+05  7.0929 0.99999
  3.981E+05 3.999E+05 2.680E+00 8.151E-04 1.828E-02 3.377E-02 5.286E-02 2.732E+00 1.346E+05  7.3192 0.99999
  4.467E+05 4.485E+05 2.700E+00 9.368E-04 2.138E-02 3.789E-02 6.021E-02 2.760E+00 1.523E+05  7.5462 0.99999
  5.012E+05 5.030E+05 2.720E+00 1.076E-03 2.497E-02 4.254E-02 6.858E-02 2.789E+00 1.719E+05  7.7738 0.99999
  5.623E+05 5.641E+05 2.740E+00 1.236E-03 2.911E-02 4.757E-02 7.791E-02 2.818E+00 1.938E+05  8.0020 1.00000
  6.310E+05 6.327E+05 2.760E+00 1.419E-03 3.388E-02 5.324E-02 8.854E-02 2.849E+00 2.180E+05  8.2306 1.00000
  7.079E+05 7.097E+05 2.780E+00 1.628E-03 3.938E-02 5.964E-02 1.006E-01 2.881E+00 2.448E+05  8.4597 1.00000
  7.943E+05 7.961E+05 2.800E+00 1.868E-03 4.569E-02 6.687E-02 1.144E-01 2.914E+00 2.747E+05  8.6890 1.00000
  8.913E+05 8.930E+05 2.820E+00 2.142E-03 5.295E-02 7.504E-02 1.301E-01 2.950E+00 3.077E+05  8.9185 1.00000
  1.000E+06 1.002E+06 2.839E+00 2.455E-03 6.127E-02 8.429E-02 1.480E-01 2.987E+00 3.444E+05  9.1483 1.00000
  1.122E+06 1.124E+06 2.859E+00 2.814E-03 7.080E-02 9.476E-02 1.684E-01 3.027E+00 3.849E+05  9.3781 1.00000
  1.259E+06 1.261E+06 2.878E+00 3.224E-03 8.171E-02 1.066E-01 1.915E-01 3.070E+00 4.299E+05  9.6080 1.00000
  1.413E+06 1.414E+06 2.897E+00 3.693E-03 9.419E-02 1.201E-01 2.179E-01 3.115E+00 4.795E+05  9.8379 1.00000
  1.585E+06 1.587E+06 2.916E+00 4.229E-03 1.084E-01 1.353E-01 2.480E-01 3.164E+00 5.344E+05 10.0679 1.00000
  1.778E+06 1.780E+06 2.936E+00 4.841E-03 1.247E-01 1.526E-01 2.821E-01 3.218E+00 5.950E+05 10.2979 1.00000
  1.995E+06 1.997E+06 2.954E+00 5.541E-03 1.432E-01 1.722E-01 3.210E-01 3.275E+00 6.619E+05 10.5280 1.00000
  2.239E+06 2.240E+06 2.973E+00 6.340E-03 1.643E-01 1.945E-01 3.652E-01 3.338E+00 7.355E+05 10.7581 1.00000
  2.512E+06 2.514E+06 2.992E+00 7.252E-03 1.884E-01 2.199E-01 4.155E-01 3.407E+00 8.165E+05 10.9881 1.00000
  2.818E+06 2.820E+06 3.010E+00 8.293E-03 2.157E-01 2.487E-01 4.726E-01 3.483E+00 9.055E+05 11.2182 1.00000
  3.162E+06 3.164E+06 3.028E+00 9.482E-03 2.467E-01 2.814E-01 5.376E-01 3.566E+00 1.003E+06 11.4484 1.00000
  3.548E+06 3.550E+06 3.046E+00 1.084E-02 2.819E-01 3.187E-01 6.114E-01 3.658E+00 1.110E+06 11.6785 1.00000
  3.981E+06 3.983E+06 3.064E+00 1.238E-02 3.219E-01 3.610E-01 6.953E-01 3.760E+00 1.227E+06 11.9087 1.00000
  4.467E+06 4.469E+06 3.082E+00 1.415E-02 3.672E-01 4.093E-01 7.906E-01 3.873E+00 1.354E+06 12.1388 1.00000
  5.012E+06 5.014E+06 3.100E+00 1.616E-02 4.184E-01 4.642E-01 8.988E-01 3.998E+00 1.493E+06 12.3690 1.00000
  5.623E+06 5.625E+06 3.117E+00 1.845E-02 4.765E-01 5.267E-01 1.022E+00 4.139E+00 1.643E+06 12.5992 1.00000
  6.310E+06 6.311E+06 3.134E+00 2.106E-02 5.422E-01 5.980E-01 1.161E+00 4.295E+00 1.806E+06 12.8294 1.00000
  7.079E+06 7.081E+06 3.151E+00 2.404E-02 6.165E-01 6.791E-01 1.320E+00 4.471E+00 1.981E+06 13.0596 1.00000
  7.943E+06 7.945E+06 3.168E+00 2.743E-02 7.004E-01 7.716E-01 1.499E+00 4.668E+00 2.170E+06 13.2898 1.00000
  8.913E+06 8.914E+06 3.185E+00 3.128E-02 7.952E-01 8.769E-01 1.703E+00 4.888E+00 2.373E+06 13.5200 1.00000
  1.000E+07 1.000E+07 3.201E+00 3.567E-02 9.022E-01 9.971E-01 1.935E+00 5.136E+00 2.591E+06 13.7502 1.00000
  1.122E+07 1.122E+07 3.218E+00 4.067E-02 1.023E+00 1.134E+00 2.198E+00 5.415E+00 2.822E+06 13.9804 1.00000
  1.259E+07 1.259E+07 3.234E+00 4.635E-02 1.159E+00 1.290E+00 2.495E+00 5.729E+00 3.068E+06 14.2106 1.00000
  1.413E+07 1.413E+07 3.250E+00 5.282E-02 1.313E+00 1.468E+00 2.833E+00 6.084E+00 3.328E+06 14.4409 1.00000
  1.585E+07 1.585E+07 3.266E+00 6.017E-02 1.486E+00 1.671E+00 3.217E+00 6.483E+00 3.603E+06 14.6711 1.00000
  1.778E+07 1.778E+07 3.282E+00 6.851E-02 1.680E+00 1.903E+00 3.652E+00 6.934E+00 3.891E+06 14.9013 1.00000
  1.995E+07 1.995E+07 3.298E+00 7.800E-02 1.900E+00 2.167E+00 4.145E+00 7.442E+00 4.194E+06 15.1316 1.00000
  2.239E+07 2.239E+07 3.313E+00 8.878E-02 2.147E+00 2.468E+00 4.704E+00 8.017E+00 4.509E+06 15.3618 1.00000
  2.512E+07 2.512E+07 3.329E+00 1.010E-01 2.425E+00 2.812E+00 5.338E+00 8.667E+00 4.837E+06 15.5920 1.00000
  2.818E+07 2.819E+07 3.345E+00 1.149E-01 2.738E+00 3.204E+00 6.057E+00 9.402E+00 5.177E+06 15.8223 1.00000
  3.162E+07 3.162E+07 3.360E+00 1.307E-01 3.090E+00 3.652E+00 6.873E+00 1.023E+01 5.528E+06 16.0525 1.00000
  3.548E+07 3.548E+07 3.375E+00 1.486E-01 3.486E+00 4.163E+00 7.798E+00 1.117E+01 5.889E+06 16.2828 1.00000
  3.981E+07 3.981E+07 3.391E+00 1.689E-01 3.931E+00 4.746E+00 8.846E+00 1.224E+01 6.260E+06 16.5130 1.00000
  4.467E+07 4.467E+07 3.406E+00 1.919E-01 4.432E+00 5.412E+00 1.004E+01 1.344E+01 6.639E+06 16.7433 1.00000
  5.012E+07 5.012E+07 3.422E+00 2.179E-01 4.994E+00 6.172E+00 1.138E+01 1.481E+01 7.026E+06 16.9735 1.00000
  5.623E+07 5.624E+07 3.437E+00 2.475E-01 5.627E+00 7.039E+00 1.291E+01 1.635E+01 7.419E+06 17.2038 1.00000
  6.310E+07 6.310E+07 3.452E+00 2.809E-01 6.337E+00 8.030E+00 1.465E+01 1.810E+01 7.818E+06 17.4340 1.00000
  7.079E+07 7.080E+07 3.468E+00 3.188E-01 7.135E+00 9.160E+00 1.661E+01 2.008E+01 8.223E+06 17.6643 1.00000
  7.943E+07 7.943E+07 3.483E+00 3.617E-01 8.032E+00 1.045E+01 1.884E+01 2.233E+01 8.631E+06 17.8945 1.00000
  8.913E+07 8.913E+07 3.498E+00 4.103E-01 9.039E+00 1.193E+01 2.137E+01 2.487E+01 9.043E+06 18.1248 1.00000
  1.000E+08 1.000E+08 3.514E+00 4.652E-01 1.017E+01 1.361E+01 2.424E+01 2.776E+01 9.458E+06 18.3550 1.00000
  1.122E+08 1.122E+08 3.529E+00 5.274E-01 1.144E+01 1.553E+01 2.750E+01 3.103E+01 9.874E+06 18.5853 1.00000
  1.259E+08 1.259E+08 3.545E+00 5.976E-01 1.287E+01 1.773E+01 3.119E+01 3.474E+01 1.029E+07 18.8155 1.00000
  1.413E+08 1.413E+08 3.560E+00 6.771E-01 1.447E+01 2.024E+01 3.538E+01 3.894E+01 1.071E+07 19.0458 1.00000
  1.585E+08 1.585E+08 3.576E+00 7.669E-01 1.627E+01 2.310E+01 4.013E+01 4.371E+01 1.113E+07 19.2761 1.00000
  1.778E+08 1.778E+08 3.592E+00 8.683E-01 1.828E+01 2.637E+01 4.553E+01 4.912E+01 1.155E+07 19.5063 1.00000
  1.995E+08 1.995E+08 3.607E+00 9.829E-01 2.055E+01 3.011E+01 5.165E+01 5.525E+01 1.196E+07 19.7366 1.00000
  2.239E+08 2.239E+08 3.623E+00 1.112E+00 2.309E+01 3.438E+01 5.859E+01 6.221E+01 1.238E+07 19.9668 1.00000
  2.512E+08 2.512E+08 3.639E+00 1.258E+00 2.595E+01 3.926E+01 6.647E+01 7.011E+01 1.279E+07 20.1971 1.00000
  2.818E+08 2.818E+08 3.655E+00 1.423E+00 2.916E+01 4.484E+01 7.542E+01 7.907E+01 1.321E+07 20.4273 1.00000
  3.162E+08 3.162E+08 3.671E+00 1.609E+00 3.275E+01 5.121E+01 8.557E+01 8.924E+01 1.362E+07 20.6576 1.00000
  3.548E+08 3.548E+08 3.687E+00 1.819E+00 3.679E+01 5.849E+01 9.710E+01 1.008E+02 1.402E+07 20.8879 1.00000
  3.981E+08 3.981E+08 3.703E+00 2.056E+00 4.132E+01 6.680E+01 1.102E+02 1.139E+02 1.443E+07 21.1181 1.00000
  4.467E+08 4.467E+08 3.719E+00 2.323E+00 4.641E+01 7.631E+01 1.250E+02 1.288E+02 1.483E+07 21.3484 1.00000
  5.012E+08 5.012E+08 3.735E+00 2.623E+00 5.211E+01 8.717E+01 1.419E+02 1.456E+02 1.523E+07 21.5786 1.00000
  5.623E+08 5.623E+08 3.752E+00 2.962E+00 5.852E+01 9.959E+01 1.611E+02 1.648E+02 1.563E+07 21.8089 1.00000
  6.310E+08 6.310E+08 3.768E+00 3.344E+00 6.571E+01 1.138E+02 1.828E+02 1.866E+02 1.602E+07 22.0391 1.00000
  7.079E+08 7.079E+08 3.784E+00 3.774E+00 7.377E+01 1.300E+02 2.075E+02 2.113E+02 1.641E+07 22.2694 1.00000
  7.943E+08 7.943E+08 3.801E+00 4.259E+00 8.283E+01 1.485E+02 2.356E+02 2.394E+02 1.679E+07 22.4997 1.00000
  8.913E+08 8.913E+08 3.818E+00 4.805E+00 9.298E+01 1.697E+02 2.675E+02 2.713E+02 1.717E+07 22.7299 1.00000
  1.000E+09 1.000E+09 3.834E+00 5.419E+00 1.044E+02 1.940E+02 3.038E+02 3.076E+02 1.755E+07 22.9602 1.00000
  1.122E+09 1.122E+09 3.851E+00 6.111E+00 1.172E+02 2.217E+02 3.450E+02 3.488E+02 1.792E+07 23.1904 1.00000
  1.259E+09 1.259E+09 3.868E+00 6.889E+00 1.315E+02 2.534E+02 3.918E+02 3.956E+02 1.829E+07 23.4207 1.00000
  1.413E+09 1.413E+09 3.885E+00 7.764E+00 1.476E+02 2.896E+02 4.450E+02 4.488E+02 1.866E+07 23.6509 1.00000
  1.585E+09 1.585E+09 3.902E+00 8.749E+00 1.657E+02 3.310E+02 5.054E+02 5.093E+02 1.902E+07 23.8812 1.00000
  1.778E+09 1.778E+09 3.920E+00 9.857E+00 1.860E+02 3.783E+02 5.742E+02 5.781E+02 1.937E+07 24.1115 1.00000
  1.995E+09 1.995E+09 3.937E+00 1.110E+01 2.087E+02 4.325E+02 6.523E+02 6.563E+02 1.973E+07 24.3417 1.00000
  2.239E+09 2.239E+09 3.954E+00 1.250E+01 2.343E+02 4.944E+02 7.412E+02 7.451E+02 2.008E+07 24.5720 1.00000
  2.512E+09 2.512E+09 3.972E+00 1.408E+01 2.629E+02 5.653E+02 8.422E+02 8.462E+02 2.042E+07 24.8022 1.00000
  2.818E+09 2.818E+09 3.989E+00 1.585E+01 2.950E+02 6.463E+02 9.572E+02 9.612E+02 2.076E+07 25.0325 1.00000
  3.162E+09 3.162E+09 4.007E+00 1.784E+01 3.311E+02 7.389E+02 1.088E+03 1.092E+03 2.110E+07 25.2628 1.00000
  3.548E+09 3.548E+09 4.025E+00 2.008E+01 3.716E+02 8.449E+02 1.237E+03 1.241E+03 2.143E+07 25.4930 1.00000
  3.981E+09 3.981E+09 4.043E+00 2.259E+01 4.170E+02 9.662E+02 1.406E+03 1.410E+03 2.176E+07 25.7233 1.00000
  4.467E+09 4.467E+09 4.061E+00 2.542E+01 4.679E+02 1.105E+03 1.598E+03 1.602E+03 2.208E+07 25.9535 1.00000
  5.012E+09 5.012E+09 4.079E+00 2.859E+01 5.251E+02 1.264E+03 1.817E+03 1.821E+03 2.240E+07 26.1838 1.00000
  5.623E+09 5.623E+09 4.097E+00 3.216E+01 5.892E+02 1.445E+03 2.067E+03 2.071E+03 2.272E+07 26.4140 1.00000
  6.310E+09 6.310E+09 4.115E+00 3.616E+01 6.612E+02 1.653E+03 2.350E+03 2.354E+03 2.303E+07 26.6443 1.00000
  7.079E+09 7.079E+09 4.134E+00 4.066E+01 7.419E+02 1.891E+03 2.673E+03 2.677E+03 2.334E+07 26.8746 1.00000
  7.943E+09 7.943E+09 4.152E+00 4.571E+01 8.325E+02 2.163E+03 3.041E+03 3.045E+03 2.364E+07 27.1048 1.00000
  8.913E+09 8.913E+09 4.171E+00 5.139E+01 9.342E+02 2.474E+03 3.459E+03 3.464E+03 2.394E+07 27.3351 1.00000
  1.000E+10 1.000E+10 4.190E+00 5.776E+01 1.048E+03 2.830E+03 3.936E+03 3.940E+03 2.423E+07 27.5653 1.00000
  1.122E+10 1.122E+10 4.208E+00 6.492E+01 1.176E+03 3.238E+03 4.479E+03 4.483E+03 2.452E+07 27.7956 1.00000
  1.259E+10 1.259E+10 4.227E+00 7.295E+01 1.320E+03 3.704E+03 5.097E+03 5.101E+03 2.481E+07 28.0259 1.00000
  1.413E+10 1.413E+10 4.246E+00 8.197E+01 1.481E+03 4.238E+03 5.801E+03 5.805E+03 2.509E+07 28.2561 1.00000
  1.585E+10 1.585E+10 4.265E+00 9.210E+01 1.662E+03 4.850E+03 6.603E+03 6.608E+03 2.537E+07 28.4864 1.00000
  1.778E+10 1.778E+10 4.285E+00 1.035E+02 1.864E+03 5.549E+03 7.517E+03 7.522E+03 2.565E+07 28.7166 1.00000
  1.995E+10 1.995E+10 4.304E+00 1.162E+02 2.092E+03 6.351E+03 8.559E+03 8.563E+03 2.592E+07 28.9469 1.00000
  2.239E+10 2.239E+10 4.324E+00 1.306E+02 2.347E+03 7.268E+03 9.745E+03 9.750E+03 2.619E+07 29.1772 1.00000
  2.512E+10 2.512E+10 4.343E+00 1.466E+02 2.634E+03 8.318E+03 1.110E+04 1.110E+04 2.645E+07 29.4074 1.00000
  2.818E+10 2.818E+10 4.363E+00 1.647E+02 2.955E+03 9.520E+03 1.264E+04 1.264E+04 2.671E+07 29.6377 1.00000
  3.162E+10 3.162E+10 4.383E+00 1.849E+02 3.316E+03 1.090E+04 1.440E+04 1.440E+04 2.696E+07 29.8679 1.00000
  3.548E+10 3.548E+10 4.402E+00 2.077E+02 3.720E+03 1.247E+04 1.640E+04 1.640E+04 2.722E+07 30.0982 1.00000
  3.981E+10 3.981E+10 4.423E+00 2.332E+02 4.174E+03 1.428E+04 1.868E+04 1.869E+04 2.746E+07 30.3284 1.00000
  4.467E+10 4.467E+10 4.443E+00 2.618E+02 4.683E+03 1.634E+04 2.129E+04 2.129E+04 2.771E+07 30.5587 1.00000
  5.012E+10 5.012E+10 4.463E+00 2.940E+02 5.255E+03 1.871E+04 2.426E+04 2.426E+04 2.795E+07 30.7890 1.00000
  5.623E+10 5.623E+10 4.483E+00 3.301E+02 5.896E+03 2.142E+04 2.765E+04 2.765E+04 2.818E+07 31.0192 1.00000
  6.310E+10 6.310E+10 4.504E+00 3.706E+02 6.615E+03 2.453E+04 3.151E+04 3.152E+04 2.842E+07 31.2495 1.00000
  7.079E+10 7.079E+10 4.524E+00 4.160E+02 7.423E+03 2.808E+04 3.592E+04 3.593E+04 2.865E+07 31.4797 1.00000
  7.943E+10 7.943E+10 4.545E+00 4.670E+02 8.328E+03 3.216E+04 4.095E+04 4.096E+04 2.887E+07 31.7100 1.00000
  8.913E+10 8.913E+10 4.566E+00 5.242E+02 9.344E+03 3.682E+04 4.669E+04 4.670E+04 2.909E+07 31.9403 1.00000
  1.000E+11 1.000E+11 4.587E+00 5.884E+02 1.048E+04 4.217E+04 5.324E+04 5.325E+04 2.931E+07 32.1705 1.00000
  1.122E+11 1.122E+11 4.608E+00 6.604E+02 1.176E+04 4.829E+04 6.072E+04 6.072E+04 2.953E+07 32.4008 1.00000
  1.259E+11 1.259E+11 4.629E+00 7.413E+02 1.320E+04 5.531E+04 6.925E+04 6.926E+04 2.974E+07 32.6310 1.00000
  1.413E+11 1.413E+11 4.650E+00 8.320E+02 1.481E+04 6.335E+04 7.899E+04 7.900E+04 2.995E+07 32.8613 1.00000
  1.585E+11 1.585E+11 4.672E+00 9.338E+02 1.661E+04 7.257E+04 9.011E+04 9.012E+04 3.015E+07 33.0915 1.00000
  1.778E+11 1.778E+11 4.693E+00 1.048E+03 1.864E+04 8.312E+04 1.028E+05 1.028E+05 3.035E+07 33.3218 1.00000
  1.995E+11 1.995E+11 4.715E+00 1.176E+03 2.092E+04 9.522E+04 1.173E+05 1.173E+05 3.055E+07 33.5521 1.00000
  2.239E+11 2.239E+11 4.737E+00 1.320E+03 2.347E+04 1.091E+05 1.339E+05 1.339E+05 3.075E+07 33.7823 1.00000
  2.512E+11 2.512E+11 4.759E+00 1.481E+03 2.633E+04 1.250E+05 1.528E+05 1.528E+05 3.094E+07 34.0126 1.00000
  2.818E+11 2.818E+11 4.781E+00 1.662E+03 2.954E+04 1.432E+05 1.744E+05 1.744E+05 3.113E+07 34.2428 1.00000
  3.162E+11 3.162E+11 4.803E+00 1.866E+03 3.315E+04 1.641E+05 1.991E+05 1.991E+05 3.131E+07 34.4731 1.00000
  3.548E+11 3.548E+11 4.825E+00 2.094E+03 3.719E+04 1.880E+05 2.273E+05 2.273E+05 3.149E+07 34.7034 1.00000
  3.981E+11 3.981E+11 4.847E+00 2.349E+03 4.173E+04 2.154E+05 2.595E+05 2.595E+05 3.167E+07 34.9336 1.00000
  4.467E+11 4.467E+11 4.870E+00 2.636E+03 4.682E+04 2.469E+05 2.963E+05 2.963E+05 3.185E+07 35.1639 1.00000
  5.012E+11 5.012E+11 4.893E+00 2.959E+03 5.253E+04 2.829E+05 3.384E+05 3.384E+05 3.202E+07 35.3941 1.00000
  5.623E+11 5.623E+11 4.915E+00 3.320E+03 5.893E+04 3.242E+05 3.865E+05 3.865E+05 3.219E+07 35.6244 1.00000
  6.310E+11 6.310E+11 4.938E+00 3.725E+03 6.612E+04 3.716E+05 4.415E+05 4.415E+05 3.236E+07 35.8546 1.00000
  7.079E+11 7.079E+11 4.961E+00 4.180E+03 7.419E+04 4.259E+05 5.043E+05 5.043E+05 3.252E+07 36.0849 1.00000
  7.943E+11 7.943E+11 4.985E+00 4.691E+03 8.324E+04 4.882E+05 5.762E+05 5.762E+05 3.268E+07 36.3152 1.00000
  8.913E+11 8.913E+11 5.008E+00 5.263E+03 9.339E+04 5.597E+05 6.583E+05 6.583E+05 3.284E+07 36.5454 1.00000
  1.000E+12 1.000E+12 5.031E+00 5.906E+03 1.048E+05 6.416E+05 7.523E+05 7.523E+05 3.299E+07 36.7757 1.00000
  1.122E+12 1.122E+12 5.055E+00 6.627E+03 1.176E+05 7.355E+05 8.597E+05 8.597E+05 3.314E+07 37.0059 1.00000
  1.259E+12 1.259E+12 5.078E+00 7.436E+03 1.319E+05 8.433E+05 9.826E+05 9.826E+05 3.329E+07 37.2362 1.00000
  1.413E+12 1.413E+12 5.102E+00 8.344E+03 1.480E+05 9.668E+05 1.123E+06 1.123E+06 3.344E+07 37.4665 1.00000
  1.585E+12 1.585E+12 5.126E+00 9.363E+03 1.660E+05 1.109E+06 1.284E+06 1.284E+06 3.358E+07 37.6967 1.00000
  1.778E+12 1.778E+12 5.150E+00 1.051E+04 1.863E+05 1.271E+06 1.468E+06 1.468E+06 3.372E+07 37.9270 1.00000
  1.995E+12 1.995E+12 5.175E+00 1.179E+04 2.090E+05 1.458E+06 1.678E+06 1.678E+06 3.386E+07 38.1572 1.00000
  2.239E+12 2.239E+12 5.199E+00 1.323E+04 2.345E+05 1.672E+06 1.919E+06 1.919E+06 3.400E+07 38.3875 1.00000
  2.512E+12 2.512E+12 5.223E+00 1.484E+04 2.631E+05 1.917E+06 2.195E+06 2.195E+06 3.413E+07 38.6177 1.00000
  2.818E+12 2.818E+12 5.248E+00 1.665E+04 2.952E+05 2.199E+06 2.511E+06 2.511E+06 3.426E+07 38.8480 1.00000
  3.162E+12 3.162E+12 5.273E+00 1.868E+04 3.312E+05 2.522E+06 2.872E+06 2.872E+06 3.439E+07 39.0783 1.00000
  3.548E+12 3.548E+12 5.298E+00 2.096E+04 3.716E+05 2.892E+06 3.285E+06 3.285E+06 3.452E+07 39.3085 1.00000
  3.981E+12 3.981E+12 5.323E+00 2.352E+04 4.169E+05 3.318E+06 3.758E+06 3.758E+06 3.464E+07 39.5388 1.00000
  4.467E+12 4.467E+12 5.348E+00 2.639E+04 4.678E+05 3.806E+06 4.300E+06 4.300E+06 3.476E+07 39.7690 1.00000
  5.012E+12 5.012E+12 5.373E+00 2.962E+04 5.248E+05 4.366E+06 4.921E+06 4.921E+06 3.488E+07 39.9993 1.00000
  5.623E+12 5.623E+12 5.398E+00 3.323E+04 5.889E+05 5.009E+06 5.631E+06 5.631E+06 3.500E+07 40.2296 1.00000
  6.310E+12 6.310E+12 5.424E+00 3.728E+04 6.607E+05 5.747E+06 6.445E+06 6.445E+06 3.511E+07 40.4598 1.00000
  7.079E+12 7.079E+12 5.450E+00 4.183E+04 7.413E+05 6.594E+06 7.377E+06 7.377E+06 3.522E+07 40.6901 1.00000
  7.943E+12 7.943E+12 5.476E+00 4.694E+04 8.317E+05 7.566E+06 8.444E+06 8.444E+06 3.533E+07 40.9203 1.00000
  8.913E+12 8.913E+12 5.502E+00 5.267E+04 9.331E+05 8.681E+06 9.667E+06 9.667E+06 3.544E+07 41.1506 1.00000
  1.000E+13 1.000E+13 5.528E+00 5.909E+04 1.047E+06 9.962E+06 1.107E+07 1.107E+07 3.555E+07 41.3809 1.00000
  1.122E+13 1.122E+13 5.554E+00 6.631E+04 1.175E+06 1.143E+07 1.267E+07 1.267E+07 3.565E+07 41.6111 1.00000
  1.259E+13 1.259E+13 5.580E+00 7.440E+04 1.318E+06 1.312E+07 1.451E+07 1.451E+07 3.575E+07 41.8414 1.00000
  1.413E+13 1.413E+13 5.607E+00 8.347E+04 1.479E+06 1.506E+07 1.662E+07 1.662E+07 3.585E+07 42.0716 1.00000
  1.585E+13 1.585E+13 5.634E+00 9.366E+04 1.659E+06 1.728E+07 1.903E+07 1.903E+07 3.595E+07 42.3019 1.00000
  1.778E+13 1.778E+13 5.661E+00 1.051E+05 1.861E+06 1.984E+07 2.180E+07 2.180E+07 3.604E+07 42.5321 1.00000
  1.995E+13 1.995E+13 5.688E+00 1.179E+05 2.088E+06 2.277E+07 2.497E+07 2.497E+07 3.614E+07 42.7624 1.00000
  2.239E+13 2.239E+13 5.715E+00 1.323E+05 2.343E+06 2.614E+07 2.861E+07 2.861E+07 3.623E+07 42.9927 1.00000
  2.512E+13 2.512E+13 5.742E+00 1.484E+05 2.629E+06 3.000E+07 3.278E+07 3.278E+07 3.632E+07 43.2229 1.00000
  2.818E+13 2.818E+13 5.769E+00 1.666E+05 2.949E+06 3.444E+07 3.756E+07 3.756E+07 3.640E+07 43.4532 1.00000
  3.162E+13 3.162E+13 5.797E+00 1.869E+05 3.309E+06 3.954E+07 4.304E+07 4.304E+07 3.649E+07 43.6834 1.00000
  3.548E+13 3.548E+13 5.825E+00 2.097E+05 3.712E+06 4.540E+07 4.932E+07 4.932E+07 3.657E+07 43.9137 1.00000
  3.981E+13 3.981E+13 5.853E+00 2.353E+05 4.165E+06 5.213E+07 5.653E+07 5.653E+07 3.666E+07 44.1440 1.00000
  4.467E+13 4.467E+13 5.881E+00 2.640E+05 4.673E+06 5.986E+07 6.479E+07 6.479E+07 3.674E+07 44.3742 1.00000
  5.012E+13 5.012E+13 5.909E+00 2.962E+05 5.243E+06 6.873E+07 7.427E+07 7.427E+07 3.681E+07 44.6045 1.00000
  5.623E+13 5.623E+13 5.937E+00 3.323E+05 5.883E+06 7.893E+07 8.514E+07 8.514E+07 3.689E+07 44.8347 1.00000
  6.310E+13 6.310E+13 5.966E+00 3.729E+05 6.600E+06 9.064E+07 9.762E+07 9.762E+07 3.697E+07 45.0650 1.00000
  7.079E+13 7.079E+13 5.994E+00 4.184E+05 7.405E+06 1.041E+08 1.119E+08 1.119E+08 3.704E+07 45.2952 1.00000
  7.943E+13 7.943E+13 6.023E+00 4.694E+05 8.308E+06 1.196E+08 1.283E+08 1.283E+08 3.711E+07 45.5255 1.00000
  8.913E+13 8.913E+13 6.052E+00 5.267E+05 9.321E+06 1.373E+08 1.472E+08 1.472E+08 3.718E+07 45.7558 1.00000
