 Incident particle is a Tau with M = 1776.82000 MeV
 Index = 0: CeriumFluoride
      Absorber with <Z/A> = 0.43123
 Sternheimer coef:  a     k=m_s   x_0    x_1    I[eV]   Cbar  delta0
                 0.1862  3.0000  0.2000  3.0000  348.4  5.0079 0.00

 *** Table generated with PUMAS v1.00 ***

      T         p     Ionization  brems     pair     photonuc  Radloss    dE/dx   CSDA Range  delta   beta
    [MeV]    [MeV/c]  -----------------------[MeV cm^2/g]------------------------  [g/cm^2]
  1.000E+05 1.018E+05 1.778E+00 6.144E-04 1.059E-02 7.814E-03 1.902E-02 1.797E+00 2.782E+04  3.4445 0.99985
  1.122E+05 1.140E+05 1.796E+00 7.119E-04 1.269E-02 8.789E-03 2.219E-02 1.818E+00 3.457E+04  3.6303 0.99988
  1.259E+05 1.277E+05 1.814E+00 8.244E-04 1.516E-02 9.834E-03 2.582E-02 1.840E+00 4.206E+04  3.8196 0.99990
  1.413E+05 1.430E+05 1.832E+00 9.543E-04 1.806E-02 1.101E-02 3.002E-02 1.862E+00 5.035E+04  4.0124 0.99992
  1.585E+05 1.603E+05 1.850E+00 1.104E-03 2.146E-02 1.231E-02 3.487E-02 1.885E+00 5.956E+04  4.2084 0.99994
  1.778E+05 1.796E+05 1.867E+00 1.276E-03 2.543E-02 1.376E-02 4.047E-02 1.908E+00 6.975E+04  4.4075 0.99995
  1.995E+05 2.013E+05 1.885E+00 1.475E-03 3.007E-02 1.541E-02 4.696E-02 1.932E+00 8.106E+04  4.6095 0.99996
  2.239E+05 2.256E+05 1.902E+00 1.703E-03 3.547E-02 1.721E-02 5.439E-02 1.956E+00 9.358E+04  4.8144 0.99997
  2.512E+05 2.530E+05 1.919E+00 1.966E-03 4.176E-02 1.922E-02 6.294E-02 1.982E+00 1.075E+05  5.0219 0.99998
  2.818E+05 2.836E+05 1.936E+00 2.267E-03 4.905E-02 2.147E-02 7.279E-02 2.009E+00 1.228E+05  5.2319 0.99998
  3.162E+05 3.180E+05 1.953E+00 2.614E-03 5.749E-02 2.401E-02 8.412E-02 2.037E+00 1.398E+05  5.4442 0.99998
  3.548E+05 3.566E+05 1.969E+00 3.012E-03 6.726E-02 2.685E-02 9.713E-02 2.066E+00 1.586E+05  5.6588 0.99999
  3.981E+05 3.999E+05 1.986E+00 3.469E-03 7.854E-02 3.002E-02 1.120E-01 2.098E+00 1.794E+05  5.8754 0.99999
  4.467E+05 4.485E+05 2.002E+00 3.994E-03 9.155E-02 3.355E-02 1.291E-01 2.131E+00 2.024E+05  6.0939 0.99999
  5.012E+05 5.030E+05 2.018E+00 4.595E-03 1.065E-01 3.752E-02 1.486E-01 2.167E+00 2.278E+05  6.3141 0.99999
  5.623E+05 5.641E+05 2.035E+00 5.284E-03 1.238E-01 4.180E-02 1.708E-01 2.205E+00 2.557E+05  6.5360 1.00000
  6.310E+05 6.327E+05 2.050E+00 6.073E-03 1.435E-01 4.662E-02 1.962E-01 2.247E+00 2.866E+05  6.7593 1.00000
  7.079E+05 7.097E+05 2.066E+00 6.977E-03 1.662E-01 5.205E-02 2.252E-01 2.292E+00 3.205E+05  6.9840 1.00000
  7.943E+05 7.961E+05 2.082E+00 8.012E-03 1.922E-01 5.816E-02 2.584E-01 2.340E+00 3.578E+05  7.2098 1.00000
  8.913E+05 8.930E+05 2.098E+00 9.196E-03 2.219E-01 6.506E-02 2.962E-01 2.394E+00 3.987E+05  7.4366 1.00000
  1.000E+06 1.002E+06 2.113E+00 1.055E-02 2.559E-01 7.285E-02 3.393E-01 2.452E+00 4.436E+05  7.6644 1.00000
  1.122E+06 1.124E+06 2.128E+00 1.210E-02 2.946E-01 8.166E-02 3.884E-01 2.517E+00 4.928E+05  7.8928 1.00000
  1.259E+06 1.261E+06 2.143E+00 1.387E-02 3.389E-01 9.162E-02 4.443E-01 2.588E+00 5.464E+05  8.1219 1.00000
  1.413E+06 1.414E+06 2.159E+00 1.589E-02 3.892E-01 1.029E-01 5.080E-01 2.667E+00 6.049E+05  8.3514 1.00000
  1.585E+06 1.587E+06 2.174E+00 1.820E-02 4.465E-01 1.157E-01 5.804E-01 2.754E+00 6.685E+05  8.5813 1.00000
  1.778E+06 1.780E+06 2.188E+00 2.084E-02 5.117E-01 1.301E-01 6.626E-01 2.851E+00 7.375E+05  8.8112 1.00000
  1.995E+06 1.997E+06 2.203E+00 2.385E-02 5.857E-01 1.465E-01 7.561E-01 2.959E+00 8.122E+05  9.0413 1.00000
  2.239E+06 2.240E+06 2.218E+00 2.728E-02 6.697E-01 1.652E-01 8.622E-01 3.080E+00 8.929E+05  9.2714 1.00000
  2.512E+06 2.514E+06 2.232E+00 3.120E-02 7.650E-01 1.863E-01 9.825E-01 3.215E+00 9.797E+05  9.5014 1.00000
  2.818E+06 2.820E+06 2.247E+00 3.566E-02 8.729E-01 2.103E-01 1.119E+00 3.366E+00 1.073E+06  9.7315 1.00000
  3.162E+06 3.164E+06 2.261E+00 4.075E-02 9.952E-01 2.376E-01 1.274E+00 3.534E+00 1.173E+06  9.9617 1.00000
  3.548E+06 3.550E+06 2.275E+00 4.655E-02 1.134E+00 2.687E-01 1.449E+00 3.724E+00 1.279E+06 10.1918 1.00000
  3.981E+06 3.983E+06 2.289E+00 5.316E-02 1.290E+00 3.040E-01 1.647E+00 3.936E+00 1.392E+06 10.4220 1.00000
  4.467E+06 4.469E+06 2.303E+00 6.068E-02 1.467E+00 3.441E-01 1.872E+00 4.174E+00 1.512E+06 10.6521 1.00000
  5.012E+06 5.014E+06 2.316E+00 6.924E-02 1.667E+00 3.898E-01 2.126E+00 4.442E+00 1.639E+06 10.8823 1.00000
  5.623E+06 5.625E+06 2.330E+00 7.898E-02 1.892E+00 4.418E-01 2.413E+00 4.743E+00 1.772E+06 11.1125 1.00000
  6.310E+06 6.311E+06 2.343E+00 9.006E-02 2.147E+00 5.010E-01 2.738E+00 5.081E+00 1.912E+06 11.3427 1.00000
  7.079E+06 7.081E+06 2.357E+00 1.027E-01 2.434E+00 5.684E-01 3.105E+00 5.461E+00 2.058E+06 11.5729 1.00000
  7.943E+06 7.945E+06 2.370E+00 1.170E-01 2.757E+00 6.453E-01 3.519E+00 5.889E+00 2.211E+06 11.8031 1.00000
  8.913E+06 8.914E+06 2.383E+00 1.333E-01 3.122E+00 7.328E-01 3.988E+00 6.371E+00 2.369E+06 12.0333 1.00000
  1.000E+07 1.000E+07 2.396E+00 1.518E-01 3.533E+00 8.325E-01 4.517E+00 6.913E+00 2.533E+06 12.2635 1.00000
  1.122E+07 1.122E+07 2.409E+00 1.728E-01 3.996E+00 9.462E-01 5.115E+00 7.523E+00 2.702E+06 12.4937 1.00000
  1.259E+07 1.259E+07 2.421E+00 1.966E-01 4.517E+00 1.076E+00 5.789E+00 8.210E+00 2.877E+06 12.7239 1.00000
  1.413E+07 1.413E+07 2.434E+00 2.237E-01 5.103E+00 1.224E+00 6.550E+00 8.984E+00 3.056E+06 12.9542 1.00000
  1.585E+07 1.585E+07 2.446E+00 2.544E-01 5.763E+00 1.392E+00 7.409E+00 9.855E+00 3.239E+06 13.1844 1.00000
  1.778E+07 1.778E+07 2.459E+00 2.892E-01 6.505E+00 1.584E+00 8.378E+00 1.084E+01 3.426E+06 13.4146 1.00000
  1.995E+07 1.995E+07 2.471E+00 3.287E-01 7.340E+00 1.803E+00 9.472E+00 1.194E+01 3.617E+06 13.6449 1.00000
  2.239E+07 2.239E+07 2.483E+00 3.735E-01 8.278E+00 2.053E+00 1.071E+01 1.319E+01 3.812E+06 13.8751 1.00000
  2.512E+07 2.512E+07 2.495E+00 4.243E-01 9.334E+00 2.339E+00 1.210E+01 1.459E+01 4.009E+06 14.1053 1.00000
  2.818E+07 2.819E+07 2.507E+00 4.817E-01 1.052E+01 2.664E+00 1.367E+01 1.617E+01 4.209E+06 14.3356 1.00000
  3.162E+07 3.162E+07 2.520E+00 5.468E-01 1.185E+01 3.036E+00 1.543E+01 1.795E+01 4.411E+06 14.5658 1.00000
  3.548E+07 3.548E+07 2.532E+00 6.205E-01 1.335E+01 3.459E+00 1.743E+01 1.996E+01 4.615E+06 14.7961 1.00000
  3.981E+07 3.981E+07 2.544E+00 7.039E-01 1.503E+01 3.943E+00 1.968E+01 2.222E+01 4.821E+06 15.0263 1.00000
  4.467E+07 4.467E+07 2.556E+00 7.983E-01 1.692E+01 4.495E+00 2.222E+01 2.477E+01 5.028E+06 15.2566 1.00000
  5.012E+07 5.012E+07 2.568E+00 9.050E-01 1.905E+01 5.125E+00 2.508E+01 2.765E+01 5.236E+06 15.4868 1.00000
  5.623E+07 5.624E+07 2.580E+00 1.026E+00 2.143E+01 5.845E+00 2.830E+01 3.088E+01 5.446E+06 15.7171 1.00000
  6.310E+07 6.310E+07 2.592E+00 1.162E+00 2.411E+01 6.666E+00 3.194E+01 3.453E+01 5.657E+06 15.9473 1.00000
  7.079E+07 7.080E+07 2.604E+00 1.316E+00 2.712E+01 7.604E+00 3.604E+01 3.864E+01 5.868E+06 16.1776 1.00000
  7.943E+07 7.943E+07 2.616E+00 1.490E+00 3.050E+01 8.675E+00 4.066E+01 4.328E+01 6.079E+06 16.4078 1.00000
  8.913E+07 8.913E+07 2.628E+00 1.687E+00 3.429E+01 9.897E+00 4.587E+01 4.850E+01 6.291E+06 16.6381 1.00000
  1.000E+08 1.000E+08 2.640E+00 1.909E+00 3.854E+01 1.129E+01 5.175E+01 5.439E+01 6.503E+06 16.8683 1.00000
  1.122E+08 1.122E+08 2.652E+00 2.160E+00 4.332E+01 1.289E+01 5.837E+01 6.102E+01 6.715E+06 17.0986 1.00000
  1.259E+08 1.259E+08 2.664E+00 2.442E+00 4.869E+01 1.471E+01 6.584E+01 6.850E+01 6.927E+06 17.3288 1.00000
  1.413E+08 1.413E+08 2.676E+00 2.762E+00 5.471E+01 1.679E+01 7.426E+01 7.693E+01 7.139E+06 17.5591 1.00000
  1.585E+08 1.585E+08 2.688E+00 3.121E+00 6.147E+01 1.916E+01 8.375E+01 8.644E+01 7.351E+06 17.7894 1.00000
  1.778E+08 1.778E+08 2.700E+00 3.527E+00 6.906E+01 2.188E+01 9.446E+01 9.716E+01 7.563E+06 18.0196 1.00000
  1.995E+08 1.995E+08 2.712E+00 3.984E+00 7.757E+01 2.498E+01 1.065E+02 1.092E+02 7.773E+06 18.2499 1.00000
  2.239E+08 2.239E+08 2.725E+00 4.500E+00 8.713E+01 2.852E+01 1.201E+02 1.229E+02 7.984E+06 18.4801 1.00000
  2.512E+08 2.512E+08 2.737E+00 5.080E+00 9.785E+01 3.256E+01 1.355E+02 1.382E+02 8.194E+06 18.7104 1.00000
  2.818E+08 2.818E+08 2.749E+00 5.734E+00 1.099E+02 3.719E+01 1.528E+02 1.556E+02 8.403E+06 18.9406 1.00000
  3.162E+08 3.162E+08 2.762E+00 6.471E+00 1.234E+02 4.247E+01 1.723E+02 1.751E+02 8.612E+06 19.1709 1.00000
  3.548E+08 3.548E+08 2.774E+00 7.300E+00 1.386E+02 4.850E+01 1.944E+02 1.971E+02 8.820E+06 19.4012 1.00000
  3.981E+08 3.981E+08 2.787E+00 8.233E+00 1.556E+02 5.540E+01 2.192E+02 2.220E+02 9.027E+06 19.6314 1.00000
  4.467E+08 4.467E+08 2.800E+00 9.284E+00 1.747E+02 6.328E+01 2.472E+02 2.500E+02 9.234E+06 19.8617 1.00000
  5.012E+08 5.012E+08 2.812E+00 1.047E+01 1.961E+02 7.229E+01 2.788E+02 2.817E+02 9.440E+06 20.0919 1.00000
  5.623E+08 5.623E+08 2.825E+00 1.180E+01 2.201E+02 8.259E+01 3.145E+02 3.173E+02 9.645E+06 20.3222 1.00000
  6.310E+08 6.310E+08 2.838E+00 1.329E+01 2.471E+02 9.435E+01 3.548E+02 3.576E+02 9.849E+06 20.5524 1.00000
  7.079E+08 7.079E+08 2.851E+00 1.497E+01 2.774E+02 1.078E+02 4.002E+02 4.030E+02 1.005E+07 20.7827 1.00000
  7.943E+08 7.943E+08 2.864E+00 1.687E+01 3.114E+02 1.232E+02 4.514E+02 4.543E+02 1.025E+07 21.0130 1.00000
  8.913E+08 8.913E+08 2.877E+00 1.899E+01 3.495E+02 1.408E+02 5.092E+02 5.121E+02 1.046E+07 21.2432 1.00000
  1.000E+09 1.000E+09 2.890E+00 2.138E+01 3.922E+02 1.608E+02 5.745E+02 5.774E+02 1.066E+07 21.4735 1.00000
  1.122E+09 1.122E+09 2.903E+00 2.407E+01 4.402E+02 1.838E+02 6.481E+02 6.510E+02 1.086E+07 21.7037 1.00000
  1.259E+09 1.259E+09 2.916E+00 2.709E+01 4.941E+02 2.101E+02 7.313E+02 7.342E+02 1.105E+07 21.9340 1.00000
  1.413E+09 1.413E+09 2.929E+00 3.048E+01 5.545E+02 2.401E+02 8.251E+02 8.280E+02 1.125E+07 22.1642 1.00000
  1.585E+09 1.585E+09 2.943E+00 3.430E+01 6.223E+02 2.744E+02 9.310E+02 9.340E+02 1.145E+07 22.3945 1.00000
  1.778E+09 1.778E+09 2.956E+00 3.858E+01 6.984E+02 3.137E+02 1.051E+03 1.054E+03 1.164E+07 22.6248 1.00000
  1.995E+09 1.995E+09 2.970E+00 4.339E+01 7.837E+02 3.586E+02 1.186E+03 1.189E+03 1.184E+07 22.8550 1.00000
  2.239E+09 2.239E+09 2.983E+00 4.880E+01 8.795E+02 4.100E+02 1.338E+03 1.341E+03 1.203E+07 23.0853 1.00000
  2.512E+09 2.512E+09 2.997E+00 5.487E+01 9.870E+02 4.687E+02 1.511E+03 1.514E+03 1.222E+07 23.3155 1.00000
  2.818E+09 2.818E+09 3.011E+00 6.169E+01 1.108E+03 5.359E+02 1.705E+03 1.708E+03 1.241E+07 23.5458 1.00000
  3.162E+09 3.162E+09 3.024E+00 6.935E+01 1.243E+03 6.127E+02 1.925E+03 1.928E+03 1.260E+07 23.7761 1.00000
  3.548E+09 3.548E+09 3.038E+00 7.794E+01 1.395E+03 7.006E+02 2.173E+03 2.176E+03 1.279E+07 24.0063 1.00000
  3.981E+09 3.981E+09 3.052E+00 8.760E+01 1.565E+03 8.011E+02 2.454E+03 2.457E+03 1.298E+07 24.2366 1.00000
  4.467E+09 4.467E+09 3.066E+00 9.844E+01 1.756E+03 9.161E+02 2.771E+03 2.774E+03 1.317E+07 24.4668 1.00000
  5.012E+09 5.012E+09 3.080E+00 1.106E+02 1.970E+03 1.048E+03 3.129E+03 3.132E+03 1.335E+07 24.6971 1.00000
  5.623E+09 5.623E+09 3.095E+00 1.243E+02 2.211E+03 1.198E+03 3.534E+03 3.537E+03 1.353E+07 24.9273 1.00000
  6.310E+09 6.310E+09 3.109E+00 1.396E+02 2.481E+03 1.371E+03 3.991E+03 3.994E+03 1.372E+07 25.1576 1.00000
  7.079E+09 7.079E+09 3.123E+00 1.568E+02 2.784E+03 1.568E+03 4.508E+03 4.511E+03 1.390E+07 25.3879 1.00000
  7.943E+09 7.943E+09 3.138E+00 1.761E+02 3.124E+03 1.793E+03 5.093E+03 5.096E+03 1.408E+07 25.6181 1.00000
  8.913E+09 8.913E+09 3.152E+00 1.978E+02 3.505E+03 2.051E+03 5.754E+03 5.757E+03 1.426E+07 25.8484 1.00000
  1.000E+10 1.000E+10 3.167E+00 2.222E+02 3.933E+03 2.347E+03 6.502E+03 6.505E+03 1.444E+07 26.0786 1.00000
  1.122E+10 1.122E+10 3.181E+00 2.495E+02 4.413E+03 2.685E+03 7.347E+03 7.350E+03 1.461E+07 26.3089 1.00000
  1.259E+10 1.259E+10 3.196E+00 2.802E+02 4.951E+03 3.071E+03 8.303E+03 8.306E+03 1.479E+07 26.5392 1.00000
  1.413E+10 1.413E+10 3.211E+00 3.146E+02 5.556E+03 3.514E+03 9.384E+03 9.388E+03 1.496E+07 26.7694 1.00000
  1.585E+10 1.585E+10 3.226E+00 3.532E+02 6.234E+03 4.021E+03 1.061E+04 1.061E+04 1.514E+07 26.9997 1.00000
  1.778E+10 1.778E+10 3.241E+00 3.966E+02 6.994E+03 4.601E+03 1.199E+04 1.200E+04 1.531E+07 27.2299 1.00000
  1.995E+10 1.995E+10 3.256E+00 4.452E+02 7.848E+03 5.265E+03 1.356E+04 1.356E+04 1.548E+07 27.4602 1.00000
  2.239E+10 2.239E+10 3.271E+00 4.998E+02 8.805E+03 6.026E+03 1.533E+04 1.533E+04 1.565E+07 27.6905 1.00000
  2.512E+10 2.512E+10 3.287E+00 5.611E+02 9.880E+03 6.896E+03 1.734E+04 1.734E+04 1.582E+07 27.9207 1.00000
  2.818E+10 2.818E+10 3.302E+00 6.298E+02 1.109E+04 7.893E+03 1.961E+04 1.961E+04 1.598E+07 28.1510 1.00000
  3.162E+10 3.162E+10 3.317E+00 7.069E+02 1.244E+04 9.034E+03 2.218E+04 2.218E+04 1.615E+07 28.3812 1.00000
  3.548E+10 3.548E+10 3.333E+00 7.935E+02 1.396E+04 1.034E+04 2.509E+04 2.509E+04 1.631E+07 28.6115 1.00000
  3.981E+10 3.981E+10 3.349E+00 8.907E+02 1.566E+04 1.184E+04 2.839E+04 2.839E+04 1.647E+07 28.8417 1.00000
  4.467E+10 4.467E+10 3.364E+00 9.997E+02 1.757E+04 1.355E+04 3.212E+04 3.212E+04 1.664E+07 29.0720 1.00000
  5.012E+10 5.012E+10 3.380E+00 1.122E+03 1.971E+04 1.551E+04 3.635E+04 3.635E+04 1.680E+07 29.3023 1.00000
  5.623E+10 5.623E+10 3.396E+00 1.259E+03 2.212E+04 1.776E+04 4.114E+04 4.114E+04 1.695E+07 29.5325 1.00000
  6.310E+10 6.310E+10 3.412E+00 1.413E+03 2.481E+04 2.034E+04 4.656E+04 4.657E+04 1.711E+07 29.7628 1.00000
  7.079E+10 7.079E+10 3.428E+00 1.586E+03 2.784E+04 2.328E+04 5.271E+04 5.272E+04 1.727E+07 29.9930 1.00000
  7.943E+10 7.943E+10 3.444E+00 1.780E+03 3.124E+04 2.666E+04 5.968E+04 5.969E+04 1.742E+07 30.2233 1.00000
  8.913E+10 8.913E+10 3.460E+00 1.998E+03 3.505E+04 3.053E+04 6.758E+04 6.758E+04 1.757E+07 30.4536 1.00000
  1.000E+11 1.000E+11 3.477E+00 2.242E+03 3.933E+04 3.496E+04 7.653E+04 7.654E+04 1.773E+07 30.6838 1.00000
  1.122E+11 1.122E+11 3.493E+00 2.516E+03 4.412E+04 4.004E+04 8.668E+04 8.669E+04 1.788E+07 30.9141 1.00000
  1.259E+11 1.259E+11 3.510E+00 2.823E+03 4.951E+04 4.586E+04 9.819E+04 9.819E+04 1.802E+07 31.1443 1.00000
  1.413E+11 1.413E+11 3.526E+00 3.168E+03 5.555E+04 5.253E+04 1.112E+05 1.112E+05 1.817E+07 31.3746 1.00000
  1.585E+11 1.585E+11 3.543E+00 3.555E+03 6.232E+04 6.017E+04 1.260E+05 1.260E+05 1.832E+07 31.6048 1.00000
  1.778E+11 1.778E+11 3.560E+00 3.989E+03 6.992E+04 6.892E+04 1.428E+05 1.428E+05 1.846E+07 31.8351 1.00000
  1.995E+11 1.995E+11 3.577E+00 4.476E+03 7.845E+04 7.895E+04 1.619E+05 1.619E+05 1.860E+07 32.0654 1.00000
  2.239E+11 2.239E+11 3.594E+00 5.023E+03 8.802E+04 9.045E+04 1.835E+05 1.835E+05 1.875E+07 32.2956 1.00000
  2.512E+11 2.512E+11 3.611E+00 5.636E+03 9.876E+04 1.036E+05 2.080E+05 2.080E+05 1.889E+07 32.5259 1.00000
  2.818E+11 2.818E+11 3.628E+00 6.324E+03 1.108E+05 1.187E+05 2.359E+05 2.359E+05 1.902E+07 32.7561 1.00000
  3.162E+11 3.162E+11 3.645E+00 7.096E+03 1.243E+05 1.360E+05 2.675E+05 2.675E+05 1.916E+07 32.9864 1.00000
  3.548E+11 3.548E+11 3.663E+00 7.963E+03 1.395E+05 1.559E+05 3.033E+05 3.033E+05 1.930E+07 33.2167 1.00000
  3.981E+11 3.981E+11 3.680E+00 8.935E+03 1.565E+05 1.786E+05 3.441E+05 3.441E+05 1.943E+07 33.4469 1.00000
  4.467E+11 4.467E+11 3.698E+00 1.003E+04 1.756E+05 2.047E+05 3.903E+05 3.903E+05 1.956E+07 33.6772 1.00000
  5.012E+11 5.012E+11 3.715E+00 1.125E+04 1.970E+05 2.346E+05 4.428E+05 4.428E+05 1.970E+07 33.9074 1.00000
  5.623E+11 5.623E+11 3.733E+00 1.262E+04 2.211E+05 2.688E+05 5.025E+05 5.025E+05 1.983E+07 34.1377 1.00000
  6.310E+11 6.310E+11 3.751E+00 1.416E+04 2.480E+05 3.081E+05 5.703E+05 5.703E+05 1.995E+07 34.3679 1.00000
  7.079E+11 7.079E+11 3.769E+00 1.589E+04 2.783E+05 3.532E+05 6.473E+05 6.473E+05 2.008E+07 34.5982 1.00000
  7.943E+11 7.943E+11 3.787E+00 1.783E+04 3.122E+05 4.048E+05 7.349E+05 7.349E+05 2.021E+07 34.8285 1.00000
  8.913E+11 8.913E+11 3.805E+00 2.001E+04 3.503E+05 4.640E+05 8.343E+05 8.343E+05 2.033E+07 35.0587 1.00000
  1.000E+12 1.000E+12 3.823E+00 2.245E+04 3.930E+05 5.320E+05 9.474E+05 9.474E+05 2.045E+07 35.2890 1.00000
  1.122E+12 1.122E+12 3.842E+00 2.519E+04 4.410E+05 6.098E+05 1.076E+06 1.076E+06 2.057E+07 35.5192 1.00000
  1.259E+12 1.259E+12 3.860E+00 2.826E+04 4.948E+05 6.992E+05 1.222E+06 1.222E+06 2.069E+07 35.7495 1.00000
  1.413E+12 1.413E+12 3.879E+00 3.171E+04 5.551E+05 8.016E+05 1.388E+06 1.388E+06 2.081E+07 35.9798 1.00000
  1.585E+12 1.585E+12 3.898E+00 3.558E+04 6.228E+05 9.192E+05 1.578E+06 1.578E+06 2.093E+07 36.2100 1.00000
  1.778E+12 1.778E+12 3.916E+00 3.993E+04 6.988E+05 1.054E+06 1.793E+06 1.793E+06 2.104E+07 36.4403 1.00000
  1.995E+12 1.995E+12 3.935E+00 4.480E+04 7.840E+05 1.209E+06 2.037E+06 2.037E+06 2.116E+07 36.6705 1.00000
  2.239E+12 2.239E+12 3.954E+00 5.027E+04 8.796E+05 1.386E+06 2.316E+06 2.316E+06 2.127E+07 36.9008 1.00000
  2.512E+12 2.512E+12 3.973E+00 5.640E+04 9.869E+05 1.590E+06 2.633E+06 2.633E+06 2.138E+07 37.1310 1.00000
  2.818E+12 2.818E+12 3.993E+00 6.328E+04 1.107E+06 1.823E+06 2.994E+06 2.994E+06 2.149E+07 37.3613 1.00000
  3.162E+12 3.162E+12 4.012E+00 7.100E+04 1.242E+06 2.091E+06 3.404E+06 3.404E+06 2.160E+07 37.5916 1.00000
  3.548E+12 3.548E+12 4.031E+00 7.967E+04 1.394E+06 2.398E+06 3.872E+06 3.872E+06 2.170E+07 37.8218 1.00000
  3.981E+12 3.981E+12 4.051E+00 8.939E+04 1.564E+06 2.751E+06 4.404E+06 4.404E+06 2.181E+07 38.0521 1.00000
  4.467E+12 4.467E+12 4.070E+00 1.003E+05 1.755E+06 3.156E+06 5.011E+06 5.011E+06 2.191E+07 38.2823 1.00000
  5.012E+12 5.012E+12 4.090E+00 1.125E+05 1.969E+06 3.620E+06 5.701E+06 5.701E+06 2.202E+07 38.5126 1.00000
  5.623E+12 5.623E+12 4.110E+00 1.263E+05 2.209E+06 4.153E+06 6.488E+06 6.488E+06 2.212E+07 38.7429 1.00000
  6.310E+12 6.310E+12 4.130E+00 1.417E+05 2.478E+06 4.765E+06 7.385E+06 7.385E+06 2.222E+07 38.9731 1.00000
  7.079E+12 7.079E+12 4.150E+00 1.590E+05 2.780E+06 5.467E+06 8.406E+06 8.406E+06 2.231E+07 39.2034 1.00000
  7.943E+12 7.943E+12 4.170E+00 1.784E+05 3.120E+06 6.273E+06 9.571E+06 9.571E+06 2.241E+07 39.4336 1.00000
  8.913E+12 8.913E+12 4.190E+00 2.001E+05 3.500E+06 7.198E+06 1.090E+07 1.090E+07 2.251E+07 39.6639 1.00000
  1.000E+13 1.000E+13 4.211E+00 2.245E+05 3.927E+06 8.260E+06 1.241E+07 1.241E+07 2.260E+07 39.8942 1.00000
  1.122E+13 1.122E+13 4.231E+00 2.519E+05 4.406E+06 9.479E+06 1.414E+07 1.414E+07 2.269E+07 40.1244 1.00000
  1.259E+13 1.259E+13 4.252E+00 2.827E+05 4.943E+06 1.088E+07 1.610E+07 1.610E+07 2.278E+07 40.3547 1.00000
  1.413E+13 1.413E+13 4.273E+00 3.172E+05 5.546E+06 1.248E+07 1.835E+07 1.835E+07 2.287E+07 40.5849 1.00000
  1.585E+13 1.585E+13 4.294E+00 3.559E+05 6.222E+06 1.433E+07 2.091E+07 2.091E+07 2.296E+07 40.8152 1.00000
  1.778E+13 1.778E+13 4.315E+00 3.993E+05 6.981E+06 1.645E+07 2.383E+07 2.383E+07 2.305E+07 41.0454 1.00000
  1.995E+13 1.995E+13 4.336E+00 4.480E+05 7.833E+06 1.888E+07 2.716E+07 2.716E+07 2.313E+07 41.2757 1.00000
  2.239E+13 2.239E+13 4.357E+00 5.027E+05 8.788E+06 2.167E+07 3.096E+07 3.096E+07 2.322E+07 41.5060 1.00000
  2.512E+13 2.512E+13 4.378E+00 5.640E+05 9.860E+06 2.488E+07 3.530E+07 3.530E+07 2.330E+07 41.7362 1.00000
  2.818E+13 2.818E+13 4.399E+00 6.329E+05 1.106E+07 2.856E+07 4.025E+07 4.025E+07 2.338E+07 41.9665 1.00000
  3.162E+13 3.162E+13 4.421E+00 7.101E+05 1.241E+07 3.279E+07 4.591E+07 4.591E+07 2.346E+07 42.1967 1.00000
  3.548E+13 3.548E+13 4.443E+00 7.967E+05 1.393E+07 3.765E+07 5.237E+07 5.237E+07 2.354E+07 42.4270 1.00000
  3.981E+13 3.981E+13 4.464E+00 8.939E+05 1.562E+07 4.322E+07 5.974E+07 5.974E+07 2.362E+07 42.6573 1.00000
  4.467E+13 4.467E+13 4.486E+00 1.003E+06 1.753E+07 4.963E+07 6.816E+07 6.816E+07 2.369E+07 42.8875 1.00000
  5.012E+13 5.012E+13 4.508E+00 1.125E+06 1.967E+07 5.699E+07 7.778E+07 7.778E+07 2.377E+07 43.1178 1.00000
  5.623E+13 5.623E+13 4.530E+00 1.263E+06 2.206E+07 6.544E+07 8.877E+07 8.877E+07 2.384E+07 43.3480 1.00000
  6.310E+13 6.310E+13 4.553E+00 1.417E+06 2.476E+07 7.516E+07 1.013E+08 1.013E+08 2.392E+07 43.5783 1.00000
  7.079E+13 7.079E+13 4.575E+00 1.590E+06 2.777E+07 8.631E+07 1.157E+08 1.157E+08 2.399E+07 43.8085 1.00000
  7.943E+13 7.943E+13 4.597E+00 1.784E+06 3.116E+07 9.913E+07 1.321E+08 1.321E+08 2.406E+07 44.0388 1.00000
  8.913E+13 8.913E+13 4.620E+00 2.001E+06 3.496E+07 1.139E+08 1.508E+08 1.508E+08 2.413E+07 44.2691 1.00000
