 Incident particle is a Tau with M = 1776.82000 MeV
 Index = 0: Cerium
      Absorber with <Z/A> = 0.41394
 Sternheimer coef:  a     k=m_s   x_0    x_1    I[eV]   Cbar  delta0
                 0.1889  2.8592  0.2676  3.3395  523.0  5.7669 0.14

 *** Table generated with PUMAS v1.00 ***

      T         p     Ionization  brems     pair     photonuc  Radloss    dE/dx   CSDA Range  delta   beta
    [MeV]    [MeV/c]  -----------------------[MeV cm^2/g]------------------------  [g/cm^2]
  1.000E+05 1.018E+05 1.682E+00 7.970E-04 1.384E-02 7.650E-03 2.229E-02 1.704E+00 2.934E+04  3.0293 0.99985
  1.122E+05 1.140E+05 1.700E+00 9.238E-04 1.658E-02 8.592E-03 2.610E-02 1.726E+00 3.646E+04  3.1953 0.99988
  1.259E+05 1.277E+05 1.719E+00 1.070E-03 1.980E-02 9.601E-03 3.047E-02 1.749E+00 4.434E+04  3.3651 0.99990
  1.413E+05 1.430E+05 1.737E+00 1.239E-03 2.358E-02 1.073E-02 3.555E-02 1.773E+00 5.306E+04  3.5386 0.99992
  1.585E+05 1.603E+05 1.755E+00 1.433E-03 2.801E-02 1.199E-02 4.143E-02 1.797E+00 6.272E+04  3.7157 0.99994
  1.778E+05 1.796E+05 1.773E+00 1.657E-03 3.319E-02 1.338E-02 4.823E-02 1.822E+00 7.341E+04  3.8963 0.99995
  1.995E+05 2.013E+05 1.791E+00 1.916E-03 3.923E-02 1.497E-02 5.611E-02 1.847E+00 8.524E+04  4.0802 0.99996
  2.239E+05 2.256E+05 1.809E+00 2.213E-03 4.627E-02 1.669E-02 6.517E-02 1.874E+00 9.832E+04  4.2673 0.99997
  2.512E+05 2.530E+05 1.826E+00 2.554E-03 5.445E-02 1.861E-02 7.561E-02 1.902E+00 1.128E+05  4.4576 0.99998
  2.818E+05 2.836E+05 1.844E+00 2.947E-03 6.394E-02 2.076E-02 8.765E-02 1.931E+00 1.288E+05  4.6509 0.99998
  3.162E+05 3.180E+05 1.861E+00 3.398E-03 7.493E-02 2.319E-02 1.015E-01 1.962E+00 1.465E+05  4.8472 0.99998
  3.548E+05 3.566E+05 1.878E+00 3.916E-03 8.764E-02 2.590E-02 1.175E-01 1.995E+00 1.660E+05  5.0462 0.99999
  3.981E+05 3.999E+05 1.894E+00 4.511E-03 1.023E-01 2.891E-02 1.357E-01 2.030E+00 1.875E+05  5.2479 0.99999
  4.467E+05 4.485E+05 1.911E+00 5.193E-03 1.192E-01 3.227E-02 1.567E-01 2.068E+00 2.112E+05  5.4521 0.99999
  5.012E+05 5.030E+05 1.928E+00 5.976E-03 1.387E-01 3.604E-02 1.807E-01 2.108E+00 2.373E+05  5.6588 0.99999
  5.623E+05 5.641E+05 1.944E+00 6.873E-03 1.611E-01 4.011E-02 2.081E-01 2.152E+00 2.660E+05  5.8678 1.00000
  6.310E+05 6.327E+05 1.960E+00 7.901E-03 1.868E-01 4.468E-02 2.394E-01 2.199E+00 2.975E+05  6.0791 1.00000
  7.079E+05 7.097E+05 1.976E+00 9.077E-03 2.163E-01 4.982E-02 2.752E-01 2.251E+00 3.321E+05  6.2925 1.00000
  7.943E+05 7.961E+05 1.991E+00 1.042E-02 2.500E-01 5.560E-02 3.160E-01 2.308E+00 3.700E+05  6.5078 1.00000
  8.913E+05 8.930E+05 2.007E+00 1.197E-02 2.886E-01 6.213E-02 3.627E-01 2.370E+00 4.115E+05  6.7250 1.00000
  1.000E+06 1.002E+06 2.022E+00 1.373E-02 3.327E-01 6.950E-02 4.159E-01 2.438E+00 4.567E+05  6.9440 1.00000
  1.122E+06 1.124E+06 2.038E+00 1.575E-02 3.830E-01 7.782E-02 4.765E-01 2.514E+00 5.060E+05  7.1646 1.00000
  1.259E+06 1.261E+06 2.053E+00 1.805E-02 4.403E-01 8.722E-02 5.456E-01 2.598E+00 5.596E+05  7.3867 1.00000
  1.413E+06 1.414E+06 2.068E+00 2.068E-02 5.056E-01 9.786E-02 6.242E-01 2.692E+00 6.177E+05  7.6101 1.00000
  1.585E+06 1.587E+06 2.082E+00 2.369E-02 5.799E-01 1.099E-01 7.135E-01 2.796E+00 6.805E+05  7.8349 1.00000
  1.778E+06 1.780E+06 2.097E+00 2.712E-02 6.644E-01 1.236E-01 8.151E-01 2.912E+00 7.483E+05  8.0608 1.00000
  1.995E+06 1.997E+06 2.111E+00 3.104E-02 7.603E-01 1.390E-01 9.304E-01 3.041E+00 8.213E+05  8.2877 1.00000
  2.239E+06 2.240E+06 2.125E+00 3.551E-02 8.692E-01 1.566E-01 1.061E+00 3.186E+00 8.995E+05  8.5155 1.00000
  2.512E+06 2.514E+06 2.139E+00 4.061E-02 9.926E-01 1.765E-01 1.210E+00 3.349E+00 9.831E+05  8.7441 1.00000
  2.818E+06 2.820E+06 2.153E+00 4.642E-02 1.132E+00 1.991E-01 1.378E+00 3.531E+00 1.072E+06  8.9732 1.00000
  3.162E+06 3.164E+06 2.167E+00 5.304E-02 1.291E+00 2.248E-01 1.569E+00 3.735E+00 1.167E+06  9.2029 1.00000
  3.548E+06 3.550E+06 2.180E+00 6.059E-02 1.470E+00 2.541E-01 1.784E+00 3.965E+00 1.267E+06  9.4328 1.00000
  3.981E+06 3.983E+06 2.194E+00 6.919E-02 1.672E+00 2.873E-01 2.029E+00 4.222E+00 1.373E+06  9.6630 1.00000
  4.467E+06 4.469E+06 2.207E+00 7.897E-02 1.901E+00 3.251E-01 2.305E+00 4.512E+00 1.485E+06  9.8931 1.00000
  5.012E+06 5.014E+06 2.220E+00 9.011E-02 2.159E+00 3.681E-01 2.617E+00 4.838E+00 1.601E+06 10.1233 1.00000
  5.623E+06 5.625E+06 2.233E+00 1.028E-01 2.451E+00 4.170E-01 2.971E+00 5.204E+00 1.723E+06 10.3535 1.00000
  6.310E+06 6.311E+06 2.246E+00 1.172E-01 2.780E+00 4.727E-01 3.370E+00 5.616E+00 1.850E+06 10.5837 1.00000
  7.079E+06 7.081E+06 2.259E+00 1.336E-01 3.151E+00 5.361E-01 3.821E+00 6.080E+00 1.982E+06 10.8139 1.00000
  7.943E+06 7.945E+06 2.271E+00 1.522E-01 3.569E+00 6.084E-01 4.330E+00 6.601E+00 2.119E+06 11.0441 1.00000
  8.913E+06 8.914E+06 2.284E+00 1.734E-01 4.041E+00 6.907E-01 4.905E+00 7.189E+00 2.259E+06 11.2743 1.00000
  1.000E+07 1.000E+07 2.296E+00 1.974E-01 4.572E+00 7.845E-01 5.554E+00 7.850E+00 2.404E+06 11.5045 1.00000
  1.122E+07 1.122E+07 2.309E+00 2.248E-01 5.169E+00 8.914E-01 6.286E+00 8.594E+00 2.553E+06 11.7347 1.00000
  1.259E+07 1.259E+07 2.321E+00 2.558E-01 5.842E+00 1.013E+00 7.111E+00 9.432E+00 2.705E+06 11.9649 1.00000
  1.413E+07 1.413E+07 2.333E+00 2.909E-01 6.600E+00 1.152E+00 8.043E+00 1.038E+01 2.861E+06 12.1952 1.00000
  1.585E+07 1.585E+07 2.345E+00 3.309E-01 7.452E+00 1.311E+00 9.093E+00 1.144E+01 3.019E+06 12.4254 1.00000
  1.778E+07 1.778E+07 2.357E+00 3.761E-01 8.410E+00 1.491E+00 1.028E+01 1.263E+01 3.180E+06 12.6556 1.00000
  1.995E+07 1.995E+07 2.369E+00 4.275E-01 9.488E+00 1.697E+00 1.161E+01 1.398E+01 3.344E+06 12.8859 1.00000
  2.239E+07 2.239E+07 2.380E+00 4.856E-01 1.070E+01 1.932E+00 1.312E+01 1.550E+01 3.509E+06 13.1161 1.00000
  2.512E+07 2.512E+07 2.392E+00 5.516E-01 1.206E+01 2.201E+00 1.481E+01 1.721E+01 3.677E+06 13.3463 1.00000
  2.818E+07 2.819E+07 2.404E+00 6.262E-01 1.359E+01 2.507E+00 1.673E+01 1.913E+01 3.846E+06 13.5766 1.00000
  3.162E+07 3.162E+07 2.415E+00 7.107E-01 1.531E+01 2.856E+00 1.888E+01 2.130E+01 4.017E+06 13.8068 1.00000
  3.548E+07 3.548E+07 2.427E+00 8.064E-01 1.725E+01 3.254E+00 2.131E+01 2.373E+01 4.188E+06 14.0371 1.00000
  3.981E+07 3.981E+07 2.438E+00 9.147E-01 1.942E+01 3.709E+00 2.404E+01 2.648E+01 4.361E+06 14.2673 1.00000
  4.467E+07 4.467E+07 2.450E+00 1.037E+00 2.186E+01 4.228E+00 2.712E+01 2.957E+01 4.535E+06 14.4976 1.00000
  5.012E+07 5.012E+07 2.461E+00 1.176E+00 2.460E+01 4.820E+00 3.059E+01 3.306E+01 4.710E+06 14.7278 1.00000
  5.623E+07 5.624E+07 2.473E+00 1.332E+00 2.768E+01 5.496E+00 3.451E+01 3.698E+01 4.885E+06 14.9581 1.00000
  6.310E+07 6.310E+07 2.484E+00 1.509E+00 3.113E+01 6.268E+00 3.891E+01 4.139E+01 5.061E+06 15.1883 1.00000
  7.079E+07 7.080E+07 2.496E+00 1.709E+00 3.501E+01 7.150E+00 4.387E+01 4.637E+01 5.237E+06 15.4186 1.00000
  7.943E+07 7.943E+07 2.507E+00 1.935E+00 3.937E+01 8.156E+00 4.946E+01 5.197E+01 5.413E+06 15.6488 1.00000
  8.913E+07 8.913E+07 2.519E+00 2.190E+00 4.426E+01 9.305E+00 5.576E+01 5.828E+01 5.589E+06 15.8791 1.00000
  1.000E+08 1.000E+08 2.530E+00 2.478E+00 4.976E+01 1.062E+01 6.285E+01 6.538E+01 5.766E+06 16.1093 1.00000
  1.122E+08 1.122E+08 2.542E+00 2.803E+00 5.592E+01 1.212E+01 7.084E+01 7.338E+01 5.942E+06 16.3396 1.00000
  1.259E+08 1.259E+08 2.554E+00 3.170E+00 6.284E+01 1.383E+01 7.984E+01 8.239E+01 6.119E+06 16.5698 1.00000
  1.413E+08 1.413E+08 2.565E+00 3.583E+00 7.061E+01 1.578E+01 8.998E+01 9.254E+01 6.295E+06 16.8001 1.00000
  1.585E+08 1.585E+08 2.577E+00 4.050E+00 7.933E+01 1.802E+01 1.014E+02 1.040E+02 6.471E+06 17.0304 1.00000
  1.778E+08 1.778E+08 2.589E+00 4.575E+00 8.912E+01 2.057E+01 1.143E+02 1.168E+02 6.647E+06 17.2606 1.00000
  1.995E+08 1.995E+08 2.600E+00 5.168E+00 1.001E+02 2.348E+01 1.288E+02 1.314E+02 6.822E+06 17.4909 1.00000
  2.239E+08 2.239E+08 2.612E+00 5.835E+00 1.124E+02 2.681E+01 1.451E+02 1.477E+02 6.997E+06 17.7211 1.00000
  2.512E+08 2.512E+08 2.624E+00 6.588E+00 1.263E+02 3.061E+01 1.635E+02 1.661E+02 7.172E+06 17.9514 1.00000
  2.818E+08 2.818E+08 2.636E+00 7.435E+00 1.418E+02 3.496E+01 1.842E+02 1.868E+02 7.346E+06 18.1816 1.00000
  3.162E+08 3.162E+08 2.648E+00 8.388E+00 1.592E+02 3.992E+01 2.075E+02 2.102E+02 7.520E+06 18.4119 1.00000
  3.548E+08 3.548E+08 2.660E+00 9.462E+00 1.788E+02 4.559E+01 2.338E+02 2.365E+02 7.693E+06 18.6422 1.00000
  3.981E+08 3.981E+08 2.672E+00 1.067E+01 2.007E+02 5.208E+01 2.635E+02 2.661E+02 7.866E+06 18.8724 1.00000
  4.467E+08 4.467E+08 2.684E+00 1.203E+01 2.254E+02 5.948E+01 2.969E+02 2.996E+02 8.039E+06 19.1027 1.00000
  5.012E+08 5.012E+08 2.696E+00 1.356E+01 2.530E+02 6.795E+01 3.345E+02 3.372E+02 8.210E+06 19.3329 1.00000
  5.623E+08 5.623E+08 2.708E+00 1.528E+01 2.840E+02 7.763E+01 3.769E+02 3.796E+02 8.382E+06 19.5632 1.00000
  6.310E+08 6.310E+08 2.721E+00 1.722E+01 3.188E+02 8.869E+01 4.247E+02 4.274E+02 8.552E+06 19.7934 1.00000
  7.079E+08 7.079E+08 2.733E+00 1.939E+01 3.579E+02 1.013E+02 4.786E+02 4.813E+02 8.722E+06 20.0237 1.00000
  7.943E+08 7.943E+08 2.745E+00 2.184E+01 4.017E+02 1.158E+02 5.393E+02 5.420E+02 8.892E+06 20.2540 1.00000
  8.913E+08 8.913E+08 2.758E+00 2.459E+01 4.508E+02 1.323E+02 6.077E+02 6.105E+02 9.060E+06 20.4842 1.00000
  1.000E+09 1.000E+09 2.771E+00 2.768E+01 5.060E+02 1.512E+02 6.849E+02 6.877E+02 9.229E+06 20.7145 1.00000
  1.122E+09 1.122E+09 2.783E+00 3.116E+01 5.679E+02 1.728E+02 7.719E+02 7.746E+02 9.396E+06 20.9447 1.00000
  1.259E+09 1.259E+09 2.796E+00 3.507E+01 6.374E+02 1.975E+02 8.699E+02 8.727E+02 9.563E+06 21.1750 1.00000
  1.413E+09 1.413E+09 2.809E+00 3.945E+01 7.153E+02 2.257E+02 9.805E+02 9.833E+02 9.729E+06 21.4052 1.00000
  1.585E+09 1.585E+09 2.821E+00 4.438E+01 8.028E+02 2.580E+02 1.105E+03 1.108E+03 9.894E+06 21.6355 1.00000
  1.778E+09 1.778E+09 2.834E+00 4.992E+01 9.009E+02 2.949E+02 1.246E+03 1.249E+03 1.006E+07 21.8658 1.00000
  1.995E+09 1.995E+09 2.847E+00 5.614E+01 1.011E+03 3.371E+02 1.404E+03 1.407E+03 1.022E+07 22.0960 1.00000
  2.239E+09 2.239E+09 2.860E+00 6.313E+01 1.135E+03 3.853E+02 1.583E+03 1.586E+03 1.039E+07 22.3263 1.00000
  2.512E+09 2.512E+09 2.873E+00 7.098E+01 1.273E+03 4.405E+02 1.785E+03 1.788E+03 1.055E+07 22.5565 1.00000
  2.818E+09 2.818E+09 2.887E+00 7.979E+01 1.429E+03 5.037E+02 2.012E+03 2.015E+03 1.071E+07 22.7868 1.00000
  3.162E+09 3.162E+09 2.900E+00 8.969E+01 1.603E+03 5.759E+02 2.269E+03 2.272E+03 1.087E+07 23.0171 1.00000
  3.548E+09 3.548E+09 2.913E+00 1.008E+02 1.799E+03 6.585E+02 2.558E+03 2.561E+03 1.103E+07 23.2473 1.00000
  3.981E+09 3.981E+09 2.927E+00 1.133E+02 2.019E+03 7.530E+02 2.885E+03 2.888E+03 1.119E+07 23.4776 1.00000
  4.467E+09 4.467E+09 2.940E+00 1.273E+02 2.265E+03 8.611E+02 3.254E+03 3.257E+03 1.135E+07 23.7078 1.00000
  5.012E+09 5.012E+09 2.954E+00 1.430E+02 2.542E+03 9.848E+02 3.670E+03 3.672E+03 1.151E+07 23.9381 1.00000
  5.623E+09 5.623E+09 2.967E+00 1.607E+02 2.852E+03 1.126E+03 4.139E+03 4.142E+03 1.167E+07 24.1683 1.00000
  6.310E+09 6.310E+09 2.981E+00 1.805E+02 3.200E+03 1.288E+03 4.669E+03 4.672E+03 1.182E+07 24.3986 1.00000
  7.079E+09 7.079E+09 2.995E+00 2.027E+02 3.591E+03 1.473E+03 5.267E+03 5.270E+03 1.198E+07 24.6289 1.00000
  7.943E+09 7.943E+09 3.009E+00 2.277E+02 4.029E+03 1.685E+03 5.942E+03 5.945E+03 1.213E+07 24.8591 1.00000
  8.913E+09 8.913E+09 3.022E+00 2.557E+02 4.521E+03 1.928E+03 6.705E+03 6.708E+03 1.229E+07 25.0894 1.00000
  1.000E+10 1.000E+10 3.036E+00 2.871E+02 5.073E+03 2.206E+03 7.566E+03 7.569E+03 1.244E+07 25.3196 1.00000
  1.122E+10 1.122E+10 3.051E+00 3.224E+02 5.692E+03 2.523E+03 8.538E+03 8.541E+03 1.259E+07 25.5499 1.00000
  1.259E+10 1.259E+10 3.065E+00 3.620E+02 6.387E+03 2.887E+03 9.636E+03 9.639E+03 1.274E+07 25.7802 1.00000
  1.413E+10 1.413E+10 3.079E+00 4.065E+02 7.166E+03 3.303E+03 1.088E+04 1.088E+04 1.289E+07 26.0104 1.00000
  1.585E+10 1.585E+10 3.093E+00 4.564E+02 8.041E+03 3.779E+03 1.228E+04 1.228E+04 1.304E+07 26.2407 1.00000
  1.778E+10 1.778E+10 3.108E+00 5.124E+02 9.022E+03 4.325E+03 1.386E+04 1.386E+04 1.319E+07 26.4709 1.00000
  1.995E+10 1.995E+10 3.122E+00 5.752E+02 1.012E+04 4.949E+03 1.565E+04 1.565E+04 1.334E+07 26.7012 1.00000
  2.239E+10 2.239E+10 3.137E+00 6.457E+02 1.136E+04 5.664E+03 1.767E+04 1.767E+04 1.348E+07 26.9315 1.00000
  2.512E+10 2.512E+10 3.151E+00 7.248E+02 1.274E+04 6.482E+03 1.995E+04 1.995E+04 1.363E+07 27.1617 1.00000
  2.818E+10 2.818E+10 3.166E+00 8.136E+02 1.430E+04 7.419E+03 2.253E+04 2.253E+04 1.377E+07 27.3920 1.00000
  3.162E+10 3.162E+10 3.181E+00 9.132E+02 1.604E+04 8.491E+03 2.545E+04 2.545E+04 1.392E+07 27.6222 1.00000
  3.548E+10 3.548E+10 3.196E+00 1.025E+03 1.800E+04 9.720E+03 2.875E+04 2.875E+04 1.406E+07 27.8525 1.00000
  3.981E+10 3.981E+10 3.211E+00 1.150E+03 2.020E+04 1.113E+04 3.247E+04 3.248E+04 1.420E+07 28.0827 1.00000
  4.467E+10 4.467E+10 3.226E+00 1.291E+03 2.266E+04 1.274E+04 3.669E+04 3.669E+04 1.434E+07 28.3130 1.00000
  5.012E+10 5.012E+10 3.241E+00 1.449E+03 2.543E+04 1.458E+04 4.146E+04 4.146E+04 1.448E+07 28.5433 1.00000
  5.623E+10 5.623E+10 3.256E+00 1.626E+03 2.853E+04 1.669E+04 4.685E+04 4.685E+04 1.462E+07 28.7735 1.00000
  6.310E+10 6.310E+10 3.272E+00 1.825E+03 3.201E+04 1.911E+04 5.295E+04 5.295E+04 1.476E+07 29.0038 1.00000
  7.079E+10 7.079E+10 3.287E+00 2.049E+03 3.591E+04 2.189E+04 5.985E+04 5.985E+04 1.490E+07 29.2340 1.00000
  7.943E+10 7.943E+10 3.303E+00 2.299E+03 4.030E+04 2.506E+04 6.765E+04 6.766E+04 1.503E+07 29.4643 1.00000
  8.913E+10 8.913E+10 3.318E+00 2.580E+03 4.521E+04 2.870E+04 7.649E+04 7.649E+04 1.517E+07 29.6946 1.00000
  1.000E+11 1.000E+11 3.334E+00 2.895E+03 5.073E+04 3.286E+04 8.648E+04 8.649E+04 1.530E+07 29.9248 1.00000
  1.122E+11 1.122E+11 3.350E+00 3.249E+03 5.691E+04 3.764E+04 9.780E+04 9.780E+04 1.544E+07 30.1551 1.00000
  1.259E+11 1.259E+11 3.366E+00 3.646E+03 6.386E+04 4.311E+04 1.106E+05 1.106E+05 1.557E+07 30.3853 1.00000
  1.413E+11 1.413E+11 3.382E+00 4.091E+03 7.165E+04 4.937E+04 1.251E+05 1.251E+05 1.570E+07 30.6156 1.00000
  1.585E+11 1.585E+11 3.398E+00 4.591E+03 8.039E+04 5.655E+04 1.415E+05 1.415E+05 1.583E+07 30.8458 1.00000
  1.778E+11 1.778E+11 3.414E+00 5.151E+03 9.019E+04 6.478E+04 1.601E+05 1.601E+05 1.596E+07 31.0761 1.00000
  1.995E+11 1.995E+11 3.430E+00 5.781E+03 1.012E+05 7.421E+04 1.812E+05 1.812E+05 1.608E+07 31.3064 1.00000
  2.239E+11 2.239E+11 3.446E+00 6.486E+03 1.135E+05 8.501E+04 2.050E+05 2.050E+05 1.621E+07 31.5366 1.00000
  2.512E+11 2.512E+11 3.463E+00 7.278E+03 1.274E+05 9.739E+04 2.321E+05 2.321E+05 1.634E+07 31.7669 1.00000
  2.818E+11 2.818E+11 3.479E+00 8.167E+03 1.429E+05 1.116E+05 2.627E+05 2.627E+05 1.646E+07 31.9971 1.00000
  3.162E+11 3.162E+11 3.496E+00 9.164E+03 1.604E+05 1.279E+05 2.974E+05 2.974E+05 1.658E+07 32.2274 1.00000
  3.548E+11 3.548E+11 3.512E+00 1.028E+04 1.799E+05 1.465E+05 3.367E+05 3.367E+05 1.671E+07 32.4577 1.00000
  3.981E+11 3.981E+11 3.529E+00 1.154E+04 2.019E+05 1.679E+05 3.813E+05 3.813E+05 1.683E+07 32.6879 1.00000
  4.467E+11 4.467E+11 3.546E+00 1.295E+04 2.265E+05 1.924E+05 4.318E+05 4.318E+05 1.695E+07 32.9182 1.00000
  5.012E+11 5.012E+11 3.563E+00 1.453E+04 2.541E+05 2.205E+05 4.891E+05 4.891E+05 1.707E+07 33.1484 1.00000
  5.623E+11 5.623E+11 3.580E+00 1.630E+04 2.851E+05 2.527E+05 5.541E+05 5.541E+05 1.718E+07 33.3787 1.00000
  6.310E+11 6.310E+11 3.597E+00 1.829E+04 3.199E+05 2.896E+05 6.278E+05 6.278E+05 1.730E+07 33.6089 1.00000
  7.079E+11 7.079E+11 3.615E+00 2.052E+04 3.589E+05 3.319E+05 7.114E+05 7.114E+05 1.742E+07 33.8392 1.00000
  7.943E+11 7.943E+11 3.632E+00 2.303E+04 4.027E+05 3.805E+05 8.062E+05 8.062E+05 1.753E+07 34.0695 1.00000
  8.913E+11 8.913E+11 3.649E+00 2.584E+04 4.518E+05 4.361E+05 9.138E+05 9.138E+05 1.764E+07 34.2997 1.00000
  1.000E+12 1.000E+12 3.667E+00 2.899E+04 5.070E+05 5.000E+05 1.036E+06 1.036E+06 1.776E+07 34.5300 1.00000
  1.122E+12 1.122E+12 3.684E+00 3.253E+04 5.688E+05 5.732E+05 1.175E+06 1.175E+06 1.787E+07 34.7602 1.00000
  1.259E+12 1.259E+12 3.702E+00 3.650E+04 6.382E+05 6.572E+05 1.332E+06 1.332E+06 1.798E+07 34.9905 1.00000
  1.413E+12 1.413E+12 3.720E+00 4.095E+04 7.160E+05 7.535E+05 1.510E+06 1.510E+06 1.808E+07 35.2208 1.00000
  1.585E+12 1.585E+12 3.738E+00 4.595E+04 8.033E+05 8.639E+05 1.713E+06 1.713E+06 1.819E+07 35.4510 1.00000
  1.778E+12 1.778E+12 3.756E+00 5.156E+04 9.013E+05 9.906E+05 1.944E+06 1.944E+06 1.830E+07 35.6813 1.00000
  1.995E+12 1.995E+12 3.774E+00 5.785E+04 1.011E+06 1.136E+06 2.205E+06 2.205E+06 1.840E+07 35.9115 1.00000
  2.239E+12 2.239E+12 3.792E+00 6.491E+04 1.135E+06 1.303E+06 2.502E+06 2.502E+06 1.851E+07 36.1418 1.00000
  2.512E+12 2.512E+12 3.811E+00 7.283E+04 1.273E+06 1.494E+06 2.840E+06 2.840E+06 1.861E+07 36.3720 1.00000
  2.818E+12 2.818E+12 3.829E+00 8.171E+04 1.428E+06 1.713E+06 3.223E+06 3.223E+06 1.871E+07 36.6023 1.00000
  3.162E+12 3.162E+12 3.848E+00 9.169E+04 1.602E+06 1.965E+06 3.659E+06 3.659E+06 1.881E+07 36.8326 1.00000
  3.548E+12 3.548E+12 3.866E+00 1.029E+05 1.798E+06 2.254E+06 4.155E+06 4.155E+06 1.891E+07 37.0628 1.00000
  3.981E+12 3.981E+12 3.885E+00 1.154E+05 2.017E+06 2.586E+06 4.718E+06 4.718E+06 1.901E+07 37.2931 1.00000
  4.467E+12 4.467E+12 3.904E+00 1.295E+05 2.263E+06 2.966E+06 5.359E+06 5.359E+06 1.911E+07 37.5233 1.00000
  5.012E+12 5.012E+12 3.923E+00 1.453E+05 2.539E+06 3.403E+06 6.087E+06 6.087E+06 1.920E+07 37.7536 1.00000
  5.623E+12 5.623E+12 3.942E+00 1.630E+05 2.849E+06 3.904E+06 6.916E+06 6.916E+06 1.930E+07 37.9839 1.00000
  6.310E+12 6.310E+12 3.961E+00 1.829E+05 3.197E+06 4.479E+06 7.858E+06 7.858E+06 1.939E+07 38.2141 1.00000
  7.079E+12 7.079E+12 3.980E+00 2.053E+05 3.586E+06 5.138E+06 8.930E+06 8.930E+06 1.948E+07 38.4444 1.00000
  7.943E+12 7.943E+12 4.000E+00 2.303E+05 4.024E+06 5.896E+06 1.015E+07 1.015E+07 1.957E+07 38.6746 1.00000
  8.913E+12 8.913E+12 4.019E+00 2.584E+05 4.515E+06 6.765E+06 1.154E+07 1.154E+07 1.966E+07 38.9049 1.00000
  1.000E+13 1.000E+13 4.039E+00 2.899E+05 5.065E+06 7.763E+06 1.312E+07 1.312E+07 1.975E+07 39.1352 1.00000
  1.122E+13 1.122E+13 4.058E+00 3.253E+05 5.683E+06 8.909E+06 1.492E+07 1.492E+07 1.984E+07 39.3654 1.00000
  1.259E+13 1.259E+13 4.078E+00 3.650E+05 6.376E+06 1.022E+07 1.697E+07 1.697E+07 1.992E+07 39.5957 1.00000
  1.413E+13 1.413E+13 4.098E+00 4.096E+05 7.154E+06 1.173E+07 1.930E+07 1.930E+07 2.001E+07 39.8259 1.00000
  1.585E+13 1.585E+13 4.118E+00 4.595E+05 8.026E+06 1.347E+07 2.195E+07 2.195E+07 2.009E+07 40.0562 1.00000
  1.778E+13 1.778E+13 4.138E+00 5.156E+05 9.005E+06 1.546E+07 2.498E+07 2.498E+07 2.018E+07 40.2864 1.00000
  1.995E+13 1.995E+13 4.158E+00 5.785E+05 1.010E+07 1.774E+07 2.843E+07 2.843E+07 2.026E+07 40.5167 1.00000
  2.239E+13 2.239E+13 4.179E+00 6.491E+05 1.134E+07 2.037E+07 3.235E+07 3.235E+07 2.034E+07 40.7470 1.00000
  2.512E+13 2.512E+13 4.199E+00 7.283E+05 1.272E+07 2.338E+07 3.683E+07 3.683E+07 2.042E+07 40.9772 1.00000
  2.818E+13 2.818E+13 4.220E+00 8.172E+05 1.427E+07 2.684E+07 4.193E+07 4.193E+07 2.050E+07 41.2075 1.00000
  3.162E+13 3.162E+13 4.240E+00 9.169E+05 1.601E+07 3.082E+07 4.774E+07 4.774E+07 2.057E+07 41.4377 1.00000
  3.548E+13 3.548E+13 4.261E+00 1.029E+06 1.796E+07 3.538E+07 5.437E+07 5.437E+07 2.065E+07 41.6680 1.00000
  3.981E+13 3.981E+13 4.282E+00 1.154E+06 2.015E+07 4.063E+07 6.193E+07 6.193E+07 2.072E+07 41.8983 1.00000
  4.467E+13 4.467E+13 4.303E+00 1.295E+06 2.261E+07 4.665E+07 7.055E+07 7.055E+07 2.080E+07 42.1285 1.00000
  5.012E+13 5.012E+13 4.324E+00 1.453E+06 2.537E+07 5.356E+07 8.039E+07 8.039E+07 2.087E+07 42.3588 1.00000
  5.623E+13 5.623E+13 4.345E+00 1.631E+06 2.846E+07 6.151E+07 9.160E+07 9.160E+07 2.094E+07 42.5890 1.00000
  6.310E+13 6.310E+13 4.367E+00 1.829E+06 3.193E+07 7.064E+07 1.044E+08 1.044E+08 2.101E+07 42.8193 1.00000
  7.079E+13 7.079E+13 4.388E+00 2.053E+06 3.583E+07 8.112E+07 1.190E+08 1.190E+08 2.108E+07 43.0495 1.00000
  7.943E+13 7.943E+13 4.410E+00 2.303E+06 4.020E+07 9.317E+07 1.357E+08 1.357E+08 2.115E+07 43.2798 1.00000
  8.913E+13 8.913E+13 4.431E+00 2.584E+06 4.510E+07 1.070E+08 1.547E+08 1.547E+08 2.122E+07 43.5101 1.00000
