 Incident particle is a Tau with M = 1776.82000 MeV
 Index = 0: ChlorineGas
      Absorber with <Z/A> = 0.47951
 Sternheimer coef:  a     k=m_s   x_0    x_1    I[eV]   Cbar  delta0
                 0.1985  2.9702  1.5566  4.3005  174.0 11.1470 0.00

 *** Table generated with PUMAS v1.00 ***

      T         p     Ionization  brems     pair     photonuc  Radloss    dE/dx   CSDA Range  delta   beta
    [MeV]    [MeV/c]  -----------------------[MeV cm^2/g]------------------------  [g/cm^2]
  1.000E+05 1.018E+05 2.324E+00 3.015E-04 4.832E-03 8.033E-03 1.317E-02 2.337E+00 2.139E+04  0.1218 0.99985
  1.122E+05 1.140E+05 2.354E+00 3.486E-04 5.804E-03 9.051E-03 1.520E-02 2.370E+00 2.658E+04  0.1694 0.99988
  1.259E+05 1.277E+05 2.384E+00 4.030E-04 6.950E-03 1.014E-02 1.750E-02 2.402E+00 3.232E+04  0.2240 0.99990
  1.413E+05 1.430E+05 2.414E+00 4.656E-04 8.296E-03 1.137E-02 2.013E-02 2.434E+00 3.867E+04  0.2854 0.99992
  1.585E+05 1.603E+05 2.443E+00 5.377E-04 9.877E-03 1.274E-02 2.316E-02 2.466E+00 4.570E+04  0.3534 0.99994
  1.778E+05 1.796E+05 2.472E+00 6.205E-04 1.173E-02 1.427E-02 2.662E-02 2.498E+00 5.350E+04  0.4281 0.99995
  1.995E+05 2.013E+05 2.500E+00 7.158E-04 1.389E-02 1.601E-02 3.062E-02 2.530E+00 6.213E+04  0.5092 0.99996
  2.239E+05 2.256E+05 2.528E+00 8.254E-04 1.642E-02 1.790E-02 3.515E-02 2.563E+00 7.169E+04  0.5967 0.99997
  2.512E+05 2.530E+05 2.555E+00 9.512E-04 1.936E-02 2.002E-02 4.034E-02 2.595E+00 8.228E+04  0.6903 0.99998
  2.818E+05 2.836E+05 2.582E+00 1.096E-03 2.278E-02 2.241E-02 4.628E-02 2.628E+00 9.401E+04  0.7901 0.99998
  3.162E+05 3.180E+05 2.608E+00 1.261E-03 2.675E-02 2.510E-02 5.311E-02 2.662E+00 1.070E+05  0.8958 0.99998
  3.548E+05 3.566E+05 2.634E+00 1.452E-03 3.135E-02 2.811E-02 6.091E-02 2.695E+00 1.214E+05  1.0074 0.99999
  3.981E+05 3.999E+05 2.660E+00 1.670E-03 3.666E-02 3.147E-02 6.981E-02 2.730E+00 1.374E+05  1.1246 0.99999
  4.467E+05 4.485E+05 2.685E+00 1.919E-03 4.281E-02 3.523E-02 7.996E-02 2.765E+00 1.551E+05  1.2474 0.99999
  5.012E+05 5.030E+05 2.710E+00 2.206E-03 4.990E-02 3.946E-02 9.156E-02 2.802E+00 1.746E+05  1.3756 0.99999
  5.623E+05 5.641E+05 2.735E+00 2.534E-03 5.806E-02 4.403E-02 1.046E-01 2.839E+00 1.963E+05  1.5091 1.00000
  6.310E+05 6.327E+05 2.759E+00 2.909E-03 6.746E-02 4.918E-02 1.195E-01 2.878E+00 2.203E+05  1.6478 1.00000
  7.079E+05 7.097E+05 2.782E+00 3.339E-03 7.825E-02 5.498E-02 1.366E-01 2.919E+00 2.469E+05  1.7914 1.00000
  7.943E+05 7.961E+05 2.805E+00 3.831E-03 9.065E-02 6.152E-02 1.560E-01 2.961E+00 2.763E+05  1.9400 1.00000
  8.913E+05 8.930E+05 2.828E+00 4.393E-03 1.048E-01 6.891E-02 1.781E-01 3.006E+00 3.088E+05  2.0933 1.00000
  1.000E+06 1.002E+06 2.850E+00 5.036E-03 1.211E-01 7.725E-02 2.034E-01 3.054E+00 3.447E+05  2.2511 1.00000
  1.122E+06 1.124E+06 2.872E+00 5.771E-03 1.397E-01 8.669E-02 2.322E-01 3.104E+00 3.843E+05  2.4135 1.00000
  1.259E+06 1.261E+06 2.894E+00 6.611E-03 1.610E-01 9.738E-02 2.650E-01 3.159E+00 4.280E+05  2.5801 1.00000
  1.413E+06 1.414E+06 2.915E+00 7.571E-03 1.852E-01 1.095E-01 3.023E-01 3.217E+00 4.762E+05  2.7509 1.00000
  1.585E+06 1.587E+06 2.935E+00 8.666E-03 2.129E-01 1.232E-01 3.447E-01 3.280E+00 5.293E+05  2.9258 1.00000
  1.778E+06 1.780E+06 2.956E+00 9.917E-03 2.444E-01 1.387E-01 3.930E-01 3.349E+00 5.876E+05  3.1046 1.00000
  1.995E+06 1.997E+06 2.976E+00 1.134E-02 2.802E-01 1.564E-01 4.480E-01 3.424E+00 6.517E+05  3.2871 1.00000
  2.239E+06 2.240E+06 2.995E+00 1.297E-02 3.210E-01 1.764E-01 5.104E-01 3.505E+00 7.220E+05  3.4732 1.00000
  2.512E+06 2.514E+06 3.014E+00 1.483E-02 3.673E-01 1.992E-01 5.813E-01 3.595E+00 7.989E+05  3.6629 1.00000
  2.818E+06 2.820E+06 3.033E+00 1.695E-02 4.199E-01 2.250E-01 6.618E-01 3.695E+00 8.830E+05  3.8558 1.00000
  3.162E+06 3.164E+06 3.051E+00 1.936E-02 4.795E-01 2.544E-01 7.532E-01 3.804E+00 9.748E+05  4.0520 1.00000
  3.548E+06 3.550E+06 3.069E+00 2.212E-02 5.471E-01 2.878E-01 8.570E-01 3.926E+00 1.075E+06  4.2512 1.00000
  3.981E+06 3.983E+06 3.087E+00 2.525E-02 6.236E-01 3.258E-01 9.746E-01 4.061E+00 1.183E+06  4.4533 1.00000
  4.467E+06 4.469E+06 3.104E+00 2.882E-02 7.102E-01 3.690E-01 1.108E+00 4.212E+00 1.301E+06  4.6582 1.00000
  5.012E+06 5.014E+06 3.121E+00 3.289E-02 8.082E-01 4.182E-01 1.259E+00 4.380E+00 1.427E+06  4.8657 1.00000
  5.623E+06 5.625E+06 3.138E+00 3.752E-02 9.189E-01 4.742E-01 1.431E+00 4.568E+00 1.564E+06  5.0757 1.00000
  6.310E+06 6.311E+06 3.154E+00 4.278E-02 1.044E+00 5.380E-01 1.625E+00 4.779E+00 1.711E+06  5.2880 1.00000
  7.079E+06 7.081E+06 3.170E+00 4.878E-02 1.185E+00 6.106E-01 1.845E+00 5.014E+00 1.868E+06  5.5026 1.00000
  7.943E+06 7.945E+06 3.185E+00 5.559E-02 1.345E+00 6.934E-01 2.094E+00 5.279E+00 2.036E+06  5.7192 1.00000
  8.913E+06 8.914E+06 3.201E+00 6.334E-02 1.525E+00 7.877E-01 2.376E+00 5.576E+00 2.215E+06  5.9377 1.00000
  1.000E+07 1.000E+07 3.216E+00 7.215E-02 1.728E+00 8.952E-01 2.695E+00 5.911E+00 2.405E+06  6.1580 1.00000
  1.122E+07 1.122E+07 3.231E+00 8.216E-02 1.956E+00 1.018E+00 3.056E+00 6.287E+00 2.605E+06  6.3799 1.00000
  1.259E+07 1.259E+07 3.245E+00 9.353E-02 2.214E+00 1.157E+00 3.465E+00 6.710E+00 2.816E+06  6.6034 1.00000
  1.413E+07 1.413E+07 3.260E+00 1.064E-01 2.504E+00 1.317E+00 3.927E+00 7.187E+00 3.037E+06  6.8281 1.00000
  1.585E+07 1.585E+07 3.274E+00 1.211E-01 2.831E+00 1.498E+00 4.450E+00 7.724E+00 3.269E+06  7.0541 1.00000
  1.778E+07 1.778E+07 3.288E+00 1.377E-01 3.198E+00 1.705E+00 5.042E+00 8.329E+00 3.510E+06  7.2811 1.00000
  1.995E+07 1.995E+07 3.302E+00 1.566E-01 3.612E+00 1.942E+00 5.711E+00 9.012E+00 3.760E+06  7.5090 1.00000
  2.239E+07 2.239E+07 3.315E+00 1.781E-01 4.078E+00 2.211E+00 6.467E+00 9.782E+00 4.020E+06  7.7377 1.00000
  2.512E+07 2.512E+07 3.329E+00 2.023E-01 4.601E+00 2.519E+00 7.323E+00 1.065E+01 4.288E+06  7.9670 1.00000
  2.818E+07 2.819E+07 3.342E+00 2.299E-01 5.190E+00 2.870E+00 8.290E+00 1.163E+01 4.563E+06  8.1967 1.00000
  3.162E+07 3.162E+07 3.356E+00 2.611E-01 5.852E+00 3.270E+00 9.384E+00 1.274E+01 4.846E+06  8.4268 1.00000
  3.548E+07 3.548E+07 3.369E+00 2.964E-01 6.597E+00 3.727E+00 1.062E+01 1.399E+01 5.136E+06  8.6570 1.00000
  3.981E+07 3.981E+07 3.383E+00 3.365E-01 7.433E+00 4.249E+00 1.202E+01 1.540E+01 5.431E+06  8.8872 1.00000
  4.467E+07 4.467E+07 3.396E+00 3.819E-01 8.373E+00 4.844E+00 1.360E+01 1.699E+01 5.731E+06  9.1175 1.00000
  5.012E+07 5.012E+07 3.409E+00 4.332E-01 9.429E+00 5.523E+00 1.539E+01 1.879E+01 6.037E+06  9.3477 1.00000
  5.623E+07 5.624E+07 3.423E+00 4.913E-01 1.062E+01 6.299E+00 1.741E+01 2.083E+01 6.346E+06  9.5780 1.00000
  6.310E+07 6.310E+07 3.436E+00 5.570E-01 1.195E+01 7.185E+00 1.969E+01 2.313E+01 6.659E+06  9.8082 1.00000
  7.079E+07 7.080E+07 3.449E+00 6.313E-01 1.344E+01 8.196E+00 2.227E+01 2.572E+01 6.976E+06 10.0385 1.00000
  7.943E+07 7.943E+07 3.463E+00 7.154E-01 1.513E+01 9.350E+00 2.519E+01 2.865E+01 7.294E+06 10.2687 1.00000
  8.913E+07 8.913E+07 3.476E+00 8.104E-01 1.701E+01 1.067E+01 2.849E+01 3.197E+01 7.615E+06 10.4990 1.00000
  1.000E+08 1.000E+08 3.489E+00 9.177E-01 1.913E+01 1.217E+01 3.222E+01 3.571E+01 7.937E+06 10.7292 1.00000
  1.122E+08 1.122E+08 3.503E+00 1.039E+00 2.151E+01 1.389E+01 3.645E+01 3.995E+01 8.261E+06 10.9595 1.00000
  1.259E+08 1.259E+08 3.516E+00 1.176E+00 2.418E+01 1.586E+01 4.122E+01 4.473E+01 8.585E+06 11.1897 1.00000
  1.413E+08 1.413E+08 3.530E+00 1.331E+00 2.718E+01 1.810E+01 4.661E+01 5.014E+01 8.910E+06 11.4200 1.00000
  1.585E+08 1.585E+08 3.543E+00 1.505E+00 3.055E+01 2.066E+01 5.272E+01 5.626E+01 9.235E+06 11.6503 1.00000
  1.778E+08 1.778E+08 3.557E+00 1.702E+00 3.433E+01 2.359E+01 5.962E+01 6.318E+01 9.560E+06 11.8805 1.00000
  1.995E+08 1.995E+08 3.570E+00 1.924E+00 3.857E+01 2.693E+01 6.743E+01 7.100E+01 9.885E+06 12.1108 1.00000
  2.239E+08 2.239E+08 3.584E+00 2.175E+00 4.334E+01 3.075E+01 7.626E+01 7.985E+01 1.021E+07 12.3410 1.00000
  2.512E+08 2.512E+08 3.598E+00 2.458E+00 4.868E+01 3.511E+01 8.625E+01 8.985E+01 1.053E+07 12.5713 1.00000
  2.818E+08 2.818E+08 3.612E+00 2.776E+00 5.468E+01 4.010E+01 9.755E+01 1.012E+02 1.085E+07 12.8015 1.00000
  3.162E+08 3.162E+08 3.625E+00 3.135E+00 6.142E+01 4.579E+01 1.103E+02 1.140E+02 1.117E+07 13.0318 1.00000
  3.548E+08 3.548E+08 3.639E+00 3.540E+00 6.897E+01 5.230E+01 1.248E+02 1.285E+02 1.149E+07 13.2621 1.00000
  3.981E+08 3.981E+08 3.653E+00 3.996E+00 7.745E+01 5.974E+01 1.412E+02 1.448E+02 1.181E+07 13.4923 1.00000
  4.467E+08 4.467E+08 3.667E+00 4.509E+00 8.697E+01 6.824E+01 1.597E+02 1.634E+02 1.213E+07 13.7226 1.00000
  5.012E+08 5.012E+08 3.681E+00 5.087E+00 9.765E+01 7.795E+01 1.807E+02 1.844E+02 1.244E+07 13.9528 1.00000
  5.623E+08 5.623E+08 3.696E+00 5.738E+00 1.096E+02 8.905E+01 2.044E+02 2.081E+02 1.276E+07 14.1831 1.00000
  6.310E+08 6.310E+08 3.710E+00 6.470E+00 1.231E+02 1.017E+02 2.313E+02 2.350E+02 1.307E+07 14.4133 1.00000
  7.079E+08 7.079E+08 3.724E+00 7.294E+00 1.382E+02 1.162E+02 2.617E+02 2.654E+02 1.338E+07 14.6436 1.00000
  7.943E+08 7.943E+08 3.738E+00 8.222E+00 1.551E+02 1.328E+02 2.962E+02 2.999E+02 1.368E+07 14.8739 1.00000
  8.913E+08 8.913E+08 3.753E+00 9.265E+00 1.741E+02 1.518E+02 3.352E+02 3.389E+02 1.399E+07 15.1041 1.00000
  1.000E+09 1.000E+09 3.767E+00 1.044E+01 1.954E+02 1.734E+02 3.793E+02 3.831E+02 1.429E+07 15.3344 1.00000
  1.122E+09 1.122E+09 3.782E+00 1.176E+01 2.194E+02 1.982E+02 4.293E+02 4.331E+02 1.459E+07 15.5646 1.00000
  1.259E+09 1.259E+09 3.797E+00 1.324E+01 2.462E+02 2.265E+02 4.860E+02 4.898E+02 1.489E+07 15.7949 1.00000
  1.413E+09 1.413E+09 3.812E+00 1.491E+01 2.763E+02 2.589E+02 5.502E+02 5.540E+02 1.518E+07 16.0251 1.00000
  1.585E+09 1.585E+09 3.826E+00 1.679E+01 3.102E+02 2.959E+02 6.229E+02 6.267E+02 1.548E+07 16.2554 1.00000
  1.778E+09 1.778E+09 3.841E+00 1.890E+01 3.481E+02 3.383E+02 7.053E+02 7.091E+02 1.577E+07 16.4857 1.00000
  1.995E+09 1.995E+09 3.856E+00 2.127E+01 3.906E+02 3.867E+02 7.986E+02 8.025E+02 1.605E+07 16.7159 1.00000
  2.239E+09 2.239E+09 3.871E+00 2.393E+01 4.384E+02 4.421E+02 9.044E+02 9.083E+02 1.634E+07 16.9462 1.00000
  2.512E+09 2.512E+09 3.887E+00 2.692E+01 4.920E+02 5.054E+02 1.024E+03 1.028E+03 1.662E+07 17.1764 1.00000
  2.818E+09 2.818E+09 3.902E+00 3.028E+01 5.521E+02 5.779E+02 1.160E+03 1.164E+03 1.690E+07 17.4067 1.00000
  3.162E+09 3.162E+09 3.917E+00 3.406E+01 6.196E+02 6.607E+02 1.314E+03 1.318E+03 1.718E+07 17.6370 1.00000
  3.548E+09 3.548E+09 3.933E+00 3.830E+01 6.953E+02 7.555E+02 1.489E+03 1.493E+03 1.746E+07 17.8672 1.00000
  3.981E+09 3.981E+09 3.948E+00 4.306E+01 7.802E+02 8.639E+02 1.687E+03 1.691E+03 1.773E+07 18.0975 1.00000
  4.467E+09 4.467E+09 3.964E+00 4.841E+01 8.755E+02 9.879E+02 1.912E+03 1.916E+03 1.800E+07 18.3277 1.00000
  5.012E+09 5.012E+09 3.980E+00 5.442E+01 9.824E+02 1.130E+03 2.167E+03 2.171E+03 1.827E+07 18.5580 1.00000
  5.623E+09 5.623E+09 3.995E+00 6.117E+01 1.102E+03 1.292E+03 2.456E+03 2.460E+03 1.853E+07 18.7882 1.00000
  6.310E+09 6.310E+09 4.011E+00 6.874E+01 1.237E+03 1.478E+03 2.784E+03 2.788E+03 1.880E+07 19.0185 1.00000
  7.079E+09 7.079E+09 4.027E+00 7.725E+01 1.388E+03 1.690E+03 3.156E+03 3.160E+03 1.906E+07 19.2488 1.00000
  7.943E+09 7.943E+09 4.043E+00 8.680E+01 1.557E+03 1.934E+03 3.578E+03 3.582E+03 1.931E+07 19.4790 1.00000
  8.913E+09 8.913E+09 4.059E+00 9.752E+01 1.748E+03 2.212E+03 4.057E+03 4.061E+03 1.957E+07 19.7093 1.00000
  1.000E+10 1.000E+10 4.076E+00 1.095E+02 1.961E+03 2.530E+03 4.601E+03 4.605E+03 1.982E+07 19.9395 1.00000
  1.122E+10 1.122E+10 4.092E+00 1.231E+02 2.200E+03 2.895E+03 5.218E+03 5.222E+03 2.007E+07 20.1698 1.00000
  1.259E+10 1.259E+10 4.108E+00 1.382E+02 2.469E+03 3.312E+03 5.919E+03 5.923E+03 2.032E+07 20.4001 1.00000
  1.413E+10 1.413E+10 4.125E+00 1.552E+02 2.770E+03 3.790E+03 6.715E+03 6.719E+03 2.056E+07 20.6303 1.00000
  1.585E+10 1.585E+10 4.141E+00 1.744E+02 3.108E+03 4.336E+03 7.619E+03 7.623E+03 2.080E+07 20.8606 1.00000
  1.778E+10 1.778E+10 4.158E+00 1.958E+02 3.488E+03 4.962E+03 8.645E+03 8.649E+03 2.104E+07 21.0908 1.00000
  1.995E+10 1.995E+10 4.175E+00 2.199E+02 3.913E+03 5.678E+03 9.811E+03 9.815E+03 2.128E+07 21.3211 1.00000
  2.239E+10 2.239E+10 4.192E+00 2.469E+02 4.391E+03 6.498E+03 1.114E+04 1.114E+04 2.151E+07 21.5514 1.00000
  2.512E+10 2.512E+10 4.209E+00 2.772E+02 4.927E+03 7.437E+03 1.264E+04 1.264E+04 2.174E+07 21.7816 1.00000
  2.818E+10 2.818E+10 4.226E+00 3.112E+02 5.528E+03 8.512E+03 1.435E+04 1.435E+04 2.197E+07 22.0119 1.00000
  3.162E+10 3.162E+10 4.243E+00 3.494E+02 6.202E+03 9.742E+03 1.629E+04 1.630E+04 2.219E+07 22.2421 1.00000
  3.548E+10 3.548E+10 4.260E+00 3.922E+02 6.959E+03 1.115E+04 1.850E+04 1.851E+04 2.242E+07 22.4724 1.00000
  3.981E+10 3.981E+10 4.278E+00 4.403E+02 7.808E+03 1.277E+04 2.101E+04 2.102E+04 2.264E+07 22.7026 1.00000
  4.467E+10 4.467E+10 4.295E+00 4.943E+02 8.761E+03 1.461E+04 2.387E+04 2.387E+04 2.285E+07 22.9329 1.00000
  5.012E+10 5.012E+10 4.313E+00 5.548E+02 9.830E+03 1.673E+04 2.711E+04 2.712E+04 2.307E+07 23.1632 1.00000
  5.623E+10 5.623E+10 4.330E+00 6.228E+02 1.103E+04 1.915E+04 3.080E+04 3.081E+04 2.328E+07 23.3934 1.00000
  6.310E+10 6.310E+10 4.348E+00 6.990E+02 1.237E+04 2.193E+04 3.500E+04 3.501E+04 2.349E+07 23.6237 1.00000
  7.079E+10 7.079E+10 4.366E+00 7.846E+02 1.388E+04 2.511E+04 3.978E+04 3.978E+04 2.370E+07 23.8539 1.00000
  7.943E+10 7.943E+10 4.384E+00 8.806E+02 1.558E+04 2.875E+04 4.521E+04 4.521E+04 2.390E+07 24.0842 1.00000
  8.913E+10 8.913E+10 4.402E+00 9.883E+02 1.748E+04 3.292E+04 5.139E+04 5.140E+04 2.410E+07 24.3145 1.00000
  1.000E+11 1.000E+11 4.420E+00 1.109E+03 1.961E+04 3.770E+04 5.842E+04 5.843E+04 2.430E+07 24.5447 1.00000
  1.122E+11 1.122E+11 4.438E+00 1.245E+03 2.200E+04 4.318E+04 6.643E+04 6.643E+04 2.450E+07 24.7750 1.00000
  1.259E+11 1.259E+11 4.457E+00 1.397E+03 2.469E+04 4.946E+04 7.554E+04 7.554E+04 2.469E+07 25.0052 1.00000
  1.413E+11 1.413E+11 4.475E+00 1.568E+03 2.770E+04 5.664E+04 8.591E+04 8.592E+04 2.488E+07 25.2355 1.00000
  1.585E+11 1.585E+11 4.494E+00 1.759E+03 3.108E+04 6.488E+04 9.772E+04 9.772E+04 2.507E+07 25.4657 1.00000
  1.778E+11 1.778E+11 4.513E+00 1.974E+03 3.487E+04 7.432E+04 1.112E+05 1.112E+05 2.526E+07 25.6960 1.00000
  1.995E+11 1.995E+11 4.531E+00 2.216E+03 3.912E+04 8.514E+04 1.265E+05 1.265E+05 2.544E+07 25.9263 1.00000
  2.239E+11 2.239E+11 4.550E+00 2.486E+03 4.390E+04 9.753E+04 1.439E+05 1.439E+05 2.562E+07 26.1565 1.00000
  2.512E+11 2.512E+11 4.569E+00 2.790E+03 4.925E+04 1.117E+05 1.638E+05 1.638E+05 2.580E+07 26.3868 1.00000
  2.818E+11 2.818E+11 4.588E+00 3.131E+03 5.526E+04 1.280E+05 1.864E+05 1.864E+05 2.597E+07 26.6170 1.00000
  3.162E+11 3.162E+11 4.608E+00 3.513E+03 6.200E+04 1.467E+05 2.122E+05 2.122E+05 2.615E+07 26.8473 1.00000
  3.548E+11 3.548E+11 4.627E+00 3.943E+03 6.956E+04 1.681E+05 2.416E+05 2.416E+05 2.632E+07 27.0776 1.00000
  3.981E+11 3.981E+11 4.646E+00 4.424E+03 7.805E+04 1.926E+05 2.751E+05 2.751E+05 2.649E+07 27.3078 1.00000
  4.467E+11 4.467E+11 4.666E+00 4.964E+03 8.757E+04 2.207E+05 3.132E+05 3.133E+05 2.665E+07 27.5381 1.00000
  5.012E+11 5.012E+11 4.686E+00 5.570E+03 9.825E+04 2.529E+05 3.568E+05 3.568E+05 2.682E+07 27.7683 1.00000
  5.623E+11 5.623E+11 4.705E+00 6.250E+03 1.102E+05 2.899E+05 4.064E+05 4.064E+05 2.698E+07 27.9986 1.00000
  6.310E+11 6.310E+11 4.725E+00 7.013E+03 1.237E+05 3.323E+05 4.629E+05 4.630E+05 2.713E+07 28.2288 1.00000
  7.079E+11 7.079E+11 4.745E+00 7.870E+03 1.388E+05 3.808E+05 5.275E+05 5.275E+05 2.729E+07 28.4591 1.00000
  7.943E+11 7.943E+11 4.765E+00 8.830E+03 1.557E+05 4.365E+05 6.010E+05 6.011E+05 2.744E+07 28.6894 1.00000
  8.913E+11 8.913E+11 4.785E+00 9.908E+03 1.747E+05 5.004E+05 6.850E+05 6.850E+05 2.760E+07 28.9196 1.00000
  1.000E+12 1.000E+12 4.806E+00 1.112E+04 1.960E+05 5.736E+05 7.807E+05 7.808E+05 2.775E+07 29.1499 1.00000
  1.122E+12 1.122E+12 4.826E+00 1.247E+04 2.199E+05 6.576E+05 8.900E+05 8.900E+05 2.789E+07 29.3801 1.00000
  1.259E+12 1.259E+12 4.847E+00 1.400E+04 2.467E+05 7.540E+05 1.015E+06 1.015E+06 2.804E+07 29.6104 1.00000
  1.413E+12 1.413E+12 4.867E+00 1.571E+04 2.768E+05 8.645E+05 1.157E+06 1.157E+06 2.818E+07 29.8407 1.00000
  1.585E+12 1.585E+12 4.888E+00 1.762E+04 3.106E+05 9.912E+05 1.319E+06 1.319E+06 2.832E+07 30.0709 1.00000
  1.778E+12 1.778E+12 4.909E+00 1.977E+04 3.485E+05 1.137E+06 1.505E+06 1.505E+06 2.846E+07 30.3012 1.00000
  1.995E+12 1.995E+12 4.930E+00 2.219E+04 3.910E+05 1.303E+06 1.716E+06 1.716E+06 2.859E+07 30.5314 1.00000
  2.239E+12 2.239E+12 4.951E+00 2.489E+04 4.387E+05 1.495E+06 1.958E+06 1.958E+06 2.872E+07 30.7617 1.00000
  2.512E+12 2.512E+12 4.972E+00 2.793E+04 4.922E+05 1.714E+06 2.234E+06 2.234E+06 2.885E+07 30.9919 1.00000
  2.818E+12 2.818E+12 4.994E+00 3.134E+04 5.522E+05 1.966E+06 2.549E+06 2.549E+06 2.898E+07 31.2222 1.00000
  3.162E+12 3.162E+12 5.015E+00 3.517E+04 6.195E+05 2.255E+06 2.909E+06 2.909E+06 2.911E+07 31.4525 1.00000
  3.548E+12 3.548E+12 5.037E+00 3.946E+04 6.951E+05 2.586E+06 3.321E+06 3.321E+06 2.923E+07 31.6827 1.00000
  3.981E+12 3.981E+12 5.059E+00 4.427E+04 7.799E+05 2.967E+06 3.791E+06 3.791E+06 2.936E+07 31.9130 1.00000
  4.467E+12 4.467E+12 5.080E+00 4.967E+04 8.750E+05 3.403E+06 4.328E+06 4.328E+06 2.948E+07 32.1432 1.00000
  5.012E+12 5.012E+12 5.102E+00 5.574E+04 9.817E+05 3.904E+06 4.941E+06 4.941E+06 2.960E+07 32.3735 1.00000
  5.623E+12 5.623E+12 5.124E+00 6.254E+04 1.101E+06 4.479E+06 5.643E+06 5.643E+06 2.971E+07 32.6038 1.00000
  6.310E+12 6.310E+12 5.147E+00 7.017E+04 1.236E+06 5.138E+06 6.444E+06 6.444E+06 2.983E+07 32.8340 1.00000
  7.079E+12 7.079E+12 5.169E+00 7.873E+04 1.387E+06 5.895E+06 7.361E+06 7.361E+06 2.994E+07 33.0643 1.00000
  7.943E+12 7.943E+12 5.191E+00 8.834E+04 1.556E+06 6.764E+06 8.408E+06 8.408E+06 3.005E+07 33.2945 1.00000
  8.913E+12 8.913E+12 5.214E+00 9.912E+04 1.745E+06 7.762E+06 9.606E+06 9.606E+06 3.016E+07 33.5248 1.00000
  1.000E+13 1.000E+13 5.237E+00 1.112E+05 1.958E+06 8.907E+06 1.098E+07 1.098E+07 3.026E+07 33.7551 1.00000
  1.122E+13 1.122E+13 5.259E+00 1.248E+05 2.197E+06 1.022E+07 1.254E+07 1.254E+07 3.037E+07 33.9853 1.00000
  1.259E+13 1.259E+13 5.282E+00 1.400E+05 2.465E+06 1.173E+07 1.434E+07 1.434E+07 3.047E+07 34.2156 1.00000
  1.413E+13 1.413E+13 5.305E+00 1.571E+05 2.766E+06 1.346E+07 1.639E+07 1.639E+07 3.057E+07 34.4458 1.00000
  1.585E+13 1.585E+13 5.328E+00 1.763E+05 3.103E+06 1.545E+07 1.873E+07 1.873E+07 3.067E+07 34.6761 1.00000
  1.778E+13 1.778E+13 5.352E+00 1.978E+05 3.481E+06 1.774E+07 2.141E+07 2.141E+07 3.076E+07 34.9063 1.00000
  1.995E+13 1.995E+13 5.375E+00 2.219E+05 3.906E+06 2.036E+07 2.449E+07 2.449E+07 3.086E+07 35.1366 1.00000
  2.239E+13 2.239E+13 5.399E+00 2.490E+05 4.382E+06 2.337E+07 2.800E+07 2.800E+07 3.095E+07 35.3669 1.00000
  2.512E+13 2.512E+13 5.422E+00 2.794E+05 4.917E+06 2.683E+07 3.202E+07 3.202E+07 3.104E+07 35.5971 1.00000
  2.818E+13 2.818E+13 5.446E+00 3.134E+05 5.517E+06 3.080E+07 3.663E+07 3.663E+07 3.113E+07 35.8274 1.00000
  3.162E+13 3.162E+13 5.470E+00 3.517E+05 6.189E+06 3.536E+07 4.190E+07 4.190E+07 3.122E+07 36.0576 1.00000
  3.548E+13 3.548E+13 5.494E+00 3.946E+05 6.944E+06 4.059E+07 4.793E+07 4.793E+07 3.131E+07 36.2879 1.00000
  3.981E+13 3.981E+13 5.518E+00 4.428E+05 7.791E+06 4.661E+07 5.484E+07 5.484E+07 3.139E+07 36.5182 1.00000
  4.467E+13 4.467E+13 5.543E+00 4.968E+05 8.741E+06 5.352E+07 6.276E+07 6.276E+07 3.148E+07 36.7484 1.00000
  5.012E+13 5.012E+13 5.567E+00 5.574E+05 9.807E+06 6.146E+07 7.182E+07 7.182E+07 3.156E+07 36.9787 1.00000
  5.623E+13 5.623E+13 5.592E+00 6.254E+05 1.100E+07 7.057E+07 8.220E+07 8.220E+07 3.164E+07 37.2089 1.00000
  6.310E+13 6.310E+13 5.616E+00 7.017E+05 1.235E+07 8.104E+07 9.409E+07 9.409E+07 3.171E+07 37.4392 1.00000
  7.079E+13 7.079E+13 5.641E+00 7.873E+05 1.385E+07 9.308E+07 1.077E+08 1.077E+08 3.179E+07 37.6694 1.00000
  7.943E+13 7.943E+13 5.666E+00 8.834E+05 1.554E+07 1.069E+08 1.233E+08 1.233E+08 3.187E+07 37.8997 1.00000
  8.913E+13 8.913E+13 5.691E+00 9.912E+05 1.743E+07 1.228E+08 1.412E+08 1.412E+08 3.194E+07 38.1300 1.00000
