 Incident particle is a Tau with M = 1776.82000 MeV
 Index = 0: Chlorobenzene
      Absorber with <Z/A> = 0.51526
 Sternheimer coef:  a     k=m_s   x_0    x_1    I[eV]   Cbar  delta0
                 0.0986  3.3797  0.1714  2.9272   89.1  3.8201 0.00

 *** Table generated with PUMAS v1.00 ***

      T         p     Ionization  brems     pair     photonuc  Radloss    dE/dx   CSDA Range  delta   beta
    [MeV]    [MeV/c]  -----------------------[MeV cm^2/g]------------------------  [g/cm^2]
  1.000E+05 1.018E+05 2.261E+00 1.741E-04 2.749E-03 8.295E-03 1.122E-02 2.273E+00 2.200E+04  4.4428 0.99985
  1.122E+05 1.140E+05 2.282E+00 2.012E-04 3.312E-03 9.364E-03 1.288E-02 2.295E+00 2.734E+04  4.6467 0.99988
  1.259E+05 1.277E+05 2.302E+00 2.324E-04 3.977E-03 1.052E-02 1.473E-02 2.317E+00 3.328E+04  4.8532 0.99990
  1.413E+05 1.430E+05 2.322E+00 2.683E-04 4.759E-03 1.181E-02 1.684E-02 2.339E+00 3.988E+04  5.0621 0.99992
  1.585E+05 1.603E+05 2.342E+00 3.097E-04 5.679E-03 1.326E-02 1.925E-02 2.361E+00 4.722E+04  5.2734 0.99994
  1.778E+05 1.796E+05 2.362E+00 3.572E-04 6.757E-03 1.488E-02 2.200E-02 2.384E+00 5.537E+04  5.4868 0.99995
  1.995E+05 2.013E+05 2.381E+00 4.119E-04 8.019E-03 1.673E-02 2.516E-02 2.406E+00 6.443E+04  5.7021 0.99996
  2.239E+05 2.256E+05 2.401E+00 4.747E-04 9.493E-03 1.875E-02 2.871E-02 2.430E+00 7.450E+04  5.9193 0.99997
  2.512E+05 2.530E+05 2.420E+00 5.468E-04 1.121E-02 2.101E-02 3.277E-02 2.453E+00 8.569E+04  6.1382 0.99998
  2.818E+05 2.836E+05 2.440E+00 6.295E-04 1.321E-02 2.355E-02 3.740E-02 2.477E+00 9.812E+04  6.3586 0.99998
  3.162E+05 3.180E+05 2.459E+00 7.245E-04 1.553E-02 2.643E-02 4.269E-02 2.502E+00 1.119E+05  6.5804 0.99998
  3.548E+05 3.566E+05 2.478E+00 8.335E-04 1.823E-02 2.966E-02 4.873E-02 2.527E+00 1.273E+05  6.8035 0.99999
  3.981E+05 3.999E+05 2.497E+00 9.584E-04 2.135E-02 3.327E-02 5.558E-02 2.553E+00 1.443E+05  7.0278 0.99999
  4.467E+05 4.485E+05 2.516E+00 1.102E-03 2.496E-02 3.731E-02 6.338E-02 2.580E+00 1.633E+05  7.2531 0.99999
  5.012E+05 5.030E+05 2.535E+00 1.266E-03 2.913E-02 4.186E-02 7.226E-02 2.608E+00 1.843E+05  7.4793 0.99999
  5.623E+05 5.641E+05 2.554E+00 1.454E-03 3.394E-02 4.679E-02 8.218E-02 2.636E+00 2.076E+05  7.7063 1.00000
  6.310E+05 6.327E+05 2.573E+00 1.669E-03 3.948E-02 5.235E-02 9.349E-02 2.666E+00 2.335E+05  7.9339 1.00000
  7.079E+05 7.097E+05 2.591E+00 1.915E-03 4.585E-02 5.862E-02 1.064E-01 2.698E+00 2.622E+05  8.1622 1.00000
  7.943E+05 7.961E+05 2.610E+00 2.197E-03 5.317E-02 6.570E-02 1.211E-01 2.731E+00 2.940E+05  8.3910 1.00000
  8.913E+05 8.930E+05 2.628E+00 2.520E-03 6.157E-02 7.370E-02 1.378E-01 2.766E+00 3.293E+05  8.6201 1.00000
  1.000E+06 1.002E+06 2.647E+00 2.889E-03 7.120E-02 8.275E-02 1.568E-01 2.804E+00 3.683E+05  8.8496 1.00000
  1.122E+06 1.124E+06 2.665E+00 3.311E-03 8.222E-02 9.299E-02 1.785E-01 2.843E+00 4.115E+05  9.0793 1.00000
  1.259E+06 1.261E+06 2.683E+00 3.793E-03 9.483E-02 1.046E-01 2.032E-01 2.886E+00 4.593E+05  9.3091 1.00000
  1.413E+06 1.414E+06 2.701E+00 4.345E-03 1.092E-01 1.177E-01 2.313E-01 2.932E+00 5.121E+05  9.5390 1.00000
  1.585E+06 1.587E+06 2.719E+00 4.975E-03 1.257E-01 1.326E-01 2.633E-01 2.982E+00 5.704E+05  9.7690 1.00000
  1.778E+06 1.780E+06 2.737E+00 5.694E-03 1.445E-01 1.495E-01 2.997E-01 3.036E+00 6.347E+05  9.9990 1.00000
  1.995E+06 1.997E+06 2.754E+00 6.516E-03 1.658E-01 1.687E-01 3.411E-01 3.095E+00 7.055E+05 10.2291 1.00000
  2.239E+06 2.240E+06 2.772E+00 7.454E-03 1.901E-01 1.905E-01 3.881E-01 3.160E+00 7.833E+05 10.4592 1.00000
  2.512E+06 2.514E+06 2.789E+00 8.525E-03 2.178E-01 2.153E-01 4.416E-01 3.231E+00 8.688E+05 10.6892 1.00000
  2.818E+06 2.820E+06 2.806E+00 9.747E-03 2.492E-01 2.435E-01 5.025E-01 3.309E+00 9.626E+05 10.9193 1.00000
  3.162E+06 3.164E+06 2.823E+00 1.114E-02 2.849E-01 2.755E-01 5.715E-01 3.395E+00 1.065E+06 11.1495 1.00000
  3.548E+06 3.550E+06 2.840E+00 1.273E-02 3.254E-01 3.119E-01 6.500E-01 3.490E+00 1.177E+06 11.3796 1.00000
  3.981E+06 3.983E+06 2.857E+00 1.454E-02 3.713E-01 3.533E-01 7.392E-01 3.596E+00 1.300E+06 11.6098 1.00000
  4.467E+06 4.469E+06 2.873E+00 1.661E-02 4.233E-01 4.004E-01 8.404E-01 3.714E+00 1.432E+06 11.8399 1.00000
  5.012E+06 5.014E+06 2.890E+00 1.896E-02 4.822E-01 4.541E-01 9.553E-01 3.845E+00 1.577E+06 12.0701 1.00000
  5.623E+06 5.625E+06 2.906E+00 2.165E-02 5.488E-01 5.152E-01 1.086E+00 3.991E+00 1.733E+06 12.3003 1.00000
  6.310E+06 6.311E+06 2.922E+00 2.470E-02 6.242E-01 5.848E-01 1.234E+00 4.155E+00 1.901E+06 12.5305 1.00000
  7.079E+06 7.081E+06 2.938E+00 2.818E-02 7.093E-01 6.640E-01 1.402E+00 4.339E+00 2.083E+06 12.7607 1.00000
  7.943E+06 7.945E+06 2.953E+00 3.214E-02 8.055E-01 7.544E-01 1.592E+00 4.545E+00 2.277E+06 12.9909 1.00000
  8.913E+06 8.914E+06 2.969E+00 3.665E-02 9.140E-01 8.573E-01 1.808E+00 4.777E+00 2.485E+06 13.2211 1.00000
  1.000E+07 1.000E+07 2.984E+00 4.177E-02 1.037E+00 9.746E-01 2.053E+00 5.037E+00 2.707E+06 13.4513 1.00000
  1.122E+07 1.122E+07 3.000E+00 4.761E-02 1.175E+00 1.108E+00 2.331E+00 5.330E+00 2.943E+06 13.6815 1.00000
  1.259E+07 1.259E+07 3.015E+00 5.424E-02 1.331E+00 1.261E+00 2.646E+00 5.660E+00 3.192E+06 13.9117 1.00000
  1.413E+07 1.413E+07 3.030E+00 6.177E-02 1.506E+00 1.435E+00 3.003E+00 6.033E+00 3.455E+06 14.1420 1.00000
  1.585E+07 1.585E+07 3.045E+00 7.034E-02 1.704E+00 1.633E+00 3.407E+00 6.452E+00 3.731E+06 14.3722 1.00000
  1.778E+07 1.778E+07 3.060E+00 8.006E-02 1.927E+00 1.859E+00 3.866E+00 6.926E+00 4.021E+06 14.6024 1.00000
  1.995E+07 1.995E+07 3.074E+00 9.111E-02 2.178E+00 2.117E+00 4.386E+00 7.460E+00 4.323E+06 14.8327 1.00000
  2.239E+07 2.239E+07 3.089E+00 1.037E-01 2.460E+00 2.412E+00 4.975E+00 8.064E+00 4.637E+06 15.0629 1.00000
  2.512E+07 2.512E+07 3.103E+00 1.179E-01 2.778E+00 2.747E+00 5.643E+00 8.747E+00 4.963E+06 15.2931 1.00000
  2.818E+07 2.819E+07 3.118E+00 1.340E-01 3.135E+00 3.131E+00 6.400E+00 9.518E+00 5.299E+06 15.5234 1.00000
  3.162E+07 3.162E+07 3.132E+00 1.524E-01 3.537E+00 3.568E+00 7.258E+00 1.039E+01 5.645E+06 15.7536 1.00000
  3.548E+07 3.548E+07 3.147E+00 1.731E-01 3.990E+00 4.067E+00 8.230E+00 1.138E+01 6.000E+06 15.9839 1.00000
  3.981E+07 3.981E+07 3.161E+00 1.967E-01 4.498E+00 4.637E+00 9.331E+00 1.249E+01 6.364E+06 16.2141 1.00000
  4.467E+07 4.467E+07 3.175E+00 2.234E-01 5.069E+00 5.287E+00 1.058E+01 1.375E+01 6.735E+06 16.4444 1.00000
  5.012E+07 5.012E+07 3.190E+00 2.536E-01 5.711E+00 6.029E+00 1.199E+01 1.518E+01 7.112E+06 16.6746 1.00000
  5.623E+07 5.624E+07 3.204E+00 2.879E-01 6.433E+00 6.876E+00 1.360E+01 1.680E+01 7.496E+06 16.9049 1.00000
  6.310E+07 6.310E+07 3.218E+00 3.267E-01 7.244E+00 7.843E+00 1.541E+01 1.863E+01 7.884E+06 17.1351 1.00000
  7.079E+07 7.080E+07 3.233E+00 3.706E-01 8.155E+00 8.948E+00 1.747E+01 2.071E+01 8.277E+06 17.3654 1.00000
  7.943E+07 7.943E+07 3.247E+00 4.203E-01 9.178E+00 1.021E+01 1.981E+01 2.305E+01 8.673E+06 17.5956 1.00000
  8.913E+07 8.913E+07 3.261E+00 4.765E-01 1.033E+01 1.165E+01 2.245E+01 2.571E+01 9.071E+06 17.8259 1.00000
  1.000E+08 1.000E+08 3.276E+00 5.400E-01 1.162E+01 1.329E+01 2.545E+01 2.873E+01 9.472E+06 18.0561 1.00000
  1.122E+08 1.122E+08 3.290E+00 6.119E-01 1.307E+01 1.517E+01 2.885E+01 3.214E+01 9.874E+06 18.2864 1.00000
  1.259E+08 1.259E+08 3.305E+00 6.931E-01 1.469E+01 1.732E+01 3.270E+01 3.601E+01 1.028E+07 18.5166 1.00000
  1.413E+08 1.413E+08 3.319E+00 7.849E-01 1.652E+01 1.977E+01 3.707E+01 4.039E+01 1.068E+07 18.7469 1.00000
  1.585E+08 1.585E+08 3.334E+00 8.886E-01 1.857E+01 2.256E+01 4.202E+01 4.536E+01 1.108E+07 18.9772 1.00000
  1.778E+08 1.778E+08 3.348E+00 1.006E+00 2.087E+01 2.576E+01 4.764E+01 5.099E+01 1.149E+07 19.2074 1.00000
  1.995E+08 1.995E+08 3.363E+00 1.138E+00 2.346E+01 2.941E+01 5.401E+01 5.737E+01 1.189E+07 19.4377 1.00000
  2.239E+08 2.239E+08 3.377E+00 1.287E+00 2.636E+01 3.358E+01 6.123E+01 6.461E+01 1.229E+07 19.6679 1.00000
  2.512E+08 2.512E+08 3.392E+00 1.456E+00 2.962E+01 3.835E+01 6.942E+01 7.281E+01 1.269E+07 19.8982 1.00000
  2.818E+08 2.818E+08 3.407E+00 1.646E+00 3.327E+01 4.379E+01 7.871E+01 8.212E+01 1.309E+07 20.1284 1.00000
  3.162E+08 3.162E+08 3.422E+00 1.860E+00 3.738E+01 5.001E+01 8.925E+01 9.267E+01 1.348E+07 20.3587 1.00000
  3.548E+08 3.548E+08 3.437E+00 2.102E+00 4.198E+01 5.712E+01 1.012E+02 1.046E+02 1.387E+07 20.5890 1.00000
  3.981E+08 3.981E+08 3.452E+00 2.374E+00 4.715E+01 6.525E+01 1.148E+02 1.182E+02 1.426E+07 20.8192 1.00000
  4.467E+08 4.467E+08 3.467E+00 2.681E+00 5.295E+01 7.453E+01 1.302E+02 1.336E+02 1.465E+07 21.0495 1.00000
  5.012E+08 5.012E+08 3.482E+00 3.027E+00 5.946E+01 8.514E+01 1.476E+02 1.511E+02 1.503E+07 21.2797 1.00000
  5.623E+08 5.623E+08 3.497E+00 3.417E+00 6.676E+01 9.727E+01 1.674E+02 1.709E+02 1.542E+07 21.5100 1.00000
  6.310E+08 6.310E+08 3.513E+00 3.856E+00 7.496E+01 1.111E+02 1.899E+02 1.935E+02 1.579E+07 21.7402 1.00000
  7.079E+08 7.079E+08 3.528E+00 4.350E+00 8.416E+01 1.270E+02 2.155E+02 2.190E+02 1.617E+07 21.9705 1.00000
  7.943E+08 7.943E+08 3.543E+00 4.907E+00 9.448E+01 1.451E+02 2.445E+02 2.480E+02 1.654E+07 22.2008 1.00000
  8.913E+08 8.913E+08 3.559E+00 5.534E+00 1.061E+02 1.658E+02 2.774E+02 2.809E+02 1.691E+07 22.4310 1.00000
  1.000E+09 1.000E+09 3.575E+00 6.239E+00 1.191E+02 1.894E+02 3.147E+02 3.183E+02 1.727E+07 22.6613 1.00000
  1.122E+09 1.122E+09 3.590E+00 7.033E+00 1.336E+02 2.165E+02 3.572E+02 3.608E+02 1.763E+07 22.8915 1.00000
  1.259E+09 1.259E+09 3.606E+00 7.926E+00 1.500E+02 2.474E+02 4.054E+02 4.090E+02 1.799E+07 23.1218 1.00000
  1.413E+09 1.413E+09 3.622E+00 8.930E+00 1.684E+02 2.828E+02 4.601E+02 4.637E+02 1.834E+07 23.3520 1.00000
  1.585E+09 1.585E+09 3.638E+00 1.006E+01 1.890E+02 3.233E+02 5.223E+02 5.259E+02 1.869E+07 23.5823 1.00000
  1.778E+09 1.778E+09 3.654E+00 1.133E+01 2.121E+02 3.695E+02 5.929E+02 5.966E+02 1.904E+07 23.8126 1.00000
  1.995E+09 1.995E+09 3.670E+00 1.276E+01 2.380E+02 4.224E+02 6.732E+02 6.769E+02 1.938E+07 24.0428 1.00000
  2.239E+09 2.239E+09 3.686E+00 1.436E+01 2.672E+02 4.829E+02 7.644E+02 7.681E+02 1.972E+07 24.2731 1.00000
  2.512E+09 2.512E+09 3.703E+00 1.617E+01 2.998E+02 5.521E+02 8.681E+02 8.718E+02 2.005E+07 24.5033 1.00000
  2.818E+09 2.818E+09 3.719E+00 1.820E+01 3.365E+02 6.312E+02 9.859E+02 9.896E+02 2.038E+07 24.7336 1.00000
  3.162E+09 3.162E+09 3.736E+00 2.048E+01 3.776E+02 7.217E+02 1.120E+03 1.124E+03 2.071E+07 24.9639 1.00000
  3.548E+09 3.548E+09 3.752E+00 2.304E+01 4.237E+02 8.252E+02 1.272E+03 1.276E+03 2.103E+07 25.1941 1.00000
  3.981E+09 3.981E+09 3.769E+00 2.592E+01 4.755E+02 9.437E+02 1.445E+03 1.449E+03 2.135E+07 25.4244 1.00000
  4.467E+09 4.467E+09 3.786E+00 2.915E+01 5.336E+02 1.079E+03 1.642E+03 1.646E+03 2.167E+07 25.6546 1.00000
  5.012E+09 5.012E+09 3.802E+00 3.279E+01 5.988E+02 1.234E+03 1.866E+03 1.869E+03 2.198E+07 25.8849 1.00000
  5.623E+09 5.623E+09 3.819E+00 3.687E+01 6.719E+02 1.411E+03 2.120E+03 2.124E+03 2.229E+07 26.1151 1.00000
  6.310E+09 6.310E+09 3.836E+00 4.145E+01 7.539E+02 1.614E+03 2.410E+03 2.414E+03 2.259E+07 26.3454 1.00000
  7.079E+09 7.079E+09 3.854E+00 4.660E+01 8.460E+02 1.847E+03 2.739E+03 2.743E+03 2.289E+07 26.5757 1.00000
  7.943E+09 7.943E+09 3.871E+00 5.238E+01 9.493E+02 2.112E+03 3.114E+03 3.118E+03 2.319E+07 26.8059 1.00000
  8.913E+09 8.913E+09 3.888E+00 5.887E+01 1.065E+03 2.416E+03 3.540E+03 3.544E+03 2.348E+07 27.0362 1.00000
  1.000E+10 1.000E+10 3.906E+00 6.616E+01 1.195E+03 2.764E+03 4.025E+03 4.029E+03 2.377E+07 27.2664 1.00000
  1.122E+10 1.122E+10 3.923E+00 7.434E+01 1.341E+03 3.162E+03 4.578E+03 4.582E+03 2.405E+07 27.4967 1.00000
  1.259E+10 1.259E+10 3.941E+00 8.353E+01 1.505E+03 3.618E+03 5.206E+03 5.210E+03 2.433E+07 27.7270 1.00000
  1.413E+10 1.413E+10 3.959E+00 9.384E+01 1.689E+03 4.140E+03 5.922E+03 5.926E+03 2.461E+07 27.9572 1.00000
  1.585E+10 1.585E+10 3.976E+00 1.054E+02 1.895E+03 4.737E+03 6.737E+03 6.741E+03 2.488E+07 28.1875 1.00000
  1.778E+10 1.778E+10 3.994E+00 1.184E+02 2.126E+03 5.420E+03 7.664E+03 7.668E+03 2.515E+07 28.4177 1.00000
  1.995E+10 1.995E+10 4.012E+00 1.330E+02 2.385E+03 6.202E+03 8.721E+03 8.725E+03 2.542E+07 28.6480 1.00000
  2.239E+10 2.239E+10 4.031E+00 1.494E+02 2.676E+03 7.098E+03 9.924E+03 9.928E+03 2.568E+07 28.8783 1.00000
  2.512E+10 2.512E+10 4.049E+00 1.678E+02 3.003E+03 8.123E+03 1.129E+04 1.130E+04 2.594E+07 29.1085 1.00000
  2.818E+10 2.818E+10 4.067E+00 1.884E+02 3.369E+03 9.297E+03 1.286E+04 1.286E+04 2.619E+07 29.3388 1.00000
  3.162E+10 3.162E+10 4.086E+00 2.116E+02 3.781E+03 1.064E+04 1.463E+04 1.464E+04 2.645E+07 29.5690 1.00000
  3.548E+10 3.548E+10 4.104E+00 2.375E+02 4.242E+03 1.218E+04 1.666E+04 1.666E+04 2.669E+07 29.7993 1.00000
  3.981E+10 3.981E+10 4.123E+00 2.667E+02 4.760E+03 1.394E+04 1.897E+04 1.897E+04 2.694E+07 30.0295 1.00000
  4.467E+10 4.467E+10 4.142E+00 2.994E+02 5.340E+03 1.596E+04 2.160E+04 2.161E+04 2.718E+07 30.2598 1.00000
  5.012E+10 5.012E+10 4.160E+00 3.362E+02 5.992E+03 1.827E+04 2.460E+04 2.461E+04 2.741E+07 30.4901 1.00000
  5.623E+10 5.623E+10 4.179E+00 3.774E+02 6.723E+03 2.092E+04 2.802E+04 2.803E+04 2.765E+07 30.7203 1.00000
  6.310E+10 6.310E+10 4.199E+00 4.237E+02 7.543E+03 2.395E+04 3.192E+04 3.193E+04 2.788E+07 30.9506 1.00000
  7.079E+10 7.079E+10 4.218E+00 4.756E+02 8.463E+03 2.743E+04 3.637E+04 3.637E+04 2.810E+07 31.1808 1.00000
  7.943E+10 7.943E+10 4.237E+00 5.338E+02 9.496E+03 3.141E+04 4.144E+04 4.144E+04 2.833E+07 31.4111 1.00000
  8.913E+10 8.913E+10 4.256E+00 5.992E+02 1.065E+04 3.596E+04 4.722E+04 4.722E+04 2.855E+07 31.6414 1.00000
  1.000E+11 1.000E+11 4.276E+00 6.726E+02 1.195E+04 4.119E+04 5.381E+04 5.382E+04 2.876E+07 31.8716 1.00000
  1.122E+11 1.122E+11 4.296E+00 7.549E+02 1.341E+04 4.717E+04 6.134E+04 6.134E+04 2.898E+07 32.1019 1.00000
  1.259E+11 1.259E+11 4.315E+00 8.473E+02 1.505E+04 5.402E+04 6.992E+04 6.992E+04 2.918E+07 32.3321 1.00000
  1.413E+11 1.413E+11 4.335E+00 9.509E+02 1.688E+04 6.187E+04 7.971E+04 7.971E+04 2.939E+07 32.5624 1.00000
  1.585E+11 1.585E+11 4.355E+00 1.067E+03 1.894E+04 7.087E+04 9.088E+04 9.089E+04 2.959E+07 32.7926 1.00000
  1.778E+11 1.778E+11 4.375E+00 1.198E+03 2.126E+04 8.118E+04 1.036E+05 1.036E+05 2.979E+07 33.0229 1.00000
  1.995E+11 1.995E+11 4.395E+00 1.344E+03 2.385E+04 9.300E+04 1.182E+05 1.182E+05 2.999E+07 33.2532 1.00000
  2.239E+11 2.239E+11 4.416E+00 1.508E+03 2.676E+04 1.065E+05 1.348E+05 1.348E+05 3.018E+07 33.4834 1.00000
  2.512E+11 2.512E+11 4.436E+00 1.693E+03 3.002E+04 1.221E+05 1.538E+05 1.538E+05 3.037E+07 33.7137 1.00000
  2.818E+11 2.818E+11 4.457E+00 1.900E+03 3.368E+04 1.398E+05 1.754E+05 1.754E+05 3.056E+07 33.9439 1.00000
  3.162E+11 3.162E+11 4.477E+00 2.132E+03 3.779E+04 1.602E+05 2.002E+05 2.002E+05 3.074E+07 34.1742 1.00000
  3.548E+11 3.548E+11 4.498E+00 2.392E+03 4.240E+04 1.836E+05 2.284E+05 2.284E+05 3.093E+07 34.4045 1.00000
  3.981E+11 3.981E+11 4.519E+00 2.685E+03 4.758E+04 2.104E+05 2.606E+05 2.607E+05 3.110E+07 34.6347 1.00000
  4.467E+11 4.467E+11 4.540E+00 3.012E+03 5.338E+04 2.411E+05 2.975E+05 2.975E+05 3.128E+07 34.8650 1.00000
  5.012E+11 5.012E+11 4.561E+00 3.380E+03 5.989E+04 2.763E+05 3.396E+05 3.396E+05 3.145E+07 35.0952 1.00000
  5.623E+11 5.623E+11 4.582E+00 3.793E+03 6.720E+04 3.167E+05 3.876E+05 3.877E+05 3.162E+07 35.3255 1.00000
  6.310E+11 6.310E+11 4.604E+00 4.256E+03 7.539E+04 3.629E+05 4.426E+05 4.426E+05 3.178E+07 35.5557 1.00000
  7.079E+11 7.079E+11 4.625E+00 4.776E+03 8.459E+04 4.160E+05 5.054E+05 5.054E+05 3.195E+07 35.7860 1.00000
  7.943E+11 7.943E+11 4.647E+00 5.359E+03 9.491E+04 4.768E+05 5.771E+05 5.771E+05 3.211E+07 36.0163 1.00000
  8.913E+11 8.913E+11 4.668E+00 6.014E+03 1.065E+05 5.466E+05 6.591E+05 6.591E+05 3.227E+07 36.2465 1.00000
  1.000E+12 1.000E+12 4.690E+00 6.748E+03 1.195E+05 6.266E+05 7.528E+05 7.528E+05 3.242E+07 36.4768 1.00000
  1.122E+12 1.122E+12 4.712E+00 7.572E+03 1.340E+05 7.184E+05 8.600E+05 8.600E+05 3.257E+07 36.7070 1.00000
  1.259E+12 1.259E+12 4.734E+00 8.496E+03 1.504E+05 8.236E+05 9.825E+05 9.825E+05 3.272E+07 36.9373 1.00000
  1.413E+12 1.413E+12 4.757E+00 9.533E+03 1.687E+05 9.443E+05 1.123E+06 1.123E+06 3.287E+07 37.1676 1.00000
  1.585E+12 1.585E+12 4.779E+00 1.070E+04 1.893E+05 1.083E+06 1.283E+06 1.283E+06 3.301E+07 37.3978 1.00000
  1.778E+12 1.778E+12 4.801E+00 1.200E+04 2.124E+05 1.241E+06 1.466E+06 1.466E+06 3.315E+07 37.6281 1.00000
  1.995E+12 1.995E+12 4.824E+00 1.347E+04 2.383E+05 1.424E+06 1.675E+06 1.675E+06 3.329E+07 37.8583 1.00000
  2.239E+12 2.239E+12 4.847E+00 1.511E+04 2.674E+05 1.633E+06 1.915E+06 1.915E+06 3.343E+07 38.0886 1.00000
  2.512E+12 2.512E+12 4.869E+00 1.696E+04 3.000E+05 1.872E+06 2.189E+06 2.189E+06 3.356E+07 38.3188 1.00000
  2.818E+12 2.818E+12 4.892E+00 1.902E+04 3.366E+05 2.147E+06 2.503E+06 2.503E+06 3.369E+07 38.5491 1.00000
  3.162E+12 3.162E+12 4.915E+00 2.135E+04 3.777E+05 2.463E+06 2.862E+06 2.862E+06 3.382E+07 38.7794 1.00000
  3.548E+12 3.548E+12 4.939E+00 2.395E+04 4.237E+05 2.825E+06 3.273E+06 3.273E+06 3.395E+07 39.0096 1.00000
  3.981E+12 3.981E+12 4.962E+00 2.687E+04 4.754E+05 3.240E+06 3.743E+06 3.743E+06 3.407E+07 39.2399 1.00000
  4.467E+12 4.467E+12 4.985E+00 3.015E+04 5.334E+05 3.717E+06 4.281E+06 4.281E+06 3.419E+07 39.4701 1.00000
  5.012E+12 5.012E+12 5.009E+00 3.383E+04 5.984E+05 4.264E+06 4.897E+06 4.897E+06 3.431E+07 39.7004 1.00000
  5.623E+12 5.623E+12 5.033E+00 3.796E+04 6.714E+05 4.892E+06 5.602E+06 5.602E+06 3.443E+07 39.9307 1.00000
  6.310E+12 6.310E+12 5.057E+00 4.260E+04 7.533E+05 5.613E+06 6.409E+06 6.409E+06 3.455E+07 40.1609 1.00000
  7.079E+12 7.079E+12 5.080E+00 4.779E+04 8.452E+05 6.440E+06 7.333E+06 7.333E+06 3.466E+07 40.3912 1.00000
  7.943E+12 7.943E+12 5.105E+00 5.363E+04 9.483E+05 7.389E+06 8.391E+06 8.391E+06 3.477E+07 40.6214 1.00000
  8.913E+12 8.913E+12 5.129E+00 6.017E+04 1.064E+06 8.479E+06 9.603E+06 9.603E+06 3.488E+07 40.8517 1.00000
  1.000E+13 1.000E+13 5.153E+00 6.751E+04 1.194E+06 9.729E+06 1.099E+07 1.099E+07 3.498E+07 41.0820 1.00000
  1.122E+13 1.122E+13 5.178E+00 7.575E+04 1.339E+06 1.117E+07 1.258E+07 1.258E+07 3.509E+07 41.3122 1.00000
  1.259E+13 1.259E+13 5.202E+00 8.499E+04 1.503E+06 1.281E+07 1.440E+07 1.440E+07 3.519E+07 41.5425 1.00000
  1.413E+13 1.413E+13 5.227E+00 9.536E+04 1.686E+06 1.471E+07 1.649E+07 1.649E+07 3.529E+07 41.7727 1.00000
  1.585E+13 1.585E+13 5.252E+00 1.070E+05 1.892E+06 1.688E+07 1.888E+07 1.888E+07 3.539E+07 42.0030 1.00000
  1.778E+13 1.778E+13 5.277E+00 1.201E+05 2.122E+06 1.937E+07 2.162E+07 2.162E+07 3.548E+07 42.2332 1.00000
  1.995E+13 1.995E+13 5.302E+00 1.347E+05 2.381E+06 2.224E+07 2.475E+07 2.475E+07 3.558E+07 42.4635 1.00000
  2.239E+13 2.239E+13 5.328E+00 1.511E+05 2.671E+06 2.553E+07 2.835E+07 2.835E+07 3.567E+07 42.6938 1.00000
  2.512E+13 2.512E+13 5.353E+00 1.696E+05 2.997E+06 2.930E+07 3.247E+07 3.247E+07 3.576E+07 42.9240 1.00000
  2.818E+13 2.818E+13 5.379E+00 1.903E+05 3.363E+06 3.364E+07 3.719E+07 3.719E+07 3.585E+07 43.1543 1.00000
  3.162E+13 3.162E+13 5.404E+00 2.135E+05 3.773E+06 3.862E+07 4.261E+07 4.261E+07 3.593E+07 43.3845 1.00000
  3.548E+13 3.548E+13 5.430E+00 2.396E+05 4.233E+06 4.434E+07 4.882E+07 4.882E+07 3.602E+07 43.6148 1.00000
  3.981E+13 3.981E+13 5.456E+00 2.688E+05 4.749E+06 5.091E+07 5.593E+07 5.593E+07 3.610E+07 43.8451 1.00000
  4.467E+13 4.467E+13 5.482E+00 3.016E+05 5.328E+06 5.846E+07 6.409E+07 6.409E+07 3.618E+07 44.0753 1.00000
  5.012E+13 5.012E+13 5.509E+00 3.384E+05 5.978E+06 6.713E+07 7.345E+07 7.345E+07 3.626E+07 44.3056 1.00000
  5.623E+13 5.623E+13 5.535E+00 3.797E+05 6.707E+06 7.709E+07 8.418E+07 8.418E+07 3.634E+07 44.5358 1.00000
  6.310E+13 6.310E+13 5.561E+00 4.260E+05 7.525E+06 8.853E+07 9.648E+07 9.648E+07 3.642E+07 44.7661 1.00000
  7.079E+13 7.079E+13 5.588E+00 4.780E+05 8.443E+06 1.017E+08 1.106E+08 1.106E+08 3.649E+07 44.9963 1.00000
  7.943E+13 7.943E+13 5.615E+00 5.363E+05 9.473E+06 1.168E+08 1.268E+08 1.268E+08 3.656E+07 45.2266 1.00000
  8.913E+13 8.913E+13 5.642E+00 6.017E+05 1.063E+07 1.341E+08 1.453E+08 1.453E+08 3.664E+07 45.4569 1.00000
