 Incident particle is a Tau with M = 1776.82000 MeV
 Index = 0: Chromium
      Absorber with <Z/A> = 0.46157
 Sternheimer coef:  a     k=m_s   x_0    x_1    I[eV]   Cbar  delta0
                 0.1542  2.9896  0.0340  3.0451  257.0  4.1781 0.14

 *** Table generated with PUMAS v1.00 ***

      T         p     Ionization  brems     pair     photonuc  Radloss    dE/dx   CSDA Range  delta   beta
    [MeV]    [MeV/c]  -----------------------[MeV cm^2/g]------------------------  [g/cm^2]
  1.000E+05 1.018E+05 1.890E+00 3.978E-04 6.506E-03 7.923E-03 1.483E-02 1.904E+00 2.625E+04  4.2455 0.99985
  1.122E+05 1.140E+05 1.909E+00 4.603E-04 7.807E-03 8.919E-03 1.719E-02 1.926E+00 3.263E+04  4.4359 0.99988
  1.259E+05 1.277E+05 1.928E+00 5.324E-04 9.338E-03 9.987E-03 1.986E-02 1.948E+00 3.970E+04  4.6295 0.99990
  1.413E+05 1.430E+05 1.946E+00 6.154E-04 1.114E-02 1.119E-02 2.294E-02 1.969E+00 4.754E+04  4.8260 0.99992
  1.585E+05 1.603E+05 1.965E+00 7.110E-04 1.325E-02 1.252E-02 2.648E-02 1.992E+00 5.624E+04  5.0253 0.99994
  1.778E+05 1.796E+05 1.984E+00 8.211E-04 1.572E-02 1.401E-02 3.055E-02 2.014E+00 6.590E+04  5.2273 0.99995
  1.995E+05 2.013E+05 2.002E+00 9.476E-04 1.861E-02 1.571E-02 3.526E-02 2.037E+00 7.661E+04  5.4318 0.99996
  2.239E+05 2.256E+05 2.020E+00 1.093E-03 2.198E-02 1.755E-02 4.062E-02 2.061E+00 8.849E+04  5.6388 0.99997
  2.512E+05 2.530E+05 2.039E+00 1.260E-03 2.589E-02 1.961E-02 4.677E-02 2.085E+00 1.017E+05  5.8482 0.99998
  2.818E+05 2.836E+05 2.057E+00 1.452E-03 3.045E-02 2.193E-02 5.383E-02 2.110E+00 1.163E+05  6.0597 0.99998
  3.162E+05 3.180E+05 2.074E+00 1.673E-03 3.573E-02 2.455E-02 6.195E-02 2.136E+00 1.325E+05  6.2732 0.99998
  3.548E+05 3.566E+05 2.092E+00 1.926E-03 4.185E-02 2.747E-02 7.124E-02 2.163E+00 1.504E+05  6.4887 0.99999
  3.981E+05 3.999E+05 2.110E+00 2.216E-03 4.892E-02 3.073E-02 8.186E-02 2.192E+00 1.703E+05  6.7061 0.99999
  4.467E+05 4.485E+05 2.127E+00 2.548E-03 5.708E-02 3.437E-02 9.400E-02 2.221E+00 1.923E+05  6.9251 0.99999
  5.012E+05 5.030E+05 2.145E+00 2.929E-03 6.649E-02 3.847E-02 1.079E-01 2.253E+00 2.167E+05  7.1456 0.99999
  5.623E+05 5.641E+05 2.162E+00 3.366E-03 7.733E-02 4.289E-02 1.236E-01 2.285E+00 2.436E+05  7.3677 1.00000
  6.310E+05 6.327E+05 2.179E+00 3.865E-03 8.979E-02 4.787E-02 1.415E-01 2.320E+00 2.734E+05  7.5910 1.00000
  7.079E+05 7.097E+05 2.196E+00 4.438E-03 1.041E-01 5.348E-02 1.620E-01 2.358E+00 3.064E+05  7.8156 1.00000
  7.943E+05 7.961E+05 2.213E+00 5.092E-03 1.205E-01 5.980E-02 1.854E-01 2.398E+00 3.427E+05  8.0412 1.00000
  8.913E+05 8.930E+05 2.229E+00 5.841E-03 1.393E-01 6.693E-02 2.121E-01 2.441E+00 3.827E+05  8.2678 1.00000
  1.000E+06 1.002E+06 2.246E+00 6.697E-03 1.608E-01 7.499E-02 2.425E-01 2.488E+00 4.269E+05  8.4953 1.00000
  1.122E+06 1.124E+06 2.262E+00 7.676E-03 1.854E-01 8.411E-02 2.772E-01 2.540E+00 4.754E+05  8.7235 1.00000
  1.259E+06 1.261E+06 2.279E+00 8.794E-03 2.135E-01 9.442E-02 3.167E-01 2.595E+00 5.287E+05  8.9522 1.00000
  1.413E+06 1.414E+06 2.295E+00 1.007E-02 2.455E-01 1.061E-01 3.617E-01 2.656E+00 5.872E+05  9.1815 1.00000
  1.585E+06 1.587E+06 2.311E+00 1.153E-02 2.820E-01 1.193E-01 4.128E-01 2.724E+00 6.513E+05  9.4112 1.00000
  1.778E+06 1.780E+06 2.327E+00 1.319E-02 3.235E-01 1.343E-01 4.710E-01 2.798E+00 7.214E+05  9.6411 1.00000
  1.995E+06 1.997E+06 2.342E+00 1.510E-02 3.708E-01 1.513E-01 5.372E-01 2.880E+00 7.978E+05  9.8711 1.00000
  2.239E+06 2.240E+06 2.358E+00 1.726E-02 4.244E-01 1.706E-01 6.123E-01 2.970E+00 8.811E+05 10.1012 1.00000
  2.512E+06 2.514E+06 2.374E+00 1.973E-02 4.854E-01 1.925E-01 6.976E-01 3.071E+00 9.715E+05 10.3312 1.00000
  2.818E+06 2.820E+06 2.389E+00 2.255E-02 5.545E-01 2.174E-01 7.945E-01 3.183E+00 1.070E+06 10.5613 1.00000
  3.162E+06 3.164E+06 2.404E+00 2.577E-02 6.329E-01 2.457E-01 9.044E-01 3.309E+00 1.176E+06 10.7915 1.00000
  3.548E+06 3.550E+06 2.419E+00 2.943E-02 7.216E-01 2.779E-01 1.029E+00 3.448E+00 1.290E+06 11.0216 1.00000
  3.981E+06 3.983E+06 2.434E+00 3.360E-02 8.221E-01 3.145E-01 1.170E+00 3.605E+00 1.413E+06 11.2518 1.00000
  4.467E+06 4.469E+06 2.449E+00 3.835E-02 9.358E-01 3.562E-01 1.330E+00 3.779E+00 1.544E+06 11.4819 1.00000
  5.012E+06 5.014E+06 2.464E+00 4.375E-02 1.064E+00 4.035E-01 1.512E+00 3.975E+00 1.685E+06 11.7121 1.00000
  5.623E+06 5.625E+06 2.478E+00 4.990E-02 1.210E+00 4.575E-01 1.717E+00 4.195E+00 1.835E+06 11.9423 1.00000
  6.310E+06 6.311E+06 2.493E+00 5.690E-02 1.374E+00 5.189E-01 1.949E+00 4.442E+00 1.994E+06 12.1725 1.00000
  7.079E+06 7.081E+06 2.507E+00 6.486E-02 1.559E+00 5.889E-01 2.212E+00 4.719E+00 2.162E+06 12.4027 1.00000
  7.943E+06 7.945E+06 2.521E+00 7.392E-02 1.767E+00 6.686E-01 2.510E+00 5.031E+00 2.339E+06 12.6329 1.00000
  8.913E+06 8.914E+06 2.535E+00 8.421E-02 2.003E+00 7.594E-01 2.846E+00 5.381E+00 2.526E+06 12.8631 1.00000
  1.000E+07 1.000E+07 2.549E+00 9.590E-02 2.268E+00 8.628E-01 3.227E+00 5.776E+00 2.721E+06 13.0933 1.00000
  1.122E+07 1.122E+07 2.562E+00 1.092E-01 2.567E+00 9.808E-01 3.657E+00 6.220E+00 2.925E+06 13.3235 1.00000
  1.259E+07 1.259E+07 2.576E+00 1.243E-01 2.904E+00 1.115E+00 4.144E+00 6.720E+00 3.137E+06 13.5537 1.00000
  1.413E+07 1.413E+07 2.589E+00 1.414E-01 3.284E+00 1.269E+00 4.694E+00 7.283E+00 3.356E+06 13.7840 1.00000
  1.585E+07 1.585E+07 2.603E+00 1.608E-01 3.711E+00 1.443E+00 5.315E+00 7.918E+00 3.584E+06 14.0142 1.00000
  1.778E+07 1.778E+07 2.616E+00 1.829E-01 4.191E+00 1.643E+00 6.017E+00 8.633E+00 3.818E+06 14.2444 1.00000
  1.995E+07 1.995E+07 2.629E+00 2.079E-01 4.732E+00 1.870E+00 6.810E+00 9.439E+00 4.058E+06 14.4747 1.00000
  2.239E+07 2.239E+07 2.642E+00 2.363E-01 5.340E+00 2.130E+00 7.706E+00 1.035E+01 4.305E+06 14.7049 1.00000
  2.512E+07 2.512E+07 2.655E+00 2.685E-01 6.024E+00 2.426E+00 8.718E+00 1.137E+01 4.557E+06 14.9351 1.00000
  2.818E+07 2.819E+07 2.668E+00 3.049E-01 6.793E+00 2.764E+00 9.861E+00 1.253E+01 4.814E+06 15.1654 1.00000
  3.162E+07 3.162E+07 2.681E+00 3.462E-01 7.657E+00 3.149E+00 1.115E+01 1.383E+01 5.075E+06 15.3956 1.00000
  3.548E+07 3.548E+07 2.694E+00 3.930E-01 8.629E+00 3.589E+00 1.261E+01 1.530E+01 5.341E+06 15.6259 1.00000
  3.981E+07 3.981E+07 2.707E+00 4.460E-01 9.720E+00 4.091E+00 1.426E+01 1.696E+01 5.610E+06 15.8561 1.00000
  4.467E+07 4.467E+07 2.720E+00 5.060E-01 1.095E+01 4.664E+00 1.612E+01 1.884E+01 5.882E+06 16.0864 1.00000
  5.012E+07 5.012E+07 2.733E+00 5.738E-01 1.232E+01 5.318E+00 1.822E+01 2.095E+01 6.157E+06 16.3166 1.00000
  5.623E+07 5.624E+07 2.745E+00 6.506E-01 1.387E+01 6.064E+00 2.059E+01 2.333E+01 6.434E+06 16.5469 1.00000
  6.310E+07 6.310E+07 2.758E+00 7.374E-01 1.561E+01 6.917E+00 2.327E+01 2.602E+01 6.713E+06 16.7771 1.00000
  7.079E+07 7.080E+07 2.771E+00 8.355E-01 1.756E+01 7.890E+00 2.629E+01 2.906E+01 6.993E+06 17.0074 1.00000
  7.943E+07 7.943E+07 2.784E+00 9.465E-01 1.976E+01 9.001E+00 2.970E+01 3.249E+01 7.275E+06 17.2376 1.00000
  8.913E+07 8.913E+07 2.797E+00 1.072E+00 2.222E+01 1.027E+01 3.356E+01 3.636E+01 7.557E+06 17.4679 1.00000
  1.000E+08 1.000E+08 2.810E+00 1.213E+00 2.498E+01 1.172E+01 3.792E+01 4.073E+01 7.840E+06 17.6981 1.00000
  1.122E+08 1.122E+08 2.823E+00 1.373E+00 2.809E+01 1.337E+01 4.283E+01 4.566E+01 8.124E+06 17.9284 1.00000
  1.259E+08 1.259E+08 2.835E+00 1.554E+00 3.157E+01 1.526E+01 4.839E+01 5.122E+01 8.407E+06 18.1586 1.00000
  1.413E+08 1.413E+08 2.848E+00 1.758E+00 3.548E+01 1.742E+01 5.466E+01 5.751E+01 8.691E+06 18.3889 1.00000
  1.585E+08 1.585E+08 2.861E+00 1.988E+00 3.988E+01 1.989E+01 6.175E+01 6.461E+01 8.974E+06 18.6192 1.00000
  1.778E+08 1.778E+08 2.875E+00 2.247E+00 4.480E+01 2.270E+01 6.975E+01 7.263E+01 9.257E+06 18.8494 1.00000
  1.995E+08 1.995E+08 2.888E+00 2.539E+00 5.034E+01 2.592E+01 7.880E+01 8.168E+01 9.539E+06 19.0797 1.00000
  2.239E+08 2.239E+08 2.901E+00 2.869E+00 5.655E+01 2.960E+01 8.901E+01 9.191E+01 9.820E+06 19.3099 1.00000
  2.512E+08 2.512E+08 2.914E+00 3.241E+00 6.352E+01 3.379E+01 1.006E+02 1.035E+02 1.010E+07 19.5402 1.00000
  2.818E+08 2.818E+08 2.927E+00 3.660E+00 7.134E+01 3.859E+01 1.136E+02 1.165E+02 1.038E+07 19.7704 1.00000
  3.162E+08 3.162E+08 2.941E+00 4.132E+00 8.012E+01 4.407E+01 1.283E+02 1.313E+02 1.066E+07 20.0007 1.00000
  3.548E+08 3.548E+08 2.954E+00 4.664E+00 8.997E+01 5.034E+01 1.450E+02 1.479E+02 1.094E+07 20.2310 1.00000
  3.981E+08 3.981E+08 2.967E+00 5.263E+00 1.010E+02 5.750E+01 1.638E+02 1.668E+02 1.121E+07 20.4612 1.00000
  4.467E+08 4.467E+08 2.981E+00 5.937E+00 1.134E+02 6.568E+01 1.850E+02 1.880E+02 1.149E+07 20.6915 1.00000
  5.012E+08 5.012E+08 2.995E+00 6.696E+00 1.274E+02 7.502E+01 2.091E+02 2.121E+02 1.176E+07 20.9217 1.00000
  5.623E+08 5.623E+08 3.008E+00 7.550E+00 1.430E+02 8.571E+01 2.362E+02 2.393E+02 1.203E+07 21.1520 1.00000
  6.310E+08 6.310E+08 3.022E+00 8.512E+00 1.605E+02 9.792E+01 2.669E+02 2.700E+02 1.230E+07 21.3822 1.00000
  7.079E+08 7.079E+08 3.036E+00 9.593E+00 1.802E+02 1.119E+02 3.017E+02 3.047E+02 1.257E+07 21.6125 1.00000
  7.943E+08 7.943E+08 3.050E+00 1.081E+01 2.023E+02 1.278E+02 3.409E+02 3.440E+02 1.284E+07 21.8428 1.00000
  8.913E+08 8.913E+08 3.063E+00 1.218E+01 2.270E+02 1.461E+02 3.853E+02 3.884E+02 1.311E+07 22.0730 1.00000
  1.000E+09 1.000E+09 3.077E+00 1.372E+01 2.548E+02 1.669E+02 4.355E+02 4.386E+02 1.337E+07 22.3033 1.00000
  1.122E+09 1.122E+09 3.091E+00 1.545E+01 2.860E+02 1.908E+02 4.923E+02 4.953E+02 1.363E+07 22.5335 1.00000
  1.259E+09 1.259E+09 3.106E+00 1.739E+01 3.210E+02 2.180E+02 5.565E+02 5.596E+02 1.389E+07 22.7638 1.00000
  1.413E+09 1.413E+09 3.120E+00 1.958E+01 3.603E+02 2.492E+02 6.291E+02 6.322E+02 1.415E+07 22.9940 1.00000
  1.585E+09 1.585E+09 3.134E+00 2.204E+01 4.044E+02 2.848E+02 7.113E+02 7.144E+02 1.441E+07 23.2243 1.00000
  1.778E+09 1.778E+09 3.149E+00 2.480E+01 4.538E+02 3.256E+02 8.042E+02 8.074E+02 1.466E+07 23.4546 1.00000
  1.995E+09 1.995E+09 3.163E+00 2.790E+01 5.093E+02 3.722E+02 9.094E+02 9.126E+02 1.492E+07 23.6848 1.00000
  2.239E+09 2.239E+09 3.178E+00 3.139E+01 5.716E+02 4.255E+02 1.028E+03 1.032E+03 1.517E+07 23.9151 1.00000
  2.512E+09 2.512E+09 3.192E+00 3.530E+01 6.414E+02 4.864E+02 1.163E+03 1.166E+03 1.542E+07 24.1453 1.00000
  2.818E+09 2.818E+09 3.207E+00 3.970E+01 7.198E+02 5.561E+02 1.316E+03 1.319E+03 1.566E+07 24.3756 1.00000
  3.162E+09 3.162E+09 3.222E+00 4.464E+01 8.077E+02 6.359E+02 1.488E+03 1.491E+03 1.591E+07 24.6059 1.00000
  3.548E+09 3.548E+09 3.236E+00 5.019E+01 9.064E+02 7.271E+02 1.684E+03 1.687E+03 1.615E+07 24.8361 1.00000
  3.981E+09 3.981E+09 3.251E+00 5.642E+01 1.017E+03 8.314E+02 1.905E+03 1.908E+03 1.640E+07 25.0664 1.00000
  4.467E+09 4.467E+09 3.266E+00 6.342E+01 1.141E+03 9.508E+02 2.156E+03 2.159E+03 1.664E+07 25.2966 1.00000
  5.012E+09 5.012E+09 3.282E+00 7.128E+01 1.281E+03 1.087E+03 2.439E+03 2.443E+03 1.687E+07 25.5269 1.00000
  5.623E+09 5.623E+09 3.297E+00 8.010E+01 1.437E+03 1.244E+03 2.761E+03 2.764E+03 1.711E+07 25.7571 1.00000
  6.310E+09 6.310E+09 3.312E+00 9.001E+01 1.613E+03 1.422E+03 3.125E+03 3.128E+03 1.734E+07 25.9874 1.00000
  7.079E+09 7.079E+09 3.327E+00 1.011E+02 1.809E+03 1.627E+03 3.538E+03 3.541E+03 1.757E+07 26.2177 1.00000
  7.943E+09 7.943E+09 3.343E+00 1.136E+02 2.030E+03 1.861E+03 4.005E+03 4.008E+03 1.780E+07 26.4479 1.00000
  8.913E+09 8.913E+09 3.358E+00 1.276E+02 2.278E+03 2.129E+03 4.535E+03 4.538E+03 1.803E+07 26.6782 1.00000
  1.000E+10 1.000E+10 3.374E+00 1.434E+02 2.556E+03 2.435E+03 5.135E+03 5.138E+03 1.826E+07 26.9084 1.00000
  1.122E+10 1.122E+10 3.390E+00 1.610E+02 2.868E+03 2.786E+03 5.816E+03 5.819E+03 1.848E+07 27.1387 1.00000
  1.259E+10 1.259E+10 3.405E+00 1.808E+02 3.218E+03 3.188E+03 6.587E+03 6.590E+03 1.870E+07 27.3690 1.00000
  1.413E+10 1.413E+10 3.421E+00 2.031E+02 3.611E+03 3.647E+03 7.462E+03 7.465E+03 1.892E+07 27.5992 1.00000
  1.585E+10 1.585E+10 3.437E+00 2.280E+02 4.052E+03 4.173E+03 8.453E+03 8.457E+03 1.914E+07 27.8295 1.00000
  1.778E+10 1.778E+10 3.453E+00 2.561E+02 4.546E+03 4.775E+03 9.578E+03 9.581E+03 1.936E+07 28.0597 1.00000
  1.995E+10 1.995E+10 3.470E+00 2.875E+02 5.101E+03 5.465E+03 1.085E+04 1.086E+04 1.957E+07 28.2900 1.00000
  2.239E+10 2.239E+10 3.486E+00 3.228E+02 5.724E+03 6.254E+03 1.230E+04 1.230E+04 1.978E+07 28.5203 1.00000
  2.512E+10 2.512E+10 3.502E+00 3.624E+02 6.422E+03 7.157E+03 1.394E+04 1.395E+04 1.999E+07 28.7505 1.00000
  2.818E+10 2.818E+10 3.519E+00 4.069E+02 7.206E+03 8.192E+03 1.580E+04 1.581E+04 2.020E+07 28.9808 1.00000
  3.162E+10 3.162E+10 3.535E+00 4.568E+02 8.085E+03 9.376E+03 1.792E+04 1.792E+04 2.040E+07 29.2110 1.00000
  3.548E+10 3.548E+10 3.552E+00 5.127E+02 9.072E+03 1.073E+04 2.032E+04 2.032E+04 2.060E+07 29.4413 1.00000
  3.981E+10 3.981E+10 3.568E+00 5.756E+02 1.018E+04 1.229E+04 2.304E+04 2.304E+04 2.080E+07 29.6715 1.00000
  4.467E+10 4.467E+10 3.585E+00 6.460E+02 1.142E+04 1.406E+04 2.613E+04 2.613E+04 2.100E+07 29.9018 1.00000
  5.012E+10 5.012E+10 3.602E+00 7.251E+02 1.281E+04 1.610E+04 2.964E+04 2.964E+04 2.120E+07 30.1321 1.00000
  5.623E+10 5.623E+10 3.619E+00 8.139E+02 1.438E+04 1.843E+04 3.362E+04 3.363E+04 2.139E+07 30.3623 1.00000
  6.310E+10 6.310E+10 3.636E+00 9.135E+02 1.613E+04 2.111E+04 3.815E+04 3.815E+04 2.158E+07 30.5926 1.00000
  7.079E+10 7.079E+10 3.654E+00 1.025E+03 1.810E+04 2.417E+04 4.329E+04 4.329E+04 2.177E+07 30.8228 1.00000
  7.943E+10 7.943E+10 3.671E+00 1.151E+03 2.031E+04 2.767E+04 4.913E+04 4.913E+04 2.196E+07 31.0531 1.00000
  8.913E+10 8.913E+10 3.688E+00 1.291E+03 2.278E+04 3.169E+04 5.576E+04 5.577E+04 2.215E+07 31.2834 1.00000
  1.000E+11 1.000E+11 3.706E+00 1.449E+03 2.556E+04 3.629E+04 6.330E+04 6.330E+04 2.233E+07 31.5136 1.00000
  1.122E+11 1.122E+11 3.723E+00 1.626E+03 2.868E+04 4.156E+04 7.187E+04 7.187E+04 2.251E+07 31.7439 1.00000
  1.259E+11 1.259E+11 3.741E+00 1.825E+03 3.218E+04 4.760E+04 8.160E+04 8.161E+04 2.269E+07 31.9741 1.00000
  1.413E+11 1.413E+11 3.759E+00 2.048E+03 3.611E+04 5.452E+04 9.267E+04 9.268E+04 2.287E+07 32.2044 1.00000
  1.585E+11 1.585E+11 3.777E+00 2.299E+03 4.051E+04 6.244E+04 1.053E+05 1.053E+05 2.304E+07 32.4346 1.00000
  1.778E+11 1.778E+11 3.795E+00 2.580E+03 4.545E+04 7.153E+04 1.196E+05 1.196E+05 2.321E+07 32.6649 1.00000
  1.995E+11 1.995E+11 3.813E+00 2.895E+03 5.100E+04 8.194E+04 1.358E+05 1.358E+05 2.339E+07 32.8952 1.00000
  2.239E+11 2.239E+11 3.831E+00 3.248E+03 5.722E+04 9.387E+04 1.543E+05 1.543E+05 2.355E+07 33.1254 1.00000
  2.512E+11 2.512E+11 3.849E+00 3.645E+03 6.420E+04 1.075E+05 1.754E+05 1.754E+05 2.372E+07 33.3557 1.00000
  2.818E+11 2.818E+11 3.868E+00 4.090E+03 7.203E+04 1.232E+05 1.993E+05 1.993E+05 2.388E+07 33.5859 1.00000
  3.162E+11 3.162E+11 3.886E+00 4.590E+03 8.082E+04 1.412E+05 2.266E+05 2.266E+05 2.405E+07 33.8162 1.00000
  3.548E+11 3.548E+11 3.905E+00 5.150E+03 9.068E+04 1.618E+05 2.576E+05 2.576E+05 2.421E+07 34.0465 1.00000
  3.981E+11 3.981E+11 3.923E+00 5.779E+03 1.017E+05 1.854E+05 2.929E+05 2.929E+05 2.436E+07 34.2767 1.00000
  4.467E+11 4.467E+11 3.942E+00 6.484E+03 1.142E+05 2.124E+05 3.331E+05 3.331E+05 2.452E+07 34.5070 1.00000
  5.012E+11 5.012E+11 3.961E+00 7.276E+03 1.281E+05 2.434E+05 3.788E+05 3.788E+05 2.467E+07 34.7372 1.00000
  5.623E+11 5.623E+11 3.980E+00 8.164E+03 1.437E+05 2.790E+05 4.309E+05 4.309E+05 2.483E+07 34.9675 1.00000
  6.310E+11 6.310E+11 3.999E+00 9.161E+03 1.612E+05 3.198E+05 4.902E+05 4.902E+05 2.498E+07 35.1977 1.00000
  7.079E+11 7.079E+11 4.019E+00 1.028E+04 1.809E+05 3.665E+05 5.577E+05 5.577E+05 2.512E+07 35.4280 1.00000
  7.943E+11 7.943E+11 4.038E+00 1.153E+04 2.030E+05 4.201E+05 6.346E+05 6.346E+05 2.527E+07 35.6583 1.00000
  8.913E+11 8.913E+11 4.057E+00 1.294E+04 2.277E+05 4.816E+05 7.222E+05 7.222E+05 2.541E+07 35.8885 1.00000
  1.000E+12 1.000E+12 4.077E+00 1.452E+04 2.555E+05 5.521E+05 8.221E+05 8.221E+05 2.555E+07 36.1188 1.00000
  1.122E+12 1.122E+12 4.097E+00 1.629E+04 2.867E+05 6.329E+05 9.359E+05 9.359E+05 2.569E+07 36.3490 1.00000
  1.259E+12 1.259E+12 4.116E+00 1.828E+04 3.216E+05 7.256E+05 1.066E+06 1.066E+06 2.583E+07 36.5793 1.00000
  1.413E+12 1.413E+12 4.136E+00 2.051E+04 3.608E+05 8.320E+05 1.213E+06 1.213E+06 2.597E+07 36.8096 1.00000
  1.585E+12 1.585E+12 4.156E+00 2.302E+04 4.049E+05 9.539E+05 1.382E+06 1.382E+06 2.610E+07 37.0398 1.00000
  1.778E+12 1.778E+12 4.176E+00 2.583E+04 4.542E+05 1.094E+06 1.574E+06 1.574E+06 2.623E+07 37.2701 1.00000
  1.995E+12 1.995E+12 4.197E+00 2.898E+04 5.096E+05 1.254E+06 1.793E+06 1.793E+06 2.636E+07 37.5003 1.00000
  2.239E+12 2.239E+12 4.217E+00 3.251E+04 5.718E+05 1.438E+06 2.043E+06 2.043E+06 2.649E+07 37.7306 1.00000
  2.512E+12 2.512E+12 4.237E+00 3.648E+04 6.416E+05 1.650E+06 2.328E+06 2.328E+06 2.661E+07 37.9608 1.00000
  2.818E+12 2.818E+12 4.258E+00 4.093E+04 7.198E+05 1.892E+06 2.653E+06 2.653E+06 2.674E+07 38.1911 1.00000
  3.162E+12 3.162E+12 4.278E+00 4.593E+04 8.076E+05 2.170E+06 3.024E+06 3.024E+06 2.686E+07 38.4214 1.00000
  3.548E+12 3.548E+12 4.299E+00 5.153E+04 9.061E+05 2.489E+06 3.447E+06 3.447E+06 2.698E+07 38.6516 1.00000
  3.981E+12 3.981E+12 4.320E+00 5.782E+04 1.017E+06 2.855E+06 3.930E+06 3.930E+06 2.710E+07 38.8819 1.00000
  4.467E+12 4.467E+12 4.341E+00 6.488E+04 1.141E+06 3.275E+06 4.481E+06 4.481E+06 2.721E+07 39.1121 1.00000
  5.012E+12 5.012E+12 4.362E+00 7.280E+04 1.280E+06 3.757E+06 5.110E+06 5.110E+06 2.733E+07 39.3424 1.00000
  5.623E+12 5.623E+12 4.384E+00 8.168E+04 1.436E+06 4.310E+06 5.828E+06 5.828E+06 2.744E+07 39.5727 1.00000
  6.310E+12 6.310E+12 4.405E+00 9.165E+04 1.611E+06 4.945E+06 6.648E+06 6.648E+06 2.755E+07 39.8029 1.00000
  7.079E+12 7.079E+12 4.426E+00 1.028E+05 1.807E+06 5.674E+06 7.584E+06 7.584E+06 2.766E+07 40.0332 1.00000
  7.943E+12 7.943E+12 4.448E+00 1.154E+05 2.028E+06 6.510E+06 8.653E+06 8.653E+06 2.776E+07 40.2634 1.00000
  8.913E+12 8.913E+12 4.470E+00 1.295E+05 2.275E+06 7.470E+06 9.875E+06 9.875E+06 2.787E+07 40.4937 1.00000
  1.000E+13 1.000E+13 4.492E+00 1.453E+05 2.553E+06 8.572E+06 1.127E+07 1.127E+07 2.797E+07 40.7240 1.00000
  1.122E+13 1.122E+13 4.513E+00 1.630E+05 2.864E+06 9.837E+06 1.286E+07 1.286E+07 2.807E+07 40.9542 1.00000
  1.259E+13 1.259E+13 4.536E+00 1.829E+05 3.213E+06 1.129E+07 1.469E+07 1.469E+07 2.817E+07 41.1845 1.00000
  1.413E+13 1.413E+13 4.558E+00 2.052E+05 3.605E+06 1.296E+07 1.677E+07 1.677E+07 2.827E+07 41.4147 1.00000
  1.585E+13 1.585E+13 4.580E+00 2.302E+05 4.045E+06 1.487E+07 1.915E+07 1.915E+07 2.837E+07 41.6450 1.00000
  1.778E+13 1.778E+13 4.602E+00 2.583E+05 4.538E+06 1.707E+07 2.187E+07 2.187E+07 2.846E+07 41.8752 1.00000
  1.995E+13 1.995E+13 4.625E+00 2.898E+05 5.092E+06 1.959E+07 2.497E+07 2.497E+07 2.856E+07 42.1055 1.00000
  2.239E+13 2.239E+13 4.648E+00 3.252E+05 5.713E+06 2.249E+07 2.853E+07 2.853E+07 2.865E+07 42.3358 1.00000
  2.512E+13 2.512E+13 4.670E+00 3.649E+05 6.409E+06 2.582E+07 3.259E+07 3.259E+07 2.874E+07 42.5660 1.00000
  2.818E+13 2.818E+13 4.693E+00 4.094E+05 7.191E+06 2.964E+07 3.724E+07 3.724E+07 2.883E+07 42.7963 1.00000
  3.162E+13 3.162E+13 4.716E+00 4.593E+05 8.068E+06 3.403E+07 4.256E+07 4.256E+07 2.891E+07 43.0265 1.00000
  3.548E+13 3.548E+13 4.740E+00 5.154E+05 9.052E+06 3.907E+07 4.864E+07 4.864E+07 2.900E+07 43.2568 1.00000
  3.981E+13 3.981E+13 4.763E+00 5.783E+05 1.016E+07 4.486E+07 5.559E+07 5.559E+07 2.908E+07 43.4871 1.00000
  4.467E+13 4.467E+13 4.786E+00 6.488E+05 1.139E+07 5.151E+07 6.355E+07 6.355E+07 2.916E+07 43.7173 1.00000
  5.012E+13 5.012E+13 4.810E+00 7.280E+05 1.278E+07 5.915E+07 7.266E+07 7.266E+07 2.924E+07 43.9476 1.00000
  5.623E+13 5.623E+13 4.833E+00 8.168E+05 1.434E+07 6.792E+07 8.308E+07 8.308E+07 2.932E+07 44.1778 1.00000
  6.310E+13 6.310E+13 4.857E+00 9.165E+05 1.609E+07 7.800E+07 9.501E+07 9.501E+07 2.940E+07 44.4081 1.00000
  7.079E+13 7.079E+13 4.881E+00 1.028E+06 1.806E+07 8.958E+07 1.087E+08 1.087E+08 2.948E+07 44.6383 1.00000
  7.943E+13 7.943E+13 4.905E+00 1.154E+06 2.026E+07 1.029E+08 1.243E+08 1.243E+08 2.955E+07 44.8686 1.00000
  8.913E+13 8.913E+13 4.929E+00 1.295E+06 2.273E+07 1.182E+08 1.422E+08 1.422E+08 2.962E+07 45.0989 1.00000
