 Incident particle is a Tau with M = 1776.82000 MeV
 Index = 0: Cobalt
      Absorber with <Z/A> = 0.45815
 Sternheimer coef:  a     k=m_s   x_0    x_1    I[eV]   Cbar  delta0
                 0.1447  2.9502  0.0187  3.1790  297.0  4.2601 0.12

 *** Table generated with PUMAS v1.00 ***

      T         p     Ionization  brems     pair     photonuc  Radloss    dE/dx   CSDA Range  delta   beta
    [MeV]    [MeV/c]  -----------------------[MeV cm^2/g]------------------------  [g/cm^2]
  1.000E+05 1.018E+05 1.855E+00 4.399E-04 7.245E-03 7.887E-03 1.557E-02 1.871E+00 2.672E+04  4.2436 0.99985
  1.122E+05 1.140E+05 1.875E+00 5.091E-04 8.690E-03 8.876E-03 1.808E-02 1.893E+00 3.321E+04  4.4298 0.99988
  1.259E+05 1.277E+05 1.894E+00 5.890E-04 1.039E-02 9.937E-03 2.092E-02 1.915E+00 4.040E+04  4.6191 0.99990
  1.413E+05 1.430E+05 1.913E+00 6.809E-04 1.239E-02 1.113E-02 2.420E-02 1.937E+00 4.838E+04  4.8113 0.99992
  1.585E+05 1.603E+05 1.932E+00 7.869E-04 1.474E-02 1.245E-02 2.798E-02 1.960E+00 5.722E+04  5.0064 0.99994
  1.778E+05 1.796E+05 1.950E+00 9.088E-04 1.748E-02 1.393E-02 3.232E-02 1.983E+00 6.704E+04  5.2041 0.99995
  1.995E+05 2.013E+05 1.969E+00 1.049E-03 2.069E-02 1.561E-02 3.735E-02 2.006E+00 7.792E+04  5.4045 0.99996
  2.239E+05 2.256E+05 1.987E+00 1.210E-03 2.443E-02 1.744E-02 4.308E-02 2.030E+00 8.998E+04  5.6074 0.99997
  2.512E+05 2.530E+05 2.006E+00 1.396E-03 2.878E-02 1.948E-02 4.966E-02 2.055E+00 1.034E+05  5.8126 0.99998
  2.818E+05 2.836E+05 2.024E+00 1.608E-03 3.383E-02 2.178E-02 5.722E-02 2.081E+00 1.182E+05  6.0201 0.99998
  3.162E+05 3.180E+05 2.042E+00 1.853E-03 3.969E-02 2.437E-02 6.591E-02 2.108E+00 1.346E+05  6.2298 0.99998
  3.548E+05 3.566E+05 2.060E+00 2.133E-03 4.648E-02 2.727E-02 7.588E-02 2.136E+00 1.528E+05  6.4415 0.99999
  3.981E+05 3.999E+05 2.077E+00 2.455E-03 5.432E-02 3.049E-02 8.727E-02 2.165E+00 1.729E+05  6.6551 0.99999
  4.467E+05 4.485E+05 2.095E+00 2.823E-03 6.338E-02 3.410E-02 1.003E-01 2.195E+00 1.952E+05  6.8706 0.99999
  5.012E+05 5.030E+05 2.112E+00 3.246E-03 7.381E-02 3.815E-02 1.152E-01 2.228E+00 2.198E+05  7.0878 0.99999
  5.623E+05 5.641E+05 2.130E+00 3.730E-03 8.582E-02 4.253E-02 1.321E-01 2.262E+00 2.471E+05  7.3066 1.00000
  6.310E+05 6.327E+05 2.147E+00 4.285E-03 9.963E-02 4.745E-02 1.514E-01 2.298E+00 2.772E+05  7.5269 1.00000
  7.079E+05 7.097E+05 2.164E+00 4.919E-03 1.155E-01 5.300E-02 1.734E-01 2.337E+00 3.104E+05  7.7486 1.00000
  7.943E+05 7.961E+05 2.181E+00 5.645E-03 1.337E-01 5.925E-02 1.986E-01 2.379E+00 3.470E+05  7.9717 1.00000
  8.913E+05 8.930E+05 2.198E+00 6.476E-03 1.545E-01 6.630E-02 2.273E-01 2.425E+00 3.874E+05  8.1959 1.00000
  1.000E+06 1.002E+06 2.214E+00 7.426E-03 1.783E-01 7.427E-02 2.600E-01 2.474E+00 4.318E+05  8.4211 1.00000
  1.122E+06 1.124E+06 2.231E+00 8.511E-03 2.055E-01 8.328E-02 2.973E-01 2.528E+00 4.806E+05  8.6474 1.00000
  1.259E+06 1.261E+06 2.247E+00 9.752E-03 2.366E-01 9.347E-02 3.398E-01 2.587E+00 5.341E+05  8.8745 1.00000
  1.413E+06 1.414E+06 2.263E+00 1.117E-02 2.720E-01 1.050E-01 3.882E-01 2.651E+00 5.928E+05  9.1024 1.00000
  1.585E+06 1.587E+06 2.279E+00 1.279E-02 3.124E-01 1.181E-01 4.433E-01 2.722E+00 6.570E+05  9.3309 1.00000
  1.778E+06 1.780E+06 2.295E+00 1.463E-02 3.583E-01 1.329E-01 5.059E-01 2.801E+00 7.270E+05  9.5599 1.00000
  1.995E+06 1.997E+06 2.310E+00 1.674E-02 4.106E-01 1.497E-01 5.770E-01 2.887E+00 8.033E+05  9.7894 1.00000
  2.239E+06 2.240E+06 2.326E+00 1.915E-02 4.699E-01 1.688E-01 6.579E-01 2.984E+00 8.863E+05 10.0192 1.00000
  2.512E+06 2.514E+06 2.341E+00 2.189E-02 5.373E-01 1.904E-01 7.496E-01 3.091E+00 9.762E+05 10.2492 1.00000
  2.818E+06 2.820E+06 2.357E+00 2.501E-02 6.137E-01 2.150E-01 8.538E-01 3.210E+00 1.074E+06 10.4793 1.00000
  3.162E+06 3.164E+06 2.372E+00 2.858E-02 7.003E-01 2.430E-01 9.719E-01 3.344E+00 1.179E+06 10.7095 1.00000
  3.548E+06 3.550E+06 2.387E+00 3.264E-02 7.984E-01 2.748E-01 1.106E+00 3.493E+00 1.291E+06 10.9396 1.00000
  3.981E+06 3.983E+06 2.402E+00 3.726E-02 9.094E-01 3.109E-01 1.258E+00 3.659E+00 1.413E+06 11.1698 1.00000
  4.467E+06 4.469E+06 2.416E+00 4.253E-02 1.035E+00 3.521E-01 1.430E+00 3.846E+00 1.542E+06 11.3999 1.00000
  5.012E+06 5.014E+06 2.431E+00 4.852E-02 1.177E+00 3.989E-01 1.624E+00 4.055E+00 1.680E+06 11.6301 1.00000
  5.623E+06 5.625E+06 2.445E+00 5.535E-02 1.337E+00 4.522E-01 1.845E+00 4.290E+00 1.827E+06 11.8603 1.00000
  6.310E+06 6.311E+06 2.460E+00 6.311E-02 1.518E+00 5.128E-01 2.094E+00 4.554E+00 1.982E+06 12.0905 1.00000
  7.079E+06 7.081E+06 2.474E+00 7.193E-02 1.723E+00 5.819E-01 2.376E+00 4.850E+00 2.146E+06 12.3207 1.00000
  7.943E+06 7.945E+06 2.488E+00 8.197E-02 1.953E+00 6.606E-01 2.696E+00 5.183E+00 2.318E+06 12.5509 1.00000
  8.913E+06 8.914E+06 2.501E+00 9.338E-02 2.213E+00 7.503E-01 3.057E+00 5.558E+00 2.499E+06 12.7811 1.00000
  1.000E+07 1.000E+07 2.515E+00 1.063E-01 2.506E+00 8.525E-01 3.465E+00 5.980E+00 2.688E+06 13.0113 1.00000
  1.122E+07 1.122E+07 2.529E+00 1.211E-01 2.836E+00 9.690E-01 3.926E+00 6.455E+00 2.884E+06 13.2415 1.00000
  1.259E+07 1.259E+07 2.542E+00 1.378E-01 3.208E+00 1.102E+00 4.447E+00 6.989E+00 3.088E+06 13.4717 1.00000
  1.413E+07 1.413E+07 2.556E+00 1.568E-01 3.626E+00 1.253E+00 5.036E+00 7.592E+00 3.299E+06 13.7020 1.00000
  1.585E+07 1.585E+07 2.569E+00 1.783E-01 4.097E+00 1.426E+00 5.701E+00 8.270E+00 3.517E+06 13.9322 1.00000
  1.778E+07 1.778E+07 2.582E+00 2.028E-01 4.627E+00 1.623E+00 6.453E+00 9.035E+00 3.741E+06 14.1624 1.00000
  1.995E+07 1.995E+07 2.595E+00 2.305E-01 5.224E+00 1.847E+00 7.302E+00 9.897E+00 3.971E+06 14.3927 1.00000
  2.239E+07 2.239E+07 2.608E+00 2.619E-01 5.894E+00 2.104E+00 8.260E+00 1.087E+01 4.206E+06 14.6229 1.00000
  2.512E+07 2.512E+07 2.621E+00 2.976E-01 6.649E+00 2.396E+00 9.342E+00 1.196E+01 4.446E+06 14.8531 1.00000
  2.818E+07 2.819E+07 2.634E+00 3.380E-01 7.496E+00 2.730E+00 1.056E+01 1.320E+01 4.690E+06 15.0834 1.00000
  3.162E+07 3.162E+07 2.647E+00 3.837E-01 8.450E+00 3.110E+00 1.194E+01 1.459E+01 4.938E+06 15.3136 1.00000
  3.548E+07 3.548E+07 2.659E+00 4.355E-01 9.521E+00 3.545E+00 1.350E+01 1.616E+01 5.190E+06 15.5439 1.00000
  3.981E+07 3.981E+07 2.672E+00 4.942E-01 1.072E+01 4.040E+00 1.526E+01 1.793E+01 5.444E+06 15.7741 1.00000
  4.467E+07 4.467E+07 2.685E+00 5.606E-01 1.208E+01 4.606E+00 1.724E+01 1.993E+01 5.702E+06 16.0044 1.00000
  5.012E+07 5.012E+07 2.698E+00 6.357E-01 1.360E+01 5.252E+00 1.948E+01 2.218E+01 5.961E+06 16.2346 1.00000
  5.623E+07 5.624E+07 2.710E+00 7.207E-01 1.530E+01 5.989E+00 2.201E+01 2.472E+01 6.223E+06 16.4649 1.00000
  6.310E+07 6.310E+07 2.723E+00 8.168E-01 1.722E+01 6.831E+00 2.487E+01 2.759E+01 6.486E+06 16.6951 1.00000
  7.079E+07 7.080E+07 2.736E+00 9.254E-01 1.937E+01 7.792E+00 2.809E+01 3.083E+01 6.750E+06 16.9254 1.00000
  7.943E+07 7.943E+07 2.749E+00 1.048E+00 2.179E+01 8.890E+00 3.173E+01 3.448E+01 7.016E+06 17.1556 1.00000
  8.913E+07 8.913E+07 2.761E+00 1.187E+00 2.450E+01 1.014E+01 3.583E+01 3.859E+01 7.282E+06 17.3859 1.00000
  1.000E+08 1.000E+08 2.774E+00 1.344E+00 2.755E+01 1.157E+01 4.047E+01 4.324E+01 7.548E+06 17.6161 1.00000
  1.122E+08 1.122E+08 2.787E+00 1.520E+00 3.097E+01 1.321E+01 4.570E+01 4.849E+01 7.815E+06 17.8464 1.00000
  1.259E+08 1.259E+08 2.800E+00 1.720E+00 3.481E+01 1.507E+01 5.161E+01 5.441E+01 8.082E+06 18.0766 1.00000
  1.413E+08 1.413E+08 2.813E+00 1.946E+00 3.913E+01 1.721E+01 5.828E+01 6.109E+01 8.349E+06 18.3069 1.00000
  1.585E+08 1.585E+08 2.826E+00 2.200E+00 4.397E+01 1.964E+01 6.581E+01 6.863E+01 8.616E+06 18.5372 1.00000
  1.778E+08 1.778E+08 2.839E+00 2.487E+00 4.940E+01 2.242E+01 7.431E+01 7.715E+01 8.882E+06 18.7674 1.00000
  1.995E+08 1.995E+08 2.852E+00 2.810E+00 5.550E+01 2.560E+01 8.391E+01 8.676E+01 9.148E+06 18.9977 1.00000
  2.239E+08 2.239E+08 2.865E+00 3.175E+00 6.234E+01 2.923E+01 9.475E+01 9.761E+01 9.413E+06 19.2279 1.00000
  2.512E+08 2.512E+08 2.878E+00 3.586E+00 7.003E+01 3.337E+01 1.070E+02 1.099E+02 9.677E+06 19.4582 1.00000
  2.818E+08 2.818E+08 2.891E+00 4.049E+00 7.865E+01 3.811E+01 1.208E+02 1.237E+02 9.940E+06 19.6884 1.00000
  3.162E+08 3.162E+08 2.904E+00 4.571E+00 8.833E+01 4.353E+01 1.364E+02 1.393E+02 1.020E+07 19.9187 1.00000
  3.548E+08 3.548E+08 2.917E+00 5.158E+00 9.919E+01 4.971E+01 1.541E+02 1.570E+02 1.046E+07 20.1490 1.00000
  3.981E+08 3.981E+08 2.931E+00 5.820E+00 1.114E+02 5.678E+01 1.740E+02 1.769E+02 1.072E+07 20.3792 1.00000
  4.467E+08 4.467E+08 2.944E+00 6.565E+00 1.250E+02 6.486E+01 1.965E+02 1.994E+02 1.098E+07 20.6095 1.00000
  5.012E+08 5.012E+08 2.958E+00 7.404E+00 1.404E+02 7.409E+01 2.219E+02 2.248E+02 1.124E+07 20.8397 1.00000
  5.623E+08 5.623E+08 2.971E+00 8.348E+00 1.576E+02 8.464E+01 2.506E+02 2.536E+02 1.150E+07 21.0700 1.00000
  6.310E+08 6.310E+08 2.985E+00 9.410E+00 1.769E+02 9.670E+01 2.831E+02 2.860E+02 1.175E+07 21.3002 1.00000
  7.079E+08 7.079E+08 2.999E+00 1.060E+01 1.986E+02 1.105E+02 3.197E+02 3.227E+02 1.201E+07 21.5305 1.00000
  7.943E+08 7.943E+08 3.012E+00 1.195E+01 2.230E+02 1.262E+02 3.612E+02 3.642E+02 1.226E+07 21.7608 1.00000
  8.913E+08 8.913E+08 3.026E+00 1.346E+01 2.503E+02 1.443E+02 4.080E+02 4.110E+02 1.251E+07 21.9910 1.00000
  1.000E+09 1.000E+09 3.040E+00 1.516E+01 2.809E+02 1.649E+02 4.609E+02 4.640E+02 1.276E+07 22.2213 1.00000
  1.122E+09 1.122E+09 3.054E+00 1.707E+01 3.153E+02 1.884E+02 5.208E+02 5.238E+02 1.301E+07 22.4515 1.00000
  1.259E+09 1.259E+09 3.068E+00 1.922E+01 3.539E+02 2.153E+02 5.884E+02 5.915E+02 1.325E+07 22.6818 1.00000
  1.413E+09 1.413E+09 3.082E+00 2.163E+01 3.972E+02 2.461E+02 6.649E+02 6.680E+02 1.350E+07 22.9120 1.00000
  1.585E+09 1.585E+09 3.096E+00 2.434E+01 4.457E+02 2.813E+02 7.514E+02 7.545E+02 1.374E+07 23.1423 1.00000
  1.778E+09 1.778E+09 3.111E+00 2.739E+01 5.002E+02 3.215E+02 8.492E+02 8.523E+02 1.398E+07 23.3726 1.00000
  1.995E+09 1.995E+09 3.125E+00 3.082E+01 5.614E+02 3.675E+02 9.598E+02 9.629E+02 1.422E+07 23.6028 1.00000
  2.239E+09 2.239E+09 3.139E+00 3.467E+01 6.300E+02 4.202E+02 1.085E+03 1.088E+03 1.446E+07 23.8331 1.00000
  2.512E+09 2.512E+09 3.154E+00 3.899E+01 7.070E+02 4.804E+02 1.226E+03 1.230E+03 1.470E+07 24.0633 1.00000
  2.818E+09 2.818E+09 3.168E+00 4.384E+01 7.934E+02 5.492E+02 1.386E+03 1.390E+03 1.493E+07 24.2936 1.00000
  3.162E+09 3.162E+09 3.183E+00 4.930E+01 8.903E+02 6.280E+02 1.568E+03 1.571E+03 1.517E+07 24.5239 1.00000
  3.548E+09 3.548E+09 3.198E+00 5.542E+01 9.991E+02 7.181E+02 1.773E+03 1.776E+03 1.540E+07 24.7541 1.00000
  3.981E+09 3.981E+09 3.213E+00 6.230E+01 1.121E+03 8.211E+02 2.005E+03 2.008E+03 1.563E+07 24.9844 1.00000
  4.467E+09 4.467E+09 3.228E+00 7.002E+01 1.258E+03 9.390E+02 2.267E+03 2.270E+03 1.586E+07 25.2146 1.00000
  5.012E+09 5.012E+09 3.243E+00 7.869E+01 1.412E+03 1.074E+03 2.564E+03 2.567E+03 1.608E+07 25.4449 1.00000
  5.623E+09 5.623E+09 3.258E+00 8.843E+01 1.584E+03 1.228E+03 2.901E+03 2.904E+03 1.631E+07 25.6751 1.00000
  6.310E+09 6.310E+09 3.273E+00 9.936E+01 1.777E+03 1.405E+03 3.281E+03 3.285E+03 1.653E+07 25.9054 1.00000
  7.079E+09 7.079E+09 3.288E+00 1.116E+02 1.994E+03 1.607E+03 3.713E+03 3.716E+03 1.675E+07 26.1357 1.00000
  7.943E+09 7.943E+09 3.303E+00 1.254E+02 2.238E+03 1.838E+03 4.201E+03 4.204E+03 1.697E+07 26.3659 1.00000
  8.913E+09 8.913E+09 3.319E+00 1.409E+02 2.511E+03 2.102E+03 4.754E+03 4.758E+03 1.719E+07 26.5962 1.00000
  1.000E+10 1.000E+10 3.334E+00 1.582E+02 2.818E+03 2.405E+03 5.381E+03 5.384E+03 1.740E+07 26.8264 1.00000
  1.122E+10 1.122E+10 3.350E+00 1.777E+02 3.162E+03 2.751E+03 6.091E+03 6.094E+03 1.761E+07 27.0567 1.00000
  1.259E+10 1.259E+10 3.366E+00 1.996E+02 3.547E+03 3.148E+03 6.895E+03 6.898E+03 1.783E+07 27.2870 1.00000
  1.413E+10 1.413E+10 3.381E+00 2.241E+02 3.980E+03 3.602E+03 7.806E+03 7.810E+03 1.804E+07 27.5172 1.00000
  1.585E+10 1.585E+10 3.397E+00 2.517E+02 4.466E+03 4.121E+03 8.839E+03 8.842E+03 1.824E+07 27.7475 1.00000
  1.778E+10 1.778E+10 3.413E+00 2.826E+02 5.011E+03 4.716E+03 1.001E+04 1.001E+04 1.845E+07 27.9777 1.00000
  1.995E+10 1.995E+10 3.429E+00 3.173E+02 5.623E+03 5.397E+03 1.134E+04 1.134E+04 1.865E+07 28.2080 1.00000
  2.239E+10 2.239E+10 3.445E+00 3.562E+02 6.309E+03 6.176E+03 1.284E+04 1.284E+04 1.886E+07 28.4383 1.00000
  2.512E+10 2.512E+10 3.462E+00 3.999E+02 7.079E+03 7.068E+03 1.455E+04 1.455E+04 1.906E+07 28.6685 1.00000
  2.818E+10 2.818E+10 3.478E+00 4.490E+02 7.942E+03 8.090E+03 1.648E+04 1.648E+04 1.925E+07 28.8988 1.00000
  3.162E+10 3.162E+10 3.494E+00 5.040E+02 8.911E+03 9.260E+03 1.867E+04 1.868E+04 1.945E+07 29.1290 1.00000
  3.548E+10 3.548E+10 3.511E+00 5.658E+02 9.999E+03 1.060E+04 2.116E+04 2.117E+04 1.965E+07 29.3593 1.00000
  3.981E+10 3.981E+10 3.527E+00 6.351E+02 1.122E+04 1.213E+04 2.399E+04 2.399E+04 1.984E+07 29.5895 1.00000
  4.467E+10 4.467E+10 3.544E+00 7.128E+02 1.259E+04 1.389E+04 2.719E+04 2.719E+04 2.003E+07 29.8198 1.00000
  5.012E+10 5.012E+10 3.561E+00 8.001E+02 1.412E+04 1.590E+04 3.082E+04 3.083E+04 2.022E+07 30.0501 1.00000
  5.623E+10 5.623E+10 3.578E+00 8.980E+02 1.585E+04 1.820E+04 3.495E+04 3.495E+04 2.040E+07 30.2803 1.00000
  6.310E+10 6.310E+10 3.595E+00 1.008E+03 1.778E+04 2.084E+04 3.963E+04 3.963E+04 2.059E+07 30.5106 1.00000
  7.079E+10 7.079E+10 3.612E+00 1.131E+03 1.995E+04 2.387E+04 4.494E+04 4.495E+04 2.077E+07 30.7408 1.00000
  7.943E+10 7.943E+10 3.629E+00 1.270E+03 2.238E+04 2.733E+04 5.098E+04 5.098E+04 2.095E+07 30.9711 1.00000
  8.913E+10 8.913E+10 3.646E+00 1.425E+03 2.511E+04 3.129E+04 5.783E+04 5.783E+04 2.113E+07 31.2014 1.00000
  1.000E+11 1.000E+11 3.664E+00 1.599E+03 2.818E+04 3.584E+04 6.561E+04 6.562E+04 2.131E+07 31.4316 1.00000
  1.122E+11 1.122E+11 3.681E+00 1.794E+03 3.161E+04 4.104E+04 7.445E+04 7.445E+04 2.148E+07 31.6619 1.00000
  1.259E+11 1.259E+11 3.699E+00 2.014E+03 3.547E+04 4.700E+04 8.449E+04 8.449E+04 2.166E+07 31.8921 1.00000
  1.413E+11 1.413E+11 3.716E+00 2.260E+03 3.980E+04 5.384E+04 9.590E+04 9.590E+04 2.183E+07 32.1224 1.00000
  1.585E+11 1.585E+11 3.734E+00 2.536E+03 4.465E+04 6.167E+04 1.089E+05 1.089E+05 2.200E+07 32.3526 1.00000
  1.778E+11 1.778E+11 3.752E+00 2.846E+03 5.010E+04 7.064E+04 1.236E+05 1.236E+05 2.216E+07 32.5829 1.00000
  1.995E+11 1.995E+11 3.770E+00 3.193E+03 5.621E+04 8.092E+04 1.403E+05 1.403E+05 2.233E+07 32.8132 1.00000
  2.239E+11 2.239E+11 3.788E+00 3.583E+03 6.307E+04 9.270E+04 1.594E+05 1.594E+05 2.249E+07 33.0434 1.00000
  2.512E+11 2.512E+11 3.806E+00 4.021E+03 7.076E+04 1.062E+05 1.810E+05 1.810E+05 2.265E+07 33.2737 1.00000
  2.818E+11 2.818E+11 3.824E+00 4.512E+03 7.939E+04 1.217E+05 2.056E+05 2.056E+05 2.281E+07 33.5039 1.00000
  3.162E+11 3.162E+11 3.843E+00 5.063E+03 8.908E+04 1.394E+05 2.336E+05 2.336E+05 2.297E+07 33.7342 1.00000
  3.548E+11 3.548E+11 3.861E+00 5.681E+03 9.995E+04 1.598E+05 2.654E+05 2.654E+05 2.312E+07 33.9645 1.00000
  3.981E+11 3.981E+11 3.880E+00 6.375E+03 1.121E+05 1.831E+05 3.016E+05 3.016E+05 2.328E+07 34.1947 1.00000
  4.467E+11 4.467E+11 3.898E+00 7.153E+03 1.258E+05 2.098E+05 3.427E+05 3.428E+05 2.343E+07 34.4250 1.00000
  5.012E+11 5.012E+11 3.917E+00 8.027E+03 1.412E+05 2.404E+05 3.896E+05 3.896E+05 2.358E+07 34.6552 1.00000
  5.623E+11 5.623E+11 3.936E+00 9.007E+03 1.584E+05 2.755E+05 4.429E+05 4.429E+05 2.373E+07 34.8855 1.00000
  6.310E+11 6.310E+11 3.955E+00 1.011E+04 1.777E+05 3.158E+05 5.036E+05 5.036E+05 2.387E+07 35.1157 1.00000
  7.079E+11 7.079E+11 3.974E+00 1.134E+04 1.994E+05 3.620E+05 5.727E+05 5.727E+05 2.401E+07 35.3460 1.00000
  7.943E+11 7.943E+11 3.993E+00 1.272E+04 2.237E+05 4.149E+05 6.513E+05 6.513E+05 2.416E+07 35.5763 1.00000
  8.913E+11 8.913E+11 4.013E+00 1.428E+04 2.510E+05 4.756E+05 7.409E+05 7.409E+05 2.430E+07 35.8065 1.00000
  1.000E+12 1.000E+12 4.032E+00 1.602E+04 2.816E+05 5.452E+05 8.428E+05 8.428E+05 2.443E+07 36.0368 1.00000
  1.122E+12 1.122E+12 4.052E+00 1.797E+04 3.159E+05 6.250E+05 9.590E+05 9.590E+05 2.457E+07 36.2670 1.00000
  1.259E+12 1.259E+12 4.071E+00 2.017E+04 3.545E+05 7.166E+05 1.091E+06 1.091E+06 2.470E+07 36.4973 1.00000
  1.413E+12 1.413E+12 4.091E+00 2.263E+04 3.977E+05 8.216E+05 1.242E+06 1.242E+06 2.484E+07 36.7276 1.00000
  1.585E+12 1.585E+12 4.111E+00 2.539E+04 4.462E+05 9.421E+05 1.414E+06 1.414E+06 2.497E+07 36.9578 1.00000
  1.778E+12 1.778E+12 4.131E+00 2.849E+04 5.007E+05 1.080E+06 1.609E+06 1.609E+06 2.510E+07 37.1881 1.00000
  1.995E+12 1.995E+12 4.151E+00 3.197E+04 5.617E+05 1.239E+06 1.832E+06 1.832E+06 2.522E+07 37.4183 1.00000
  2.239E+12 2.239E+12 4.171E+00 3.587E+04 6.302E+05 1.421E+06 2.087E+06 2.087E+06 2.535E+07 37.6486 1.00000
  2.512E+12 2.512E+12 4.191E+00 4.024E+04 7.071E+05 1.629E+06 2.376E+06 2.376E+06 2.547E+07 37.8788 1.00000
  2.818E+12 2.818E+12 4.212E+00 4.516E+04 7.934E+05 1.868E+06 2.707E+06 2.707E+06 2.559E+07 38.1091 1.00000
  3.162E+12 3.162E+12 4.232E+00 5.067E+04 8.901E+05 2.143E+06 3.084E+06 3.084E+06 2.571E+07 38.3394 1.00000
  3.548E+12 3.548E+12 4.253E+00 5.685E+04 9.987E+05 2.458E+06 3.514E+06 3.514E+06 2.583E+07 38.5696 1.00000
  3.981E+12 3.981E+12 4.274E+00 6.379E+04 1.121E+06 2.820E+06 4.004E+06 4.004E+06 2.594E+07 38.7999 1.00000
  4.467E+12 4.467E+12 4.294E+00 7.157E+04 1.257E+06 3.234E+06 4.563E+06 4.563E+06 2.606E+07 39.0301 1.00000
  5.012E+12 5.012E+12 4.315E+00 8.030E+04 1.411E+06 3.710E+06 5.201E+06 5.201E+06 2.617E+07 39.2604 1.00000
  5.623E+12 5.623E+12 4.336E+00 9.010E+04 1.583E+06 4.257E+06 5.929E+06 5.929E+06 2.628E+07 39.4907 1.00000
  6.310E+12 6.310E+12 4.358E+00 1.011E+05 1.776E+06 4.884E+06 6.760E+06 6.760E+06 2.639E+07 39.7209 1.00000
  7.079E+12 7.079E+12 4.379E+00 1.134E+05 1.992E+06 5.603E+06 7.709E+06 7.709E+06 2.650E+07 39.9512 1.00000
  7.943E+12 7.943E+12 4.400E+00 1.273E+05 2.235E+06 6.429E+06 8.792E+06 8.792E+06 2.660E+07 40.1814 1.00000
  8.913E+12 8.913E+12 4.422E+00 1.428E+05 2.508E+06 7.377E+06 1.003E+07 1.003E+07 2.670E+07 40.4117 1.00000
  1.000E+13 1.000E+13 4.444E+00 1.602E+05 2.814E+06 8.466E+06 1.144E+07 1.144E+07 2.681E+07 40.6420 1.00000
  1.122E+13 1.122E+13 4.465E+00 1.798E+05 3.157E+06 9.715E+06 1.305E+07 1.305E+07 2.691E+07 40.8722 1.00000
  1.259E+13 1.259E+13 4.487E+00 2.017E+05 3.542E+06 1.115E+07 1.489E+07 1.489E+07 2.700E+07 41.1025 1.00000
  1.413E+13 1.413E+13 4.509E+00 2.263E+05 3.974E+06 1.280E+07 1.700E+07 1.700E+07 2.710E+07 41.3327 1.00000
  1.585E+13 1.585E+13 4.531E+00 2.539E+05 4.458E+06 1.469E+07 1.940E+07 1.940E+07 2.720E+07 41.5630 1.00000
  1.778E+13 1.778E+13 4.554E+00 2.849E+05 5.002E+06 1.686E+07 2.214E+07 2.214E+07 2.729E+07 41.7932 1.00000
  1.995E+13 1.995E+13 4.576E+00 3.197E+05 5.612E+06 1.935E+07 2.528E+07 2.528E+07 2.738E+07 42.0235 1.00000
  2.239E+13 2.239E+13 4.599E+00 3.587E+05 6.297E+06 2.221E+07 2.887E+07 2.887E+07 2.747E+07 42.2538 1.00000
  2.512E+13 2.512E+13 4.621E+00 4.025E+05 7.064E+06 2.550E+07 3.296E+07 3.296E+07 2.756E+07 42.4840 1.00000
  2.818E+13 2.818E+13 4.644E+00 4.516E+05 7.926E+06 2.927E+07 3.765E+07 3.765E+07 2.765E+07 42.7143 1.00000
  3.162E+13 3.162E+13 4.667E+00 5.067E+05 8.893E+06 3.361E+07 4.300E+07 4.300E+07 2.773E+07 42.9445 1.00000
  3.548E+13 3.548E+13 4.690E+00 5.685E+05 9.977E+06 3.858E+07 4.913E+07 4.913E+07 2.782E+07 43.1748 1.00000
  3.981E+13 3.981E+13 4.713E+00 6.379E+05 1.119E+07 4.430E+07 5.613E+07 5.613E+07 2.790E+07 43.4051 1.00000
  4.467E+13 4.467E+13 4.736E+00 7.157E+05 1.256E+07 5.087E+07 6.414E+07 6.414E+07 2.798E+07 43.6353 1.00000
  5.012E+13 5.012E+13 4.760E+00 8.031E+05 1.409E+07 5.841E+07 7.330E+07 7.330E+07 2.806E+07 43.8656 1.00000
  5.623E+13 5.623E+13 4.783E+00 9.011E+05 1.581E+07 6.708E+07 8.379E+07 8.379E+07 2.814E+07 44.0958 1.00000
  6.310E+13 6.310E+13 4.807E+00 1.011E+06 1.774E+07 7.703E+07 9.578E+07 9.578E+07 2.822E+07 44.3261 1.00000
  7.079E+13 7.079E+13 4.830E+00 1.134E+06 1.990E+07 8.846E+07 1.095E+08 1.095E+08 2.829E+07 44.5563 1.00000
  7.943E+13 7.943E+13 4.854E+00 1.273E+06 2.233E+07 1.016E+08 1.252E+08 1.252E+08 2.837E+07 44.7866 1.00000
  8.913E+13 8.913E+13 4.878E+00 1.428E+06 2.505E+07 1.167E+08 1.432E+08 1.432E+08 2.844E+07 45.0169 1.00000
