 Incident particle is a Tau with M = 1776.82000 MeV
 Index = 0: CompactBone
      Absorber with <Z/A> = 0.53006
 Sternheimer coef:  a     k=m_s   x_0    x_1    I[eV]   Cbar  delta0
                 0.0582  3.6419  0.0944  3.0201   91.9  3.3390 0.00

 *** Table generated with PUMAS v1.00 ***

      T         p     Ionization  brems     pair     photonuc  Radloss    dE/dx   CSDA Range  delta   beta
    [MeV]    [MeV/c]  -----------------------[MeV cm^2/g]------------------------  [g/cm^2]
  1.000E+05 1.018E+05 2.285E+00 1.784E-04 2.813E-03 8.302E-03 1.129E-02 2.296E+00 2.178E+04  4.8925 0.99985
  1.122E+05 1.140E+05 2.305E+00 2.062E-04 3.389E-03 9.373E-03 1.297E-02 2.318E+00 2.707E+04  5.1007 0.99988
  1.259E+05 1.277E+05 2.326E+00 2.382E-04 4.069E-03 1.053E-02 1.483E-02 2.340E+00 3.294E+04  5.3111 0.99990
  1.413E+05 1.430E+05 2.346E+00 2.750E-04 4.870E-03 1.182E-02 1.697E-02 2.363E+00 3.948E+04  5.5236 0.99992
  1.585E+05 1.603E+05 2.366E+00 3.174E-04 5.811E-03 1.328E-02 1.940E-02 2.386E+00 4.674E+04  5.7381 0.99994
  1.778E+05 1.796E+05 2.386E+00 3.661E-04 6.914E-03 1.490E-02 2.218E-02 2.408E+00 5.480E+04  5.9543 0.99995
  1.995E+05 2.013E+05 2.406E+00 4.221E-04 8.206E-03 1.675E-02 2.538E-02 2.432E+00 6.377E+04  6.1722 0.99996
  2.239E+05 2.256E+05 2.426E+00 4.864E-04 9.715E-03 1.877E-02 2.897E-02 2.455E+00 7.373E+04  6.3916 0.99997
  2.512E+05 2.530E+05 2.446E+00 5.603E-04 1.147E-02 2.103E-02 3.307E-02 2.479E+00 8.480E+04  6.6124 0.99998
  2.818E+05 2.836E+05 2.466E+00 6.451E-04 1.352E-02 2.359E-02 3.775E-02 2.504E+00 9.711E+04  6.8344 0.99998
  3.162E+05 3.180E+05 2.486E+00 7.424E-04 1.590E-02 2.647E-02 4.311E-02 2.529E+00 1.108E+05  7.0576 0.99998
  3.548E+05 3.566E+05 2.505E+00 8.540E-04 1.866E-02 2.971E-02 4.922E-02 2.555E+00 1.260E+05  7.2819 0.99999
  3.981E+05 3.999E+05 2.525E+00 9.819E-04 2.185E-02 3.332E-02 5.615E-02 2.581E+00 1.428E+05  7.5071 0.99999
  4.467E+05 4.485E+05 2.545E+00 1.129E-03 2.555E-02 3.737E-02 6.405E-02 2.609E+00 1.615E+05  7.7331 0.99999
  5.012E+05 5.030E+05 2.564E+00 1.297E-03 2.981E-02 4.193E-02 7.304E-02 2.637E+00 1.823E+05  7.9598 0.99999
  5.623E+05 5.641E+05 2.583E+00 1.489E-03 3.474E-02 4.687E-02 8.309E-02 2.666E+00 2.054E+05  8.1872 1.00000
  6.310E+05 6.327E+05 2.603E+00 1.710E-03 4.040E-02 5.244E-02 9.455E-02 2.697E+00 2.310E+05  8.4151 1.00000
  7.079E+05 7.097E+05 2.622E+00 1.962E-03 4.693E-02 5.872E-02 1.076E-01 2.729E+00 2.593E+05  8.6435 1.00000
  7.943E+05 7.961E+05 2.641E+00 2.251E-03 5.442E-02 6.581E-02 1.225E-01 2.763E+00 2.908E+05  8.8723 1.00000
  8.913E+05 8.930E+05 2.660E+00 2.581E-03 6.302E-02 7.383E-02 1.394E-01 2.799E+00 3.256E+05  9.1015 1.00000
  1.000E+06 1.002E+06 2.679E+00 2.959E-03 7.288E-02 8.290E-02 1.587E-01 2.837E+00 3.642E+05  9.3309 1.00000
  1.122E+06 1.124E+06 2.697E+00 3.391E-03 8.416E-02 9.317E-02 1.807E-01 2.878E+00 4.069E+05  9.5605 1.00000
  1.259E+06 1.261E+06 2.716E+00 3.885E-03 9.707E-02 1.048E-01 2.057E-01 2.922E+00 4.542E+05  9.7903 1.00000
  1.413E+06 1.414E+06 2.734E+00 4.450E-03 1.118E-01 1.180E-01 2.342E-01 2.969E+00 5.063E+05 10.0202 1.00000
  1.585E+06 1.587E+06 2.753E+00 5.095E-03 1.287E-01 1.329E-01 2.667E-01 3.019E+00 5.639E+05 10.2501 1.00000
  1.778E+06 1.780E+06 2.771E+00 5.832E-03 1.479E-01 1.499E-01 3.036E-01 3.075E+00 6.274E+05 10.4801 1.00000
  1.995E+06 1.997E+06 2.789E+00 6.674E-03 1.697E-01 1.691E-01 3.455E-01 3.135E+00 6.973E+05 10.7102 1.00000
  2.239E+06 2.240E+06 2.807E+00 7.635E-03 1.947E-01 1.909E-01 3.932E-01 3.200E+00 7.741E+05 10.9403 1.00000
  2.512E+06 2.514E+06 2.825E+00 8.731E-03 2.230E-01 2.158E-01 4.475E-01 3.272E+00 8.585E+05 11.1703 1.00000
  2.818E+06 2.820E+06 2.843E+00 9.983E-03 2.552E-01 2.440E-01 5.091E-01 3.352E+00 9.511E+05 11.4004 1.00000
  3.162E+06 3.164E+06 2.860E+00 1.141E-02 2.917E-01 2.761E-01 5.792E-01 3.439E+00 1.052E+06 11.6306 1.00000
  3.548E+06 3.550E+06 2.877E+00 1.304E-02 3.332E-01 3.126E-01 6.587E-01 3.536E+00 1.163E+06 11.8607 1.00000
  3.981E+06 3.983E+06 2.895E+00 1.489E-02 3.802E-01 3.541E-01 7.491E-01 3.644E+00 1.284E+06 12.0909 1.00000
  4.467E+06 4.469E+06 2.912E+00 1.701E-02 4.334E-01 4.013E-01 8.517E-01 3.763E+00 1.415E+06 12.3210 1.00000
  5.012E+06 5.014E+06 2.928E+00 1.942E-02 4.937E-01 4.551E-01 9.682E-01 3.897E+00 1.557E+06 12.5512 1.00000
  5.623E+06 5.625E+06 2.945E+00 2.217E-02 5.619E-01 5.163E-01 1.100E+00 4.046E+00 1.711E+06 12.7814 1.00000
  6.310E+06 6.311E+06 2.962E+00 2.530E-02 6.390E-01 5.861E-01 1.250E+00 4.212E+00 1.878E+06 13.0116 1.00000
  7.079E+06 7.081E+06 2.978E+00 2.886E-02 7.262E-01 6.656E-01 1.421E+00 4.399E+00 2.056E+06 13.2418 1.00000
  7.943E+06 7.945E+06 2.994E+00 3.292E-02 8.247E-01 7.561E-01 1.614E+00 4.608E+00 2.248E+06 13.4720 1.00000
  8.913E+06 8.914E+06 3.010E+00 3.753E-02 9.358E-01 8.593E-01 1.833E+00 4.843E+00 2.454E+06 13.7022 1.00000
  1.000E+07 1.000E+07 3.026E+00 4.278E-02 1.061E+00 9.769E-01 2.081E+00 5.107E+00 2.672E+06 13.9324 1.00000
  1.122E+07 1.122E+07 3.042E+00 4.875E-02 1.203E+00 1.111E+00 2.362E+00 5.404E+00 2.905E+06 14.1626 1.00000
  1.259E+07 1.259E+07 3.057E+00 5.554E-02 1.362E+00 1.264E+00 2.682E+00 5.739E+00 3.151E+06 14.3928 1.00000
  1.413E+07 1.413E+07 3.073E+00 6.326E-02 1.542E+00 1.438E+00 3.043E+00 6.116E+00 3.410E+06 14.6231 1.00000
  1.585E+07 1.585E+07 3.088E+00 7.203E-02 1.745E+00 1.637E+00 3.454E+00 6.542E+00 3.683E+06 14.8533 1.00000
  1.778E+07 1.778E+07 3.103E+00 8.200E-02 1.973E+00 1.864E+00 3.918E+00 7.022E+00 3.968E+06 15.0835 1.00000
  1.995E+07 1.995E+07 3.118E+00 9.331E-02 2.230E+00 2.122E+00 4.445E+00 7.564E+00 4.266E+06 15.3138 1.00000
  2.239E+07 2.239E+07 3.133E+00 1.062E-01 2.519E+00 2.417E+00 5.042E+00 8.176E+00 4.576E+06 15.5440 1.00000
  2.512E+07 2.512E+07 3.148E+00 1.207E-01 2.844E+00 2.754E+00 5.719E+00 8.867E+00 4.897E+06 15.7742 1.00000
  2.818E+07 2.819E+07 3.163E+00 1.373E-01 3.210E+00 3.138E+00 6.485E+00 9.649E+00 5.229E+06 16.0045 1.00000
  3.162E+07 3.162E+07 3.178E+00 1.560E-01 3.622E+00 3.576E+00 7.354E+00 1.053E+01 5.570E+06 16.2347 1.00000
  3.548E+07 3.548E+07 3.193E+00 1.773E-01 4.085E+00 4.077E+00 8.339E+00 1.153E+01 5.921E+06 16.4650 1.00000
  3.981E+07 3.981E+07 3.208E+00 2.014E-01 4.605E+00 4.648E+00 9.454E+00 1.266E+01 6.279E+06 16.6952 1.00000
  4.467E+07 4.467E+07 3.222E+00 2.288E-01 5.190E+00 5.299E+00 1.072E+01 1.394E+01 6.645E+06 16.9255 1.00000
  5.012E+07 5.012E+07 3.237E+00 2.598E-01 5.847E+00 6.043E+00 1.215E+01 1.539E+01 7.018E+06 17.1557 1.00000
  5.623E+07 5.624E+07 3.252E+00 2.948E-01 6.586E+00 6.893E+00 1.377E+01 1.703E+01 7.396E+06 17.3860 1.00000
  6.310E+07 6.310E+07 3.267E+00 3.346E-01 7.416E+00 7.862E+00 1.561E+01 1.888E+01 7.780E+06 17.6162 1.00000
  7.079E+07 7.080E+07 3.281E+00 3.795E-01 8.349E+00 8.969E+00 1.770E+01 2.098E+01 8.167E+06 17.8465 1.00000
  7.943E+07 7.943E+07 3.296E+00 4.304E-01 9.396E+00 1.023E+01 2.006E+01 2.336E+01 8.558E+06 18.0767 1.00000
  8.913E+07 8.913E+07 3.311E+00 4.880E-01 1.057E+01 1.168E+01 2.274E+01 2.605E+01 8.951E+06 18.3070 1.00000
  1.000E+08 1.000E+08 3.326E+00 5.531E-01 1.189E+01 1.333E+01 2.577E+01 2.910E+01 9.347E+06 18.5372 1.00000
  1.122E+08 1.122E+08 3.340E+00 6.267E-01 1.338E+01 1.521E+01 2.921E+01 3.255E+01 9.744E+06 18.7675 1.00000
  1.259E+08 1.259E+08 3.355E+00 7.098E-01 1.504E+01 1.736E+01 3.311E+01 3.647E+01 1.014E+07 18.9977 1.00000
  1.413E+08 1.413E+08 3.370E+00 8.039E-01 1.691E+01 1.981E+01 3.753E+01 4.090E+01 1.054E+07 19.2280 1.00000
  1.585E+08 1.585E+08 3.385E+00 9.101E-01 1.901E+01 2.262E+01 4.254E+01 4.593E+01 1.094E+07 19.4583 1.00000
  1.778E+08 1.778E+08 3.400E+00 1.030E+00 2.137E+01 2.582E+01 4.822E+01 5.162E+01 1.134E+07 19.6885 1.00000
  1.995E+08 1.995E+08 3.415E+00 1.165E+00 2.402E+01 2.948E+01 5.466E+01 5.808E+01 1.173E+07 19.9188 1.00000
  2.239E+08 2.239E+08 3.430E+00 1.318E+00 2.699E+01 3.366E+01 6.197E+01 6.540E+01 1.213E+07 20.1490 1.00000
  2.512E+08 2.512E+08 3.445E+00 1.491E+00 3.032E+01 3.844E+01 7.025E+01 7.370E+01 1.252E+07 20.3793 1.00000
  2.818E+08 2.818E+08 3.461E+00 1.685E+00 3.406E+01 4.390E+01 7.965E+01 8.311E+01 1.292E+07 20.6095 1.00000
  3.162E+08 3.162E+08 3.476E+00 1.905E+00 3.826E+01 5.013E+01 9.030E+01 9.378E+01 1.331E+07 20.8398 1.00000
  3.548E+08 3.548E+08 3.491E+00 2.152E+00 4.298E+01 5.726E+01 1.024E+02 1.059E+02 1.369E+07 21.0701 1.00000
  3.981E+08 3.981E+08 3.507E+00 2.432E+00 4.827E+01 6.540E+01 1.161E+02 1.196E+02 1.408E+07 21.3003 1.00000
  4.467E+08 4.467E+08 3.522E+00 2.746E+00 5.420E+01 7.471E+01 1.317E+02 1.352E+02 1.446E+07 21.5306 1.00000
  5.012E+08 5.012E+08 3.538E+00 3.100E+00 6.087E+01 8.535E+01 1.493E+02 1.529E+02 1.484E+07 21.7608 1.00000
  5.623E+08 5.623E+08 3.554E+00 3.500E+00 6.835E+01 9.750E+01 1.693E+02 1.729E+02 1.522E+07 21.9911 1.00000
  6.310E+08 6.310E+08 3.569E+00 3.949E+00 7.674E+01 1.114E+02 1.921E+02 1.957E+02 1.559E+07 22.2213 1.00000
  7.079E+08 7.079E+08 3.585E+00 4.456E+00 8.615E+01 1.273E+02 2.179E+02 2.215E+02 1.596E+07 22.4516 1.00000
  7.943E+08 7.943E+08 3.601E+00 5.026E+00 9.672E+01 1.454E+02 2.472E+02 2.508E+02 1.633E+07 22.6819 1.00000
  8.913E+08 8.913E+08 3.617E+00 5.668E+00 1.086E+02 1.662E+02 2.804E+02 2.840E+02 1.669E+07 22.9121 1.00000
  1.000E+09 1.000E+09 3.633E+00 6.390E+00 1.219E+02 1.899E+02 3.182E+02 3.218E+02 1.705E+07 23.1424 1.00000
  1.122E+09 1.122E+09 3.649E+00 7.203E+00 1.368E+02 2.170E+02 3.610E+02 3.647E+02 1.741E+07 23.3726 1.00000
  1.259E+09 1.259E+09 3.666E+00 8.117E+00 1.536E+02 2.480E+02 4.097E+02 4.134E+02 1.776E+07 23.6029 1.00000
  1.413E+09 1.413E+09 3.682E+00 9.146E+00 1.724E+02 2.835E+02 4.650E+02 4.687E+02 1.811E+07 23.8331 1.00000
  1.585E+09 1.585E+09 3.698E+00 1.030E+01 1.935E+02 3.240E+02 5.278E+02 5.315E+02 1.846E+07 24.0634 1.00000
  1.778E+09 1.778E+09 3.715E+00 1.160E+01 2.171E+02 3.704E+02 5.991E+02 6.029E+02 1.880E+07 24.2937 1.00000
  1.995E+09 1.995E+09 3.731E+00 1.307E+01 2.437E+02 4.234E+02 6.802E+02 6.839E+02 1.914E+07 24.5239 1.00000
  2.239E+09 2.239E+09 3.748E+00 1.471E+01 2.735E+02 4.841E+02 7.723E+02 7.760E+02 1.948E+07 24.7542 1.00000
  2.512E+09 2.512E+09 3.765E+00 1.656E+01 3.069E+02 5.534E+02 8.769E+02 8.807E+02 1.981E+07 24.9844 1.00000
  2.818E+09 2.818E+09 3.782E+00 1.864E+01 3.445E+02 6.327E+02 9.958E+02 9.996E+02 2.013E+07 25.2147 1.00000
  3.162E+09 3.162E+09 3.799E+00 2.097E+01 3.865E+02 7.235E+02 1.131E+03 1.135E+03 2.046E+07 25.4450 1.00000
  3.548E+09 3.548E+09 3.816E+00 2.360E+01 4.338E+02 8.272E+02 1.285E+03 1.288E+03 2.078E+07 25.6752 1.00000
  3.981E+09 3.981E+09 3.833E+00 2.655E+01 4.868E+02 9.459E+02 1.459E+03 1.463E+03 2.109E+07 25.9055 1.00000
  4.467E+09 4.467E+09 3.850E+00 2.986E+01 5.463E+02 1.082E+03 1.658E+03 1.662E+03 2.141E+07 26.1357 1.00000
  5.012E+09 5.012E+09 3.868E+00 3.358E+01 6.130E+02 1.237E+03 1.884E+03 1.888E+03 2.171E+07 26.3660 1.00000
  5.623E+09 5.623E+09 3.885E+00 3.776E+01 6.878E+02 1.415E+03 2.140E+03 2.144E+03 2.202E+07 26.5962 1.00000
  6.310E+09 6.310E+09 3.903E+00 4.245E+01 7.718E+02 1.618E+03 2.433E+03 2.436E+03 2.232E+07 26.8265 1.00000
  7.079E+09 7.079E+09 3.920E+00 4.772E+01 8.661E+02 1.851E+03 2.765E+03 2.769E+03 2.262E+07 27.0568 1.00000
  7.943E+09 7.943E+09 3.938E+00 5.364E+01 9.718E+02 2.117E+03 3.143E+03 3.147E+03 2.291E+07 27.2870 1.00000
  8.913E+09 8.913E+09 3.956E+00 6.029E+01 1.090E+03 2.422E+03 3.573E+03 3.577E+03 2.320E+07 27.5173 1.00000
  1.000E+10 1.000E+10 3.974E+00 6.776E+01 1.224E+03 2.771E+03 4.062E+03 4.066E+03 2.349E+07 27.7475 1.00000
  1.122E+10 1.122E+10 3.992E+00 7.614E+01 1.373E+03 3.170E+03 4.619E+03 4.623E+03 2.377E+07 27.9778 1.00000
  1.259E+10 1.259E+10 4.010E+00 8.555E+01 1.541E+03 3.627E+03 5.253E+03 5.257E+03 2.405E+07 28.2081 1.00000
  1.413E+10 1.413E+10 4.028E+00 9.611E+01 1.729E+03 4.150E+03 5.974E+03 5.978E+03 2.432E+07 28.4383 1.00000
  1.585E+10 1.585E+10 4.046E+00 1.080E+02 1.940E+03 4.748E+03 6.796E+03 6.800E+03 2.459E+07 28.6686 1.00000
  1.778E+10 1.778E+10 4.065E+00 1.213E+02 2.176E+03 5.433E+03 7.731E+03 7.735E+03 2.486E+07 28.8988 1.00000
  1.995E+10 1.995E+10 4.083E+00 1.362E+02 2.442E+03 6.217E+03 8.796E+03 8.800E+03 2.512E+07 29.1291 1.00000
  2.239E+10 2.239E+10 4.102E+00 1.530E+02 2.740E+03 7.115E+03 1.001E+04 1.001E+04 2.538E+07 29.3594 1.00000
  2.512E+10 2.512E+10 4.121E+00 1.718E+02 3.074E+03 8.143E+03 1.139E+04 1.139E+04 2.564E+07 29.5896 1.00000
  2.818E+10 2.818E+10 4.140E+00 1.929E+02 3.449E+03 9.320E+03 1.296E+04 1.297E+04 2.589E+07 29.8199 1.00000
  3.162E+10 3.162E+10 4.159E+00 2.167E+02 3.870E+03 1.067E+04 1.475E+04 1.476E+04 2.614E+07 30.0501 1.00000
  3.548E+10 3.548E+10 4.178E+00 2.433E+02 4.343E+03 1.221E+04 1.680E+04 1.680E+04 2.639E+07 30.2804 1.00000
  3.981E+10 3.981E+10 4.197E+00 2.732E+02 4.873E+03 1.398E+04 1.912E+04 1.913E+04 2.663E+07 30.5106 1.00000
  4.467E+10 4.467E+10 4.216E+00 3.067E+02 5.467E+03 1.600E+04 2.177E+04 2.178E+04 2.687E+07 30.7409 1.00000
  5.012E+10 5.012E+10 4.236E+00 3.443E+02 6.134E+03 1.832E+04 2.480E+04 2.480E+04 2.710E+07 30.9712 1.00000
  5.623E+10 5.623E+10 4.255E+00 3.865E+02 6.883E+03 2.097E+04 2.824E+04 2.825E+04 2.733E+07 31.2014 1.00000
  6.310E+10 6.310E+10 4.275E+00 4.339E+02 7.722E+03 2.401E+04 3.217E+04 3.217E+04 2.756E+07 31.4317 1.00000
  7.079E+10 7.079E+10 4.295E+00 4.871E+02 8.664E+03 2.749E+04 3.665E+04 3.665E+04 2.779E+07 31.6619 1.00000
  7.943E+10 7.943E+10 4.315E+00 5.467E+02 9.721E+03 3.148E+04 4.175E+04 4.176E+04 2.801E+07 31.8922 1.00000
  8.913E+10 8.913E+10 4.335E+00 6.137E+02 1.091E+04 3.605E+04 4.757E+04 4.758E+04 2.822E+07 32.1225 1.00000
  1.000E+11 1.000E+11 4.355E+00 6.888E+02 1.224E+04 4.129E+04 5.421E+04 5.422E+04 2.844E+07 32.3527 1.00000
  1.122E+11 1.122E+11 4.375E+00 7.731E+02 1.373E+04 4.728E+04 6.179E+04 6.179E+04 2.865E+07 32.5830 1.00000
  1.259E+11 1.259E+11 4.395E+00 8.677E+02 1.541E+04 5.415E+04 7.043E+04 7.043E+04 2.886E+07 32.8132 1.00000
  1.413E+11 1.413E+11 4.416E+00 9.739E+02 1.729E+04 6.202E+04 8.028E+04 8.029E+04 2.906E+07 33.0435 1.00000
  1.585E+11 1.585E+11 4.436E+00 1.093E+03 1.939E+04 7.104E+04 9.153E+04 9.154E+04 2.926E+07 33.2737 1.00000
  1.778E+11 1.778E+11 4.457E+00 1.227E+03 2.176E+04 8.138E+04 1.044E+05 1.044E+05 2.946E+07 33.5040 1.00000
  1.995E+11 1.995E+11 4.478E+00 1.377E+03 2.442E+04 9.322E+04 1.190E+05 1.190E+05 2.966E+07 33.7343 1.00000
  2.239E+11 2.239E+11 4.498E+00 1.545E+03 2.739E+04 1.068E+05 1.357E+05 1.357E+05 2.985E+07 33.9645 1.00000
  2.512E+11 2.512E+11 4.519E+00 1.734E+03 3.074E+04 1.224E+05 1.548E+05 1.548E+05 3.004E+07 34.1948 1.00000
  2.818E+11 2.818E+11 4.541E+00 1.946E+03 3.448E+04 1.402E+05 1.766E+05 1.766E+05 3.022E+07 34.4250 1.00000
  3.162E+11 3.162E+11 4.562E+00 2.183E+03 3.869E+04 1.606E+05 2.015E+05 2.015E+05 3.041E+07 34.6553 1.00000
  3.548E+11 3.548E+11 4.583E+00 2.450E+03 4.341E+04 1.840E+05 2.299E+05 2.299E+05 3.059E+07 34.8856 1.00000
  3.981E+11 3.981E+11 4.605E+00 2.749E+03 4.871E+04 2.109E+05 2.624E+05 2.624E+05 3.076E+07 35.1158 1.00000
  4.467E+11 4.467E+11 4.626E+00 3.085E+03 5.465E+04 2.417E+05 2.994E+05 2.994E+05 3.094E+07 35.3461 1.00000
  5.012E+11 5.012E+11 4.648E+00 3.462E+03 6.131E+04 2.770E+05 3.417E+05 3.417E+05 3.111E+07 35.5763 1.00000
  5.623E+11 5.623E+11 4.670E+00 3.885E+03 6.879E+04 3.174E+05 3.901E+05 3.901E+05 3.128E+07 35.8066 1.00000
  6.310E+11 6.310E+11 4.692E+00 4.359E+03 7.718E+04 3.638E+05 4.454E+05 4.454E+05 3.144E+07 36.0368 1.00000
  7.079E+11 7.079E+11 4.714E+00 4.892E+03 8.660E+04 4.170E+05 5.085E+05 5.085E+05 3.160E+07 36.2671 1.00000
  7.943E+11 7.943E+11 4.736E+00 5.489E+03 9.716E+04 4.780E+05 5.806E+05 5.806E+05 3.176E+07 36.4974 1.00000
  8.913E+11 8.913E+11 4.758E+00 6.159E+03 1.090E+05 5.479E+05 6.631E+05 6.631E+05 3.192E+07 36.7276 1.00000
  1.000E+12 1.000E+12 4.781E+00 6.911E+03 1.223E+05 6.281E+05 7.573E+05 7.573E+05 3.207E+07 36.9579 1.00000
  1.122E+12 1.122E+12 4.803E+00 7.755E+03 1.372E+05 7.201E+05 8.651E+05 8.651E+05 3.222E+07 37.1881 1.00000
  1.259E+12 1.259E+12 4.826E+00 8.701E+03 1.540E+05 8.256E+05 9.882E+05 9.882E+05 3.237E+07 37.4184 1.00000
  1.413E+12 1.413E+12 4.849E+00 9.763E+03 1.727E+05 9.466E+05 1.129E+06 1.129E+06 3.252E+07 37.6487 1.00000
  1.585E+12 1.585E+12 4.872E+00 1.096E+04 1.938E+05 1.085E+06 1.290E+06 1.290E+06 3.266E+07 37.8789 1.00000
  1.778E+12 1.778E+12 4.895E+00 1.229E+04 2.175E+05 1.244E+06 1.474E+06 1.474E+06 3.280E+07 38.1092 1.00000
  1.995E+12 1.995E+12 4.918E+00 1.379E+04 2.440E+05 1.427E+06 1.685E+06 1.685E+06 3.294E+07 38.3394 1.00000
  2.239E+12 2.239E+12 4.942E+00 1.548E+04 2.737E+05 1.637E+06 1.926E+06 1.926E+06 3.308E+07 38.5697 1.00000
  2.512E+12 2.512E+12 4.965E+00 1.737E+04 3.071E+05 1.877E+06 2.201E+06 2.201E+06 3.321E+07 38.7999 1.00000
  2.818E+12 2.818E+12 4.989E+00 1.948E+04 3.446E+05 2.153E+06 2.517E+06 2.517E+06 3.334E+07 39.0302 1.00000
  3.162E+12 3.162E+12 5.012E+00 2.186E+04 3.866E+05 2.469E+06 2.877E+06 2.877E+06 3.347E+07 39.2605 1.00000
  3.548E+12 3.548E+12 5.036E+00 2.453E+04 4.338E+05 2.832E+06 3.290E+06 3.290E+06 3.359E+07 39.4907 1.00000
  3.981E+12 3.981E+12 5.060E+00 2.752E+04 4.867E+05 3.248E+06 3.762E+06 3.763E+06 3.372E+07 39.7210 1.00000
  4.467E+12 4.467E+12 5.084E+00 3.088E+04 5.461E+05 3.726E+06 4.303E+06 4.303E+06 3.384E+07 39.9512 1.00000
  5.012E+12 5.012E+12 5.109E+00 3.465E+04 6.127E+05 4.275E+06 4.922E+06 4.922E+06 3.396E+07 40.1815 1.00000
  5.623E+12 5.623E+12 5.133E+00 3.888E+04 6.874E+05 4.904E+06 5.630E+06 5.630E+06 3.407E+07 40.4118 1.00000
  6.310E+12 6.310E+12 5.158E+00 4.362E+04 7.712E+05 5.626E+06 6.441E+06 6.441E+06 3.419E+07 40.6420 1.00000
  7.079E+12 7.079E+12 5.182E+00 4.895E+04 8.653E+05 6.455E+06 7.370E+06 7.370E+06 3.430E+07 40.8723 1.00000
  7.943E+12 7.943E+12 5.207E+00 5.492E+04 9.708E+05 7.407E+06 8.433E+06 8.433E+06 3.441E+07 41.1025 1.00000
  8.913E+12 8.913E+12 5.232E+00 6.162E+04 1.089E+06 8.499E+06 9.650E+06 9.650E+06 3.452E+07 41.3328 1.00000
  1.000E+13 1.000E+13 5.257E+00 6.914E+04 1.222E+06 9.753E+06 1.104E+07 1.104E+07 3.462E+07 41.5631 1.00000
  1.122E+13 1.122E+13 5.282E+00 7.758E+04 1.371E+06 1.119E+07 1.264E+07 1.264E+07 3.472E+07 41.7933 1.00000
  1.259E+13 1.259E+13 5.308E+00 8.705E+04 1.538E+06 1.284E+07 1.447E+07 1.447E+07 3.483E+07 42.0236 1.00000
  1.413E+13 1.413E+13 5.333E+00 9.767E+04 1.726E+06 1.474E+07 1.656E+07 1.656E+07 3.493E+07 42.2538 1.00000
  1.585E+13 1.585E+13 5.359E+00 1.096E+05 1.936E+06 1.692E+07 1.897E+07 1.897E+07 3.502E+07 42.4841 1.00000
  1.778E+13 1.778E+13 5.384E+00 1.230E+05 2.173E+06 1.942E+07 2.172E+07 2.172E+07 3.512E+07 42.7143 1.00000
  1.995E+13 1.995E+13 5.410E+00 1.380E+05 2.438E+06 2.229E+07 2.487E+07 2.487E+07 3.521E+07 42.9446 1.00000
  2.239E+13 2.239E+13 5.436E+00 1.548E+05 2.735E+06 2.559E+07 2.848E+07 2.848E+07 3.530E+07 43.1749 1.00000
  2.512E+13 2.512E+13 5.463E+00 1.737E+05 3.068E+06 2.937E+07 3.262E+07 3.262E+07 3.539E+07 43.4051 1.00000
  2.818E+13 2.818E+13 5.489E+00 1.949E+05 3.443E+06 3.372E+07 3.736E+07 3.736E+07 3.548E+07 43.6354 1.00000
  3.162E+13 3.162E+13 5.515E+00 2.187E+05 3.862E+06 3.872E+07 4.280E+07 4.280E+07 3.557E+07 43.8656 1.00000
  3.548E+13 3.548E+13 5.542E+00 2.453E+05 4.334E+06 4.445E+07 4.903E+07 4.903E+07 3.565E+07 44.0959 1.00000
  3.981E+13 3.981E+13 5.569E+00 2.753E+05 4.862E+06 5.104E+07 5.617E+07 5.617E+07 3.573E+07 44.3262 1.00000
  4.467E+13 4.467E+13 5.596E+00 3.089E+05 5.455E+06 5.860E+07 6.437E+07 6.437E+07 3.582E+07 44.5564 1.00000
  5.012E+13 5.012E+13 5.623E+00 3.466E+05 6.120E+06 6.729E+07 7.376E+07 7.376E+07 3.590E+07 44.7867 1.00000
  5.623E+13 5.623E+13 5.650E+00 3.888E+05 6.867E+06 7.727E+07 8.453E+07 8.453E+07 3.597E+07 45.0169 1.00000
  6.310E+13 6.310E+13 5.677E+00 4.363E+05 7.704E+06 8.874E+07 9.688E+07 9.688E+07 3.605E+07 45.2472 1.00000
  7.079E+13 7.079E+13 5.705E+00 4.895E+05 8.644E+06 1.019E+08 1.110E+08 1.110E+08 3.612E+07 45.4774 1.00000
  7.943E+13 7.943E+13 5.732E+00 5.493E+05 9.698E+06 1.171E+08 1.273E+08 1.273E+08 3.620E+07 45.7077 1.00000
  8.913E+13 8.913E+13 5.760E+00 6.163E+05 1.088E+07 1.344E+08 1.459E+08 1.459E+08 3.627E+07 45.9380 1.00000
