 Incident particle is a Tau with M = 1776.82000 MeV
 Index = 0: CorticalBone
      Absorber with <Z/A> = 0.52127
 Sternheimer coef:  a     k=m_s   x_0    x_1    I[eV]   Cbar  delta0
                 0.0620  3.5919  0.1161  3.0919  106.4  3.6488 0.00

 *** Table generated with PUMAS v1.00 ***

      T         p     Ionization  brems     pair     photonuc  Radloss    dE/dx   CSDA Range  delta   beta
    [MeV]    [MeV/c]  -----------------------[MeV cm^2/g]------------------------  [g/cm^2]
  1.000E+05 1.018E+05 2.245E+00 2.022E-04 3.200E-03 8.250E-03 1.165E-02 2.257E+00 2.216E+04  4.6213 0.99985
  1.122E+05 1.140E+05 2.266E+00 2.337E-04 3.852E-03 9.311E-03 1.340E-02 2.279E+00 2.754E+04  4.8258 0.99988
  1.259E+05 1.277E+05 2.286E+00 2.701E-04 4.621E-03 1.045E-02 1.534E-02 2.301E+00 3.351E+04  5.0328 0.99990
  1.413E+05 1.430E+05 2.306E+00 3.119E-04 5.527E-03 1.174E-02 1.758E-02 2.324E+00 4.016E+04  5.2420 0.99992
  1.585E+05 1.603E+05 2.326E+00 3.600E-04 6.590E-03 1.317E-02 2.012E-02 2.346E+00 4.754E+04  5.4533 0.99994
  1.778E+05 1.796E+05 2.346E+00 4.153E-04 7.837E-03 1.478E-02 2.303E-02 2.369E+00 5.574E+04  5.6667 0.99995
  1.995E+05 2.013E+05 2.366E+00 4.788E-04 9.296E-03 1.661E-02 2.638E-02 2.393E+00 6.485E+04  5.8819 0.99996
  2.239E+05 2.256E+05 2.386E+00 5.519E-04 1.100E-02 1.860E-02 3.016E-02 2.416E+00 7.498E+04  6.0988 0.99997
  2.512E+05 2.530E+05 2.406E+00 6.358E-04 1.299E-02 2.084E-02 3.446E-02 2.440E+00 8.623E+04  6.3174 0.99998
  2.818E+05 2.836E+05 2.426E+00 7.321E-04 1.530E-02 2.336E-02 3.939E-02 2.465E+00 9.873E+04  6.5373 0.99998
  3.162E+05 3.180E+05 2.445E+00 8.426E-04 1.798E-02 2.621E-02 4.503E-02 2.490E+00 1.126E+05  6.7587 0.99998
  3.548E+05 3.566E+05 2.465E+00 9.693E-04 2.109E-02 2.940E-02 5.146E-02 2.516E+00 1.280E+05  6.9812 0.99999
  3.981E+05 3.999E+05 2.484E+00 1.115E-03 2.469E-02 3.297E-02 5.877E-02 2.543E+00 1.451E+05  7.2049 0.99999
  4.467E+05 4.485E+05 2.503E+00 1.281E-03 2.886E-02 3.696E-02 6.710E-02 2.570E+00 1.641E+05  7.4295 0.99999
  5.012E+05 5.030E+05 2.522E+00 1.472E-03 3.367E-02 4.146E-02 7.660E-02 2.599E+00 1.852E+05  7.6551 0.99999
  5.623E+05 5.641E+05 2.541E+00 1.691E-03 3.921E-02 4.633E-02 8.723E-02 2.629E+00 2.086E+05  7.8814 1.00000
  6.310E+05 6.327E+05 2.560E+00 1.941E-03 4.559E-02 5.181E-02 9.935E-02 2.660E+00 2.346E+05  8.1084 1.00000
  7.079E+05 7.097E+05 2.579E+00 2.228E-03 5.294E-02 5.800E-02 1.132E-01 2.693E+00 2.633E+05  8.3361 1.00000
  7.943E+05 7.961E+05 2.598E+00 2.556E-03 6.137E-02 6.499E-02 1.289E-01 2.727E+00 2.952E+05  8.5643 1.00000
  8.913E+05 8.930E+05 2.617E+00 2.931E-03 7.105E-02 7.289E-02 1.469E-01 2.764E+00 3.305E+05  8.7929 1.00000
  1.000E+06 1.002E+06 2.635E+00 3.360E-03 8.213E-02 8.182E-02 1.673E-01 2.803E+00 3.696E+05  9.0219 1.00000
  1.122E+06 1.124E+06 2.654E+00 3.850E-03 9.482E-02 9.192E-02 1.906E-01 2.844E+00 4.128E+05  9.2512 1.00000
  1.259E+06 1.261E+06 2.672E+00 4.411E-03 1.093E-01 1.034E-01 2.171E-01 2.889E+00 4.606E+05  9.4808 1.00000
  1.413E+06 1.414E+06 2.690E+00 5.052E-03 1.259E-01 1.163E-01 2.473E-01 2.938E+00 5.133E+05  9.7105 1.00000
  1.585E+06 1.587E+06 2.708E+00 5.784E-03 1.448E-01 1.310E-01 2.817E-01 2.990E+00 5.715E+05  9.9404 1.00000
  1.778E+06 1.780E+06 2.726E+00 6.619E-03 1.664E-01 1.477E-01 3.207E-01 3.047E+00 6.355E+05 10.1704 1.00000
  1.995E+06 1.997E+06 2.744E+00 7.574E-03 1.910E-01 1.667E-01 3.652E-01 3.109E+00 7.060E+05 10.4004 1.00000
  2.239E+06 2.240E+06 2.762E+00 8.663E-03 2.189E-01 1.881E-01 4.157E-01 3.178E+00 7.835E+05 10.6305 1.00000
  2.512E+06 2.514E+06 2.779E+00 9.907E-03 2.507E-01 2.126E-01 4.732E-01 3.253E+00 8.685E+05 10.8605 1.00000
  2.818E+06 2.820E+06 2.797E+00 1.132E-02 2.868E-01 2.403E-01 5.385E-01 3.335E+00 9.615E+05 11.0906 1.00000
  3.162E+06 3.164E+06 2.814E+00 1.294E-02 3.278E-01 2.719E-01 6.126E-01 3.427E+00 1.063E+06 11.3208 1.00000
  3.548E+06 3.550E+06 2.831E+00 1.479E-02 3.743E-01 3.078E-01 6.968E-01 3.528E+00 1.174E+06 11.5509 1.00000
  3.981E+06 3.983E+06 2.848E+00 1.689E-02 4.269E-01 3.486E-01 7.924E-01 3.640E+00 1.295E+06 11.7811 1.00000
  4.467E+06 4.469E+06 2.865E+00 1.929E-02 4.866E-01 3.951E-01 9.010E-01 3.766E+00 1.426E+06 12.0112 1.00000
  5.012E+06 5.014E+06 2.881E+00 2.202E-02 5.541E-01 4.480E-01 1.024E+00 3.905E+00 1.568E+06 12.2414 1.00000
  5.623E+06 5.625E+06 2.898E+00 2.513E-02 6.305E-01 5.082E-01 1.164E+00 4.061E+00 1.722E+06 12.4716 1.00000
  6.310E+06 6.311E+06 2.914E+00 2.867E-02 7.169E-01 5.769E-01 1.322E+00 4.236E+00 1.887E+06 12.7018 1.00000
  7.079E+06 7.081E+06 2.930E+00 3.270E-02 8.144E-01 6.550E-01 1.502E+00 4.432E+00 2.065E+06 12.9320 1.00000
  7.943E+06 7.945E+06 2.946E+00 3.728E-02 9.246E-01 7.441E-01 1.706E+00 4.652E+00 2.256E+06 13.1622 1.00000
  8.913E+06 8.914E+06 2.962E+00 4.250E-02 1.049E+00 8.455E-01 1.937E+00 4.899E+00 2.459E+06 13.3924 1.00000
  1.000E+07 1.000E+07 2.977E+00 4.844E-02 1.189E+00 9.612E-01 2.199E+00 5.176E+00 2.675E+06 13.6226 1.00000
  1.122E+07 1.122E+07 2.993E+00 5.519E-02 1.348E+00 1.093E+00 2.496E+00 5.488E+00 2.904E+06 13.8528 1.00000
  1.259E+07 1.259E+07 3.008E+00 6.286E-02 1.526E+00 1.243E+00 2.832E+00 5.840E+00 3.146E+06 14.0830 1.00000
  1.413E+07 1.413E+07 3.023E+00 7.158E-02 1.727E+00 1.415E+00 3.213E+00 6.236E+00 3.400E+06 14.3133 1.00000
  1.585E+07 1.585E+07 3.038E+00 8.148E-02 1.953E+00 1.610E+00 3.645E+00 6.683E+00 3.667E+06 14.5435 1.00000
  1.778E+07 1.778E+07 3.053E+00 9.273E-02 2.208E+00 1.833E+00 4.134E+00 7.188E+00 3.947E+06 14.7737 1.00000
  1.995E+07 1.995E+07 3.068E+00 1.055E-01 2.496E+00 2.088E+00 4.689E+00 7.757E+00 4.237E+06 15.0040 1.00000
  2.239E+07 2.239E+07 3.083E+00 1.200E-01 2.819E+00 2.378E+00 5.316E+00 8.399E+00 4.539E+06 15.2342 1.00000
  2.512E+07 2.512E+07 3.097E+00 1.364E-01 3.182E+00 2.709E+00 6.027E+00 9.125E+00 4.852E+06 15.4644 1.00000
  2.818E+07 2.819E+07 3.112E+00 1.551E-01 3.591E+00 3.086E+00 6.833E+00 9.945E+00 5.174E+06 15.6947 1.00000
  3.162E+07 3.162E+07 3.127E+00 1.763E-01 4.051E+00 3.518E+00 7.745E+00 1.087E+01 5.505E+06 15.9249 1.00000
  3.548E+07 3.548E+07 3.141E+00 2.003E-01 4.568E+00 4.009E+00 8.778E+00 1.192E+01 5.844E+06 16.1552 1.00000
  3.981E+07 3.981E+07 3.156E+00 2.275E-01 5.149E+00 4.571E+00 9.948E+00 1.310E+01 6.191E+06 16.3854 1.00000
  4.467E+07 4.467E+07 3.170E+00 2.583E-01 5.802E+00 5.212E+00 1.127E+01 1.444E+01 6.544E+06 16.6157 1.00000
  5.012E+07 5.012E+07 3.185E+00 2.932E-01 6.537E+00 5.943E+00 1.277E+01 1.596E+01 6.904E+06 16.8459 1.00000
  5.623E+07 5.624E+07 3.199E+00 3.327E-01 7.361E+00 6.778E+00 1.447E+01 1.767E+01 7.269E+06 17.0762 1.00000
  6.310E+07 6.310E+07 3.214E+00 3.774E-01 8.288E+00 7.732E+00 1.640E+01 1.961E+01 7.638E+06 17.3064 1.00000
  7.079E+07 7.080E+07 3.228E+00 4.280E-01 9.329E+00 8.820E+00 1.858E+01 2.181E+01 8.010E+06 17.5367 1.00000
  7.943E+07 7.943E+07 3.243E+00 4.853E-01 1.050E+01 1.006E+01 2.105E+01 2.429E+01 8.386E+06 17.7669 1.00000
  8.913E+07 8.913E+07 3.257E+00 5.501E-01 1.181E+01 1.148E+01 2.384E+01 2.710E+01 8.765E+06 17.9972 1.00000
  1.000E+08 1.000E+08 3.272E+00 6.233E-01 1.329E+01 1.310E+01 2.701E+01 3.029E+01 9.145E+06 18.2274 1.00000
  1.122E+08 1.122E+08 3.286E+00 7.061E-01 1.494E+01 1.495E+01 3.060E+01 3.389E+01 9.526E+06 18.4577 1.00000
  1.259E+08 1.259E+08 3.301E+00 7.996E-01 1.680E+01 1.707E+01 3.467E+01 3.797E+01 9.909E+06 18.6879 1.00000
  1.413E+08 1.413E+08 3.316E+00 9.053E-01 1.889E+01 1.948E+01 3.928E+01 4.259E+01 1.029E+07 18.9182 1.00000
  1.585E+08 1.585E+08 3.330E+00 1.025E+00 2.123E+01 2.224E+01 4.450E+01 4.783E+01 1.067E+07 19.1485 1.00000
  1.778E+08 1.778E+08 3.345E+00 1.159E+00 2.386E+01 2.539E+01 5.042E+01 5.376E+01 1.106E+07 19.3787 1.00000
  1.995E+08 1.995E+08 3.360E+00 1.312E+00 2.682E+01 2.899E+01 5.712E+01 6.048E+01 1.144E+07 19.6090 1.00000
  2.239E+08 2.239E+08 3.375E+00 1.483E+00 3.013E+01 3.310E+01 6.472E+01 6.809E+01 1.182E+07 19.8392 1.00000
  2.512E+08 2.512E+08 3.390E+00 1.677E+00 3.385E+01 3.780E+01 7.333E+01 7.672E+01 1.220E+07 20.0695 1.00000
  2.818E+08 2.818E+08 3.405E+00 1.896E+00 3.803E+01 4.317E+01 8.309E+01 8.650E+01 1.257E+07 20.2997 1.00000
  3.162E+08 3.162E+08 3.420E+00 2.142E+00 4.272E+01 4.930E+01 9.416E+01 9.758E+01 1.295E+07 20.5300 1.00000
  3.548E+08 3.548E+08 3.435E+00 2.420E+00 4.798E+01 5.631E+01 1.067E+02 1.101E+02 1.332E+07 20.7603 1.00000
  3.981E+08 3.981E+08 3.450E+00 2.733E+00 5.388E+01 6.431E+01 1.209E+02 1.244E+02 1.369E+07 20.9905 1.00000
  4.467E+08 4.467E+08 3.465E+00 3.086E+00 6.051E+01 7.347E+01 1.371E+02 1.405E+02 1.406E+07 21.2208 1.00000
  5.012E+08 5.012E+08 3.481E+00 3.483E+00 6.795E+01 8.392E+01 1.554E+02 1.588E+02 1.442E+07 21.4510 1.00000
  5.623E+08 5.623E+08 3.496E+00 3.931E+00 7.629E+01 9.588E+01 1.761E+02 1.796E+02 1.479E+07 21.6813 1.00000
  6.310E+08 6.310E+08 3.511E+00 4.435E+00 8.566E+01 1.095E+02 1.996E+02 2.031E+02 1.515E+07 21.9115 1.00000
  7.079E+08 7.079E+08 3.527E+00 5.003E+00 9.617E+01 1.252E+02 2.263E+02 2.299E+02 1.550E+07 22.1418 1.00000
  7.943E+08 7.943E+08 3.543E+00 5.642E+00 1.080E+02 1.430E+02 2.566E+02 2.601E+02 1.586E+07 22.3721 1.00000
  8.913E+08 8.913E+08 3.558E+00 6.361E+00 1.212E+02 1.634E+02 2.910E+02 2.945E+02 1.621E+07 22.6023 1.00000
  1.000E+09 1.000E+09 3.574E+00 7.170E+00 1.360E+02 1.867E+02 3.300E+02 3.335E+02 1.656E+07 22.8326 1.00000
  1.122E+09 1.122E+09 3.590E+00 8.081E+00 1.527E+02 2.134E+02 3.742E+02 3.778E+02 1.690E+07 23.0628 1.00000
  1.259E+09 1.259E+09 3.606E+00 9.105E+00 1.714E+02 2.439E+02 4.244E+02 4.280E+02 1.724E+07 23.2931 1.00000
  1.413E+09 1.413E+09 3.622E+00 1.026E+01 1.924E+02 2.788E+02 4.814E+02 4.850E+02 1.758E+07 23.5233 1.00000
  1.585E+09 1.585E+09 3.638E+00 1.155E+01 2.159E+02 3.186E+02 5.461E+02 5.498E+02 1.791E+07 23.7536 1.00000
  1.778E+09 1.778E+09 3.655E+00 1.301E+01 2.423E+02 3.642E+02 6.196E+02 6.232E+02 1.825E+07 23.9839 1.00000
  1.995E+09 1.995E+09 3.671E+00 1.465E+01 2.720E+02 4.164E+02 7.030E+02 7.067E+02 1.857E+07 24.2141 1.00000
  2.239E+09 2.239E+09 3.687E+00 1.649E+01 3.052E+02 4.760E+02 7.977E+02 8.014E+02 1.890E+07 24.4444 1.00000
  2.512E+09 2.512E+09 3.704E+00 1.856E+01 3.426E+02 5.442E+02 9.053E+02 9.090E+02 1.922E+07 24.6746 1.00000
  2.818E+09 2.818E+09 3.720E+00 2.088E+01 3.844E+02 6.222E+02 1.027E+03 1.031E+03 1.953E+07 24.9049 1.00000
  3.162E+09 3.162E+09 3.737E+00 2.350E+01 4.314E+02 7.114E+02 1.166E+03 1.170E+03 1.985E+07 25.1352 1.00000
  3.548E+09 3.548E+09 3.754E+00 2.643E+01 4.841E+02 8.134E+02 1.324E+03 1.328E+03 2.016E+07 25.3654 1.00000
  3.981E+09 3.981E+09 3.771E+00 2.973E+01 5.433E+02 9.302E+02 1.503E+03 1.507E+03 2.047E+07 25.5957 1.00000
  4.467E+09 4.467E+09 3.788E+00 3.343E+01 6.096E+02 1.064E+03 1.707E+03 1.711E+03 2.077E+07 25.8259 1.00000
  5.012E+09 5.012E+09 3.805E+00 3.760E+01 6.841E+02 1.216E+03 1.938E+03 1.942E+03 2.107E+07 26.0562 1.00000
  5.623E+09 5.623E+09 3.822E+00 4.227E+01 7.676E+02 1.391E+03 2.201E+03 2.205E+03 2.136E+07 26.2864 1.00000
  6.310E+09 6.310E+09 3.839E+00 4.752E+01 8.614E+02 1.591E+03 2.500E+03 2.504E+03 2.166E+07 26.5167 1.00000
  7.079E+09 7.079E+09 3.856E+00 5.342E+01 9.666E+02 1.820E+03 2.840E+03 2.844E+03 2.195E+07 26.7470 1.00000
  7.943E+09 7.943E+09 3.874E+00 6.004E+01 1.085E+03 2.082E+03 3.227E+03 3.230E+03 2.223E+07 26.9772 1.00000
  8.913E+09 8.913E+09 3.891E+00 6.747E+01 1.217E+03 2.382E+03 3.666E+03 3.670E+03 2.251E+07 27.2075 1.00000
  1.000E+10 1.000E+10 3.909E+00 7.581E+01 1.366E+03 2.725E+03 4.166E+03 4.170E+03 2.279E+07 27.4377 1.00000
  1.122E+10 1.122E+10 3.927E+00 8.518E+01 1.532E+03 3.117E+03 4.734E+03 4.738E+03 2.307E+07 27.6680 1.00000
  1.259E+10 1.259E+10 3.945E+00 9.570E+01 1.719E+03 3.566E+03 5.381E+03 5.385E+03 2.334E+07 27.8983 1.00000
  1.413E+10 1.413E+10 3.963E+00 1.075E+02 1.929E+03 4.080E+03 6.117E+03 6.121E+03 2.361E+07 28.1285 1.00000
  1.585E+10 1.585E+10 3.981E+00 1.208E+02 2.165E+03 4.669E+03 6.954E+03 6.958E+03 2.387E+07 28.3588 1.00000
  1.778E+10 1.778E+10 3.999E+00 1.356E+02 2.429E+03 5.342E+03 7.907E+03 7.911E+03 2.413E+07 28.5890 1.00000
  1.995E+10 1.995E+10 4.017E+00 1.523E+02 2.725E+03 6.114E+03 8.991E+03 8.995E+03 2.439E+07 28.8193 1.00000
  2.239E+10 2.239E+10 4.035E+00 1.711E+02 3.058E+03 6.996E+03 1.023E+04 1.023E+04 2.465E+07 29.0496 1.00000
  2.512E+10 2.512E+10 4.054E+00 1.921E+02 3.431E+03 8.007E+03 1.163E+04 1.163E+04 2.490E+07 29.2798 1.00000
  2.818E+10 2.818E+10 4.072E+00 2.158E+02 3.850E+03 9.164E+03 1.323E+04 1.323E+04 2.514E+07 29.5101 1.00000
  3.162E+10 3.162E+10 4.091E+00 2.423E+02 4.319E+03 1.049E+04 1.505E+04 1.506E+04 2.539E+07 29.7403 1.00000
  3.548E+10 3.548E+10 4.110E+00 2.720E+02 4.846E+03 1.201E+04 1.713E+04 1.713E+04 2.563E+07 29.9706 1.00000
  3.981E+10 3.981E+10 4.129E+00 3.054E+02 5.438E+03 1.374E+04 1.949E+04 1.949E+04 2.587E+07 30.2008 1.00000
  4.467E+10 4.467E+10 4.148E+00 3.429E+02 6.101E+03 1.573E+04 2.218E+04 2.218E+04 2.610E+07 30.4311 1.00000
  5.012E+10 5.012E+10 4.167E+00 3.849E+02 6.845E+03 1.801E+04 2.524E+04 2.525E+04 2.633E+07 30.6614 1.00000
  5.623E+10 5.623E+10 4.186E+00 4.321E+02 7.681E+03 2.062E+04 2.874E+04 2.874E+04 2.656E+07 30.8916 1.00000
  6.310E+10 6.310E+10 4.205E+00 4.850E+02 8.618E+03 2.361E+04 3.271E+04 3.272E+04 2.678E+07 31.1219 1.00000
  7.079E+10 7.079E+10 4.225E+00 5.444E+02 9.669E+03 2.704E+04 3.725E+04 3.725E+04 2.700E+07 31.3521 1.00000
  7.943E+10 7.943E+10 4.244E+00 6.111E+02 1.085E+04 3.096E+04 4.242E+04 4.242E+04 2.722E+07 31.5824 1.00000
  8.913E+10 8.913E+10 4.264E+00 6.859E+02 1.217E+04 3.545E+04 4.831E+04 4.831E+04 2.744E+07 31.8127 1.00000
  1.000E+11 1.000E+11 4.284E+00 7.699E+02 1.366E+04 4.060E+04 5.502E+04 5.503E+04 2.765E+07 32.0429 1.00000
  1.122E+11 1.122E+11 4.304E+00 8.641E+02 1.532E+04 4.649E+04 6.268E+04 6.268E+04 2.786E+07 32.2732 1.00000
  1.259E+11 1.259E+11 4.324E+00 9.698E+02 1.719E+04 5.325E+04 7.141E+04 7.142E+04 2.806E+07 32.5034 1.00000
  1.413E+11 1.413E+11 4.344E+00 1.088E+03 1.929E+04 6.099E+04 8.137E+04 8.137E+04 2.826E+07 32.7337 1.00000
  1.585E+11 1.585E+11 4.364E+00 1.222E+03 2.164E+04 6.986E+04 9.272E+04 9.273E+04 2.846E+07 32.9639 1.00000
  1.778E+11 1.778E+11 4.384E+00 1.371E+03 2.428E+04 8.002E+04 1.057E+05 1.057E+05 2.866E+07 33.1942 1.00000
  1.995E+11 1.995E+11 4.405E+00 1.538E+03 2.725E+04 9.167E+04 1.205E+05 1.205E+05 2.885E+07 33.4245 1.00000
  2.239E+11 2.239E+11 4.425E+00 1.727E+03 3.057E+04 1.050E+05 1.373E+05 1.373E+05 2.904E+07 33.6547 1.00000
  2.512E+11 2.512E+11 4.446E+00 1.938E+03 3.430E+04 1.203E+05 1.565E+05 1.566E+05 2.923E+07 33.8850 1.00000
  2.818E+11 2.818E+11 4.467E+00 2.174E+03 3.848E+04 1.378E+05 1.785E+05 1.785E+05 2.941E+07 34.1152 1.00000
  3.162E+11 3.162E+11 4.487E+00 2.440E+03 4.318E+04 1.579E+05 2.036E+05 2.036E+05 2.959E+07 34.3455 1.00000
  3.548E+11 3.548E+11 4.508E+00 2.738E+03 4.844E+04 1.810E+05 2.322E+05 2.322E+05 2.977E+07 34.5758 1.00000
  3.981E+11 3.981E+11 4.530E+00 3.072E+03 5.435E+04 2.074E+05 2.648E+05 2.648E+05 2.994E+07 34.8060 1.00000
  4.467E+11 4.467E+11 4.551E+00 3.448E+03 6.098E+04 2.376E+05 3.021E+05 3.021E+05 3.012E+07 35.0363 1.00000
  5.012E+11 5.012E+11 4.572E+00 3.869E+03 6.842E+04 2.723E+05 3.446E+05 3.446E+05 3.028E+07 35.2665 1.00000
  5.623E+11 5.623E+11 4.594E+00 4.341E+03 7.677E+04 3.121E+05 3.932E+05 3.932E+05 3.045E+07 35.4968 1.00000
  6.310E+11 6.310E+11 4.615E+00 4.871E+03 8.613E+04 3.577E+05 4.487E+05 4.487E+05 3.062E+07 35.7270 1.00000
  7.079E+11 7.079E+11 4.637E+00 5.466E+03 9.664E+04 4.100E+05 5.121E+05 5.121E+05 3.078E+07 35.9573 1.00000
  7.943E+11 7.943E+11 4.659E+00 6.133E+03 1.084E+05 4.700E+05 5.846E+05 5.846E+05 3.093E+07 36.1876 1.00000
  8.913E+11 8.913E+11 4.681E+00 6.882E+03 1.217E+05 5.388E+05 6.673E+05 6.673E+05 3.109E+07 36.4178 1.00000
  1.000E+12 1.000E+12 4.703E+00 7.722E+03 1.365E+05 6.176E+05 7.619E+05 7.619E+05 3.124E+07 36.6481 1.00000
  1.122E+12 1.122E+12 4.725E+00 8.665E+03 1.531E+05 7.081E+05 8.699E+05 8.699E+05 3.139E+07 36.8783 1.00000
  1.259E+12 1.259E+12 4.747E+00 9.723E+03 1.718E+05 8.118E+05 9.933E+05 9.933E+05 3.154E+07 37.1086 1.00000
  1.413E+12 1.413E+12 4.770E+00 1.091E+04 1.928E+05 9.308E+05 1.134E+06 1.134E+06 3.169E+07 37.3389 1.00000
  1.585E+12 1.585E+12 4.792E+00 1.224E+04 2.163E+05 1.067E+06 1.296E+06 1.296E+06 3.183E+07 37.5691 1.00000
  1.778E+12 1.778E+12 4.815E+00 1.374E+04 2.427E+05 1.224E+06 1.480E+06 1.480E+06 3.197E+07 37.7994 1.00000
  1.995E+12 1.995E+12 4.838E+00 1.541E+04 2.723E+05 1.403E+06 1.691E+06 1.691E+06 3.211E+07 38.0296 1.00000
  2.239E+12 2.239E+12 4.861E+00 1.729E+04 3.055E+05 1.609E+06 1.932E+06 1.932E+06 3.224E+07 38.2599 1.00000
  2.512E+12 2.512E+12 4.884E+00 1.940E+04 3.428E+05 1.846E+06 2.208E+06 2.208E+06 3.237E+07 38.4901 1.00000
  2.818E+12 2.818E+12 4.907E+00 2.177E+04 3.846E+05 2.117E+06 2.523E+06 2.523E+06 3.250E+07 38.7204 1.00000
  3.162E+12 3.162E+12 4.931E+00 2.443E+04 4.315E+05 2.428E+06 2.884E+06 2.884E+06 3.263E+07 38.9507 1.00000
  3.548E+12 3.548E+12 4.954E+00 2.741E+04 4.841E+05 2.785E+06 3.296E+06 3.296E+06 3.276E+07 39.1809 1.00000
  3.981E+12 3.981E+12 4.978E+00 3.075E+04 5.431E+05 3.194E+06 3.768E+06 3.768E+06 3.288E+07 39.4112 1.00000
  4.467E+12 4.467E+12 5.001E+00 3.451E+04 6.094E+05 3.664E+06 4.308E+06 4.308E+06 3.300E+07 39.6414 1.00000
  5.012E+12 5.012E+12 5.025E+00 3.872E+04 6.837E+05 4.203E+06 4.926E+06 4.926E+06 3.312E+07 39.8717 1.00000
  5.623E+12 5.623E+12 5.049E+00 4.344E+04 7.671E+05 4.822E+06 5.633E+06 5.633E+06 3.324E+07 40.1020 1.00000
  6.310E+12 6.310E+12 5.073E+00 4.874E+04 8.606E+05 5.532E+06 6.442E+06 6.442E+06 3.335E+07 40.3322 1.00000
  7.079E+12 7.079E+12 5.098E+00 5.469E+04 9.656E+05 6.348E+06 7.368E+06 7.368E+06 3.346E+07 40.5625 1.00000
  7.943E+12 7.943E+12 5.122E+00 6.137E+04 1.083E+06 7.283E+06 8.428E+06 8.428E+06 3.357E+07 40.7927 1.00000
  8.913E+12 8.913E+12 5.147E+00 6.885E+04 1.216E+06 8.357E+06 9.642E+06 9.642E+06 3.368E+07 41.0230 1.00000
  1.000E+13 1.000E+13 5.171E+00 7.726E+04 1.364E+06 9.590E+06 1.103E+07 1.103E+07 3.378E+07 41.2533 1.00000
  1.122E+13 1.122E+13 5.196E+00 8.668E+04 1.530E+06 1.101E+07 1.262E+07 1.262E+07 3.389E+07 41.4835 1.00000
  1.259E+13 1.259E+13 5.221E+00 9.726E+04 1.717E+06 1.263E+07 1.444E+07 1.444E+07 3.399E+07 41.7138 1.00000
  1.413E+13 1.413E+13 5.246E+00 1.091E+05 1.926E+06 1.450E+07 1.653E+07 1.653E+07 3.409E+07 41.9440 1.00000
  1.585E+13 1.585E+13 5.271E+00 1.224E+05 2.161E+06 1.664E+07 1.892E+07 1.892E+07 3.419E+07 42.1743 1.00000
  1.778E+13 1.778E+13 5.296E+00 1.374E+05 2.425E+06 1.910E+07 2.166E+07 2.166E+07 3.428E+07 42.4045 1.00000
  1.995E+13 1.995E+13 5.322E+00 1.542E+05 2.720E+06 2.192E+07 2.479E+07 2.479E+07 3.438E+07 42.6348 1.00000
  2.239E+13 2.239E+13 5.348E+00 1.730E+05 3.052E+06 2.516E+07 2.839E+07 2.839E+07 3.447E+07 42.8651 1.00000
  2.512E+13 2.512E+13 5.373E+00 1.941E+05 3.424E+06 2.888E+07 3.250E+07 3.250E+07 3.456E+07 43.0953 1.00000
  2.818E+13 2.818E+13 5.399E+00 2.177E+05 3.842E+06 3.316E+07 3.722E+07 3.722E+07 3.465E+07 43.3256 1.00000
  3.162E+13 3.162E+13 5.425E+00 2.443E+05 4.310E+06 3.807E+07 4.262E+07 4.262E+07 3.473E+07 43.5558 1.00000
  3.548E+13 3.548E+13 5.451E+00 2.741E+05 4.836E+06 4.371E+07 4.882E+07 4.882E+07 3.482E+07 43.7861 1.00000
  3.981E+13 3.981E+13 5.478E+00 3.076E+05 5.426E+06 5.019E+07 5.592E+07 5.592E+07 3.490E+07 44.0164 1.00000
  4.467E+13 4.467E+13 5.504E+00 3.451E+05 6.088E+06 5.762E+07 6.406E+07 6.406E+07 3.498E+07 44.2466 1.00000
  5.012E+13 5.012E+13 5.531E+00 3.872E+05 6.830E+06 6.617E+07 7.339E+07 7.339E+07 3.506E+07 44.4769 1.00000
  5.623E+13 5.623E+13 5.557E+00 4.345E+05 7.663E+06 7.599E+07 8.408E+07 8.408E+07 3.514E+07 44.7071 1.00000
  6.310E+13 6.310E+13 5.584E+00 4.875E+05 8.597E+06 8.726E+07 9.635E+07 9.635E+07 3.522E+07 44.9374 1.00000
  7.079E+13 7.079E+13 5.611E+00 5.470E+05 9.646E+06 1.002E+08 1.104E+08 1.104E+08 3.529E+07 45.1676 1.00000
  7.943E+13 7.943E+13 5.638E+00 6.137E+05 1.082E+07 1.151E+08 1.265E+08 1.265E+08 3.537E+07 45.3979 1.00000
  8.913E+13 8.913E+13 5.666E+00 6.886E+05 1.214E+07 1.322E+08 1.450E+08 1.450E+08 3.544E+07 45.6282 1.00000
