 Incident particle is a Tau with M = 1776.82000 MeV
 Index = 0: DeuteriumGas
      Absorber with <Z/A> = 0.49650
 Sternheimer coef:  a     k=m_s   x_0    x_1    I[eV]   Cbar  delta0
                 0.1409  5.7273  1.8793  3.2872   19.2  9.6543 0.00

 *** Table generated with PUMAS v1.00 ***

      T         p     Ionization  brems     pair     photonuc  Radloss    dE/dx   CSDA Range  delta   beta
    [MeV]    [MeV/c]  -----------------------[MeV cm^2/g]------------------------  [g/cm^2]
  1.000E+05 1.018E+05 2.752E+00 2.287E-05 4.020E-04 8.952E-03 9.377E-03 2.761E+00 1.811E+04  0.0000 0.99985
  1.122E+05 1.140E+05 2.787E+00 2.639E-05 5.017E-04 1.015E-02 1.068E-02 2.798E+00 2.250E+04  0.0000 0.99988
  1.259E+05 1.277E+05 2.822E+00 3.044E-05 6.206E-04 1.146E-02 1.211E-02 2.834E+00 2.736E+04  0.0000 0.99990
  1.413E+05 1.430E+05 2.856E+00 3.510E-05 7.620E-04 1.293E-02 1.372E-02 2.870E+00 3.275E+04  0.0187 0.99992
  1.585E+05 1.603E+05 2.887E+00 4.047E-05 9.296E-04 1.458E-02 1.555E-02 2.902E+00 3.872E+04  0.0774 0.99994
  1.778E+05 1.796E+05 2.915E+00 4.665E-05 1.128E-03 1.643E-02 1.761E-02 2.933E+00 4.535E+04  0.1634 0.99995
  1.995E+05 2.013E+05 2.942E+00 5.376E-05 1.362E-03 1.856E-02 1.997E-02 2.962E+00 5.271E+04  0.2732 0.99996
  2.239E+05 2.256E+05 2.968E+00 6.195E-05 1.638E-03 2.089E-02 2.259E-02 2.991E+00 6.089E+04  0.4036 0.99997
  2.512E+05 2.530E+05 2.992E+00 7.137E-05 1.962E-03 2.351E-02 2.554E-02 3.018E+00 6.998E+04  0.5517 0.99998
  2.818E+05 2.836E+05 3.015E+00 8.222E-05 2.342E-03 2.647E-02 2.890E-02 3.044E+00 8.009E+04  0.7150 0.99998
  3.162E+05 3.180E+05 3.037E+00 9.470E-05 2.787E-03 2.984E-02 3.272E-02 3.070E+00 9.134E+04  0.8912 0.99998
  3.548E+05 3.566E+05 3.059E+00 1.091E-04 3.307E-03 3.362E-02 3.704E-02 3.096E+00 1.039E+05  1.0782 0.99999
  3.981E+05 3.999E+05 3.079E+00 1.256E-04 3.913E-03 3.786E-02 4.190E-02 3.121E+00 1.178E+05  1.2742 0.99999
  4.467E+05 4.485E+05 3.099E+00 1.447E-04 4.618E-03 4.263E-02 4.739E-02 3.146E+00 1.333E+05  1.4777 0.99999
  5.012E+05 5.030E+05 3.119E+00 1.666E-04 5.438E-03 4.801E-02 5.362E-02 3.172E+00 1.505E+05  1.6873 0.99999
  5.623E+05 5.641E+05 3.138E+00 1.918E-04 6.390E-03 5.387E-02 6.045E-02 3.198E+00 1.697E+05  1.9019 1.00000
  6.310E+05 6.327E+05 3.156E+00 2.209E-04 7.494E-03 6.048E-02 6.820E-02 3.225E+00 1.911E+05  2.1204 1.00000
  7.079E+05 7.097E+05 3.175E+00 2.544E-04 8.771E-03 6.797E-02 7.699E-02 3.252E+00 2.149E+05  2.3420 1.00000
  7.943E+05 7.961E+05 3.193E+00 2.931E-04 1.025E-02 7.643E-02 8.698E-02 3.280E+00 2.413E+05  2.5660 1.00000
  8.913E+05 8.930E+05 3.211E+00 3.376E-04 1.195E-02 8.602E-02 9.831E-02 3.309E+00 2.708E+05  2.7919 1.00000
  1.000E+06 1.002E+06 3.229E+00 3.888E-04 1.392E-02 9.688E-02 1.112E-01 3.340E+00 3.035E+05  3.0191 1.00000
  1.122E+06 1.124E+06 3.246E+00 4.479E-04 1.619E-02 1.092E-01 1.258E-01 3.372E+00 3.398E+05  3.2472 1.00000
  1.259E+06 1.261E+06 3.264E+00 5.161E-04 1.879E-02 1.232E-01 1.425E-01 3.406E+00 3.802E+05  3.4761 1.00000
  1.413E+06 1.414E+06 3.281E+00 5.946E-04 2.179E-02 1.390E-01 1.614E-01 3.443E+00 4.251E+05  3.7055 1.00000
  1.585E+06 1.587E+06 3.299E+00 6.852E-04 2.523E-02 1.570E-01 1.829E-01 3.482E+00 4.749E+05  3.9351 1.00000
  1.778E+06 1.780E+06 3.316E+00 7.896E-04 2.918E-02 1.774E-01 2.074E-01 3.523E+00 5.301E+05  4.1650 1.00000
  1.995E+06 1.997E+06 3.333E+00 9.100E-04 3.370E-02 2.007E-01 2.353E-01 3.568E+00 5.913E+05  4.3949 1.00000
  2.239E+06 2.240E+06 3.349E+00 1.049E-03 3.888E-02 2.271E-01 2.670E-01 3.616E+00 6.591E+05  4.6250 1.00000
  2.512E+06 2.514E+06 3.366E+00 1.209E-03 4.480E-02 2.571E-01 3.031E-01 3.669E+00 7.340E+05  4.8550 1.00000
  2.818E+06 2.820E+06 3.383E+00 1.393E-03 5.157E-02 2.912E-01 3.442E-01 3.727E+00 8.169E+05  5.0851 1.00000
  3.162E+06 3.164E+06 3.399E+00 1.605E-03 5.929E-02 3.300E-01 3.909E-01 3.790E+00 9.084E+05  5.3153 1.00000
  3.548E+06 3.550E+06 3.415E+00 1.850E-03 6.810E-02 3.742E-01 4.442E-01 3.860E+00 1.009E+06  5.5454 1.00000
  3.981E+06 3.983E+06 3.431E+00 2.131E-03 7.814E-02 4.245E-01 5.048E-01 3.936E+00 1.120E+06  5.7756 1.00000
  4.467E+06 4.469E+06 3.447E+00 2.456E-03 8.956E-02 4.818E-01 5.738E-01 4.021E+00 1.243E+06  6.0057 1.00000
  5.012E+06 5.014E+06 3.463E+00 2.829E-03 1.026E-01 5.470E-01 6.524E-01 4.116E+00 1.376E+06  6.2359 1.00000
  5.623E+06 5.625E+06 3.479E+00 3.258E-03 1.173E-01 6.213E-01 7.419E-01 4.221E+00 1.523E+06  6.4661 1.00000
  6.310E+06 6.311E+06 3.494E+00 3.752E-03 1.341E-01 7.060E-01 8.439E-01 4.338E+00 1.684E+06  6.6963 1.00000
  7.079E+06 7.081E+06 3.510E+00 4.320E-03 1.532E-01 8.025E-01 9.599E-01 4.469E+00 1.858E+06  6.9265 1.00000
  7.943E+06 7.945E+06 3.525E+00 4.972E-03 1.748E-01 9.124E-01 1.092E+00 4.617E+00 2.049E+06  7.1567 1.00000
  8.913E+06 8.914E+06 3.540E+00 5.722E-03 1.993E-01 1.038E+00 1.243E+00 4.782E+00 2.255E+06  7.3869 1.00000
  1.000E+07 1.000E+07 3.555E+00 6.582E-03 2.270E-01 1.181E+00 1.414E+00 4.969E+00 2.478E+06  7.6171 1.00000
  1.122E+07 1.122E+07 3.569E+00 7.570E-03 2.584E-01 1.343E+00 1.609E+00 5.179E+00 2.719E+06  7.8473 1.00000
  1.259E+07 1.259E+07 3.584E+00 8.702E-03 2.939E-01 1.529E+00 1.832E+00 5.416E+00 2.977E+06  8.0775 1.00000
  1.413E+07 1.413E+07 3.598E+00 1.000E-02 3.340E-01 1.741E+00 2.085E+00 5.683E+00 3.254E+06  8.3078 1.00000
  1.585E+07 1.585E+07 3.613E+00 1.149E-02 3.794E-01 1.983E+00 2.374E+00 5.986E+00 3.550E+06  8.5380 1.00000
  1.778E+07 1.778E+07 3.627E+00 1.320E-02 4.306E-01 2.258E+00 2.702E+00 6.329E+00 3.864E+06  8.7682 1.00000
  1.995E+07 1.995E+07 3.641E+00 1.515E-02 4.885E-01 2.573E+00 3.076E+00 6.717E+00 4.197E+06  8.9985 1.00000
  2.239E+07 2.239E+07 3.655E+00 1.738E-02 5.537E-01 2.931E+00 3.503E+00 7.158E+00 4.548E+06  9.2287 1.00000
  2.512E+07 2.512E+07 3.669E+00 1.994E-02 6.273E-01 3.341E+00 3.988E+00 7.657E+00 4.918E+06  9.4589 1.00000
  2.818E+07 2.819E+07 3.683E+00 2.287E-02 7.103E-01 3.808E+00 4.541E+00 8.224E+00 5.304E+06  9.6892 1.00000
  3.162E+07 3.162E+07 3.697E+00 2.621E-02 8.038E-01 4.341E+00 5.171E+00 8.868E+00 5.707E+06  9.9194 1.00000
  3.548E+07 3.548E+07 3.711E+00 3.002E-02 9.092E-01 4.949E+00 5.889E+00 9.599E+00 6.125E+06 10.1497 1.00000
  3.981E+07 3.981E+07 3.725E+00 3.439E-02 1.028E+00 5.644E+00 6.706E+00 1.043E+01 6.559E+06 10.3799 1.00000
  4.467E+07 4.467E+07 3.739E+00 3.936E-02 1.161E+00 6.436E+00 7.637E+00 1.138E+01 7.005E+06 10.6102 1.00000
  5.012E+07 5.012E+07 3.752E+00 4.504E-02 1.312E+00 7.341E+00 8.698E+00 1.245E+01 7.463E+06 10.8404 1.00000
  5.623E+07 5.624E+07 3.766E+00 5.150E-02 1.481E+00 8.374E+00 9.907E+00 1.367E+01 7.933E+06 11.0707 1.00000
  6.310E+07 6.310E+07 3.780E+00 5.889E-02 1.671E+00 9.554E+00 1.128E+01 1.506E+01 8.411E+06 11.3009 1.00000
  7.079E+07 7.080E+07 3.794E+00 6.731E-02 1.885E+00 1.090E+01 1.285E+01 1.665E+01 8.898E+06 11.5312 1.00000
  7.943E+07 7.943E+07 3.808E+00 7.689E-02 2.126E+00 1.244E+01 1.464E+01 1.845E+01 9.392E+06 11.7614 1.00000
  8.913E+07 8.913E+07 3.821E+00 8.779E-02 2.396E+00 1.419E+01 1.668E+01 2.050E+01 9.891E+06 11.9917 1.00000
  1.000E+08 1.000E+08 3.835E+00 1.002E-01 2.700E+00 1.620E+01 1.900E+01 2.283E+01 1.039E+07 12.2219 1.00000
  1.122E+08 1.122E+08 3.849E+00 1.143E-01 3.042E+00 1.849E+01 2.164E+01 2.549E+01 1.090E+07 12.4522 1.00000
  1.259E+08 1.259E+08 3.863E+00 1.303E-01 3.425E+00 2.110E+01 2.466E+01 2.852E+01 1.141E+07 12.6824 1.00000
  1.413E+08 1.413E+08 3.877E+00 1.486E-01 3.857E+00 2.409E+01 2.810E+01 3.197E+01 1.192E+07 12.9127 1.00000
  1.585E+08 1.585E+08 3.891E+00 1.693E-01 4.341E+00 2.750E+01 3.201E+01 3.590E+01 1.243E+07 13.1430 1.00000
  1.778E+08 1.778E+08 3.905E+00 1.929E-01 4.885E+00 3.140E+01 3.648E+01 4.038E+01 1.294E+07 13.3732 1.00000
  1.995E+08 1.995E+08 3.919E+00 2.196E-01 5.496E+00 3.585E+01 4.157E+01 4.549E+01 1.344E+07 13.6035 1.00000
  2.239E+08 2.239E+08 3.933E+00 2.500E-01 6.182E+00 4.094E+01 4.737E+01 5.131E+01 1.395E+07 13.8337 1.00000
  2.512E+08 2.512E+08 3.947E+00 2.844E-01 6.952E+00 4.675E+01 5.399E+01 5.794E+01 1.445E+07 14.0640 1.00000
  2.818E+08 2.818E+08 3.962E+00 3.234E-01 7.817E+00 5.339E+01 6.153E+01 6.549E+01 1.495E+07 14.2942 1.00000
  3.162E+08 3.162E+08 3.976E+00 3.677E-01 8.788E+00 6.098E+01 7.013E+01 7.411E+01 1.544E+07 14.5245 1.00000
  3.548E+08 3.548E+08 3.990E+00 4.178E-01 9.878E+00 6.965E+01 7.994E+01 8.393E+01 1.593E+07 14.7548 1.00000
  3.981E+08 3.981E+08 4.005E+00 4.746E-01 1.110E+01 7.956E+01 9.113E+01 9.514E+01 1.642E+07 14.9850 1.00000
  4.467E+08 4.467E+08 4.019E+00 5.389E-01 1.248E+01 9.088E+01 1.039E+02 1.079E+02 1.690E+07 15.2153 1.00000
  5.012E+08 5.012E+08 4.034E+00 6.117E-01 1.402E+01 1.038E+02 1.184E+02 1.225E+02 1.737E+07 15.4455 1.00000
  5.623E+08 5.623E+08 4.049E+00 6.940E-01 1.575E+01 1.186E+02 1.350E+02 1.391E+02 1.784E+07 15.6758 1.00000
  6.310E+08 6.310E+08 4.064E+00 7.872E-01 1.769E+01 1.355E+02 1.540E+02 1.580E+02 1.831E+07 15.9060 1.00000
  7.079E+08 7.079E+08 4.078E+00 8.926E-01 1.987E+01 1.548E+02 1.756E+02 1.797E+02 1.877E+07 16.1363 1.00000
  7.943E+08 7.943E+08 4.093E+00 1.012E+00 2.232E+01 1.769E+02 2.002E+02 2.043E+02 1.922E+07 16.3666 1.00000
  8.913E+08 8.913E+08 4.108E+00 1.146E+00 2.506E+01 2.022E+02 2.284E+02 2.325E+02 1.966E+07 16.5968 1.00000
  1.000E+09 1.000E+09 4.123E+00 1.299E+00 2.814E+01 2.310E+02 2.605E+02 2.646E+02 2.010E+07 16.8271 1.00000
  1.122E+09 1.122E+09 4.138E+00 1.470E+00 3.160E+01 2.640E+02 2.971E+02 3.012E+02 2.054E+07 17.0573 1.00000
  1.259E+09 1.259E+09 4.154E+00 1.664E+00 3.548E+01 3.018E+02 3.389E+02 3.431E+02 2.096E+07 17.2876 1.00000
  1.413E+09 1.413E+09 4.169E+00 1.883E+00 3.984E+01 3.449E+02 3.866E+02 3.908E+02 2.138E+07 17.5178 1.00000
  1.585E+09 1.585E+09 4.184E+00 2.130E+00 4.472E+01 3.942E+02 4.411E+02 4.453E+02 2.180E+07 17.7481 1.00000
  1.778E+09 1.778E+09 4.200E+00 2.409E+00 5.020E+01 4.506E+02 5.032E+02 5.074E+02 2.220E+07 17.9784 1.00000
  1.995E+09 1.995E+09 4.215E+00 2.724E+00 5.636E+01 5.151E+02 5.742E+02 5.784E+02 2.261E+07 18.2086 1.00000
  2.239E+09 2.239E+09 4.231E+00 3.078E+00 6.326E+01 5.889E+02 6.552E+02 6.595E+02 2.300E+07 18.4389 1.00000
  2.512E+09 2.512E+09 4.247E+00 3.477E+00 7.101E+01 6.733E+02 7.478E+02 7.520E+02 2.339E+07 18.6691 1.00000
  2.818E+09 2.818E+09 4.262E+00 3.928E+00 7.970E+01 7.698E+02 8.534E+02 8.577E+02 2.377E+07 18.8994 1.00000
  3.162E+09 3.162E+09 4.278E+00 4.435E+00 8.946E+01 8.801E+02 9.740E+02 9.783E+02 2.415E+07 19.1297 1.00000
  3.548E+09 3.548E+09 4.294E+00 5.006E+00 1.004E+02 1.006E+03 1.112E+03 1.116E+03 2.452E+07 19.3599 1.00000
  3.981E+09 3.981E+09 4.310E+00 5.649E+00 1.127E+02 1.151E+03 1.269E+03 1.273E+03 2.488E+07 19.5902 1.00000
  4.467E+09 4.467E+09 4.327E+00 6.373E+00 1.265E+02 1.316E+03 1.449E+03 1.453E+03 2.524E+07 19.8204 1.00000
  5.012E+09 5.012E+09 4.343E+00 7.188E+00 1.419E+02 1.505E+03 1.654E+03 1.659E+03 2.559E+07 20.0507 1.00000
  5.623E+09 5.623E+09 4.359E+00 8.105E+00 1.593E+02 1.721E+03 1.889E+03 1.893E+03 2.594E+07 20.2809 1.00000
  6.310E+09 6.310E+09 4.376E+00 9.137E+00 1.787E+02 1.969E+03 2.157E+03 2.161E+03 2.628E+07 20.5112 1.00000
  7.079E+09 7.079E+09 4.392E+00 1.030E+01 2.006E+02 2.252E+03 2.463E+03 2.467E+03 2.661E+07 20.7415 1.00000
  7.943E+09 7.943E+09 4.409E+00 1.160E+01 2.251E+02 2.576E+03 2.813E+03 2.817E+03 2.694E+07 20.9717 1.00000
  8.913E+09 8.913E+09 4.425E+00 1.307E+01 2.526E+02 2.947E+03 3.212E+03 3.217E+03 2.726E+07 21.2020 1.00000
  1.000E+10 1.000E+10 4.442E+00 1.472E+01 2.834E+02 3.371E+03 3.669E+03 3.674E+03 2.758E+07 21.4322 1.00000
  1.122E+10 1.122E+10 4.459E+00 1.658E+01 3.181E+02 3.856E+03 4.191E+03 4.196E+03 2.789E+07 21.6625 1.00000
  1.259E+10 1.259E+10 4.476E+00 1.866E+01 3.569E+02 4.412E+03 4.788E+03 4.792E+03 2.820E+07 21.8928 1.00000
  1.413E+10 1.413E+10 4.493E+00 2.101E+01 4.005E+02 5.048E+03 5.470E+03 5.474E+03 2.850E+07 22.1230 1.00000
  1.585E+10 1.585E+10 4.510E+00 2.364E+01 4.494E+02 5.776E+03 6.249E+03 6.254E+03 2.879E+07 22.3533 1.00000
  1.778E+10 1.778E+10 4.528E+00 2.660E+01 5.042E+02 6.610E+03 7.141E+03 7.145E+03 2.908E+07 22.5835 1.00000
  1.995E+10 1.995E+10 4.545E+00 2.993E+01 5.658E+02 7.564E+03 8.160E+03 8.164E+03 2.937E+07 22.8138 1.00000
  2.239E+10 2.239E+10 4.563E+00 3.367E+01 6.349E+02 8.656E+03 9.325E+03 9.329E+03 2.965E+07 23.0441 1.00000
  2.512E+10 2.512E+10 4.580E+00 3.786E+01 7.124E+02 9.907E+03 1.066E+04 1.066E+04 2.992E+07 23.2743 1.00000
  2.818E+10 2.818E+10 4.598E+00 4.258E+01 7.993E+02 1.134E+04 1.218E+04 1.219E+04 3.019E+07 23.5046 1.00000
  3.162E+10 3.162E+10 4.616E+00 4.787E+01 8.969E+02 1.298E+04 1.392E+04 1.393E+04 3.046E+07 23.7348 1.00000
  3.548E+10 3.548E+10 4.634E+00 5.381E+01 1.006E+03 1.486E+04 1.592E+04 1.592E+04 3.072E+07 23.9651 1.00000
  3.981E+10 3.981E+10 4.651E+00 6.049E+01 1.129E+03 1.701E+04 1.819E+04 1.820E+04 3.097E+07 24.1953 1.00000
  4.467E+10 4.467E+10 4.670E+00 6.798E+01 1.267E+03 1.947E+04 2.080E+04 2.081E+04 3.122E+07 24.4256 1.00000
  5.012E+10 5.012E+10 4.688E+00 7.640E+01 1.422E+03 2.229E+04 2.378E+04 2.379E+04 3.147E+07 24.6559 1.00000
  5.623E+10 5.623E+10 4.706E+00 8.585E+01 1.595E+03 2.552E+04 2.720E+04 2.720E+04 3.171E+07 24.8861 1.00000
  6.310E+10 6.310E+10 4.724E+00 9.645E+01 1.790E+03 2.921E+04 3.110E+04 3.110E+04 3.194E+07 25.1164 1.00000
  7.079E+10 7.079E+10 4.743E+00 1.084E+02 2.008E+03 3.345E+04 3.557E+04 3.557E+04 3.218E+07 25.3466 1.00000
  7.943E+10 7.943E+10 4.762E+00 1.217E+02 2.253E+03 3.830E+04 4.068E+04 4.068E+04 3.240E+07 25.5769 1.00000
  8.913E+10 8.913E+10 4.780E+00 1.367E+02 2.528E+03 4.386E+04 4.653E+04 4.653E+04 3.263E+07 25.8072 1.00000
  1.000E+11 1.000E+11 4.799E+00 1.536E+02 2.836E+03 5.023E+04 5.322E+04 5.322E+04 3.285E+07 26.0374 1.00000
  1.122E+11 1.122E+11 4.818E+00 1.725E+02 3.182E+03 5.752E+04 6.088E+04 6.088E+04 3.306E+07 26.2677 1.00000
  1.259E+11 1.259E+11 4.837E+00 1.937E+02 3.571E+03 6.588E+04 6.965E+04 6.965E+04 3.327E+07 26.4979 1.00000
  1.413E+11 1.413E+11 4.856E+00 2.175E+02 4.006E+03 7.546E+04 7.968E+04 7.969E+04 3.348E+07 26.7282 1.00000
  1.585E+11 1.585E+11 4.875E+00 2.442E+02 4.495E+03 8.643E+04 9.117E+04 9.118E+04 3.368E+07 26.9584 1.00000
  1.778E+11 1.778E+11 4.895E+00 2.742E+02 5.043E+03 9.901E+04 1.043E+05 1.043E+05 3.388E+07 27.1887 1.00000
  1.995E+11 1.995E+11 4.914E+00 3.078E+02 5.659E+03 1.134E+05 1.194E+05 1.194E+05 3.407E+07 27.4190 1.00000
  2.239E+11 2.239E+11 4.934E+00 3.456E+02 6.349E+03 1.299E+05 1.366E+05 1.366E+05 3.427E+07 27.6492 1.00000
  2.512E+11 2.512E+11 4.953E+00 3.880E+02 7.123E+03 1.489E+05 1.564E+05 1.564E+05 3.445E+07 27.8795 1.00000
  2.818E+11 2.818E+11 4.973E+00 4.355E+02 7.992E+03 1.705E+05 1.790E+05 1.790E+05 3.464E+07 28.1097 1.00000
  3.162E+11 3.162E+11 4.993E+00 4.889E+02 8.967E+03 1.954E+05 2.049E+05 2.049E+05 3.482E+07 28.3400 1.00000
  3.548E+11 3.548E+11 5.013E+00 5.488E+02 1.006E+04 2.239E+05 2.345E+05 2.345E+05 3.499E+07 28.5703 1.00000
  3.981E+11 3.981E+11 5.033E+00 6.160E+02 1.129E+04 2.566E+05 2.685E+05 2.685E+05 3.517E+07 28.8005 1.00000
  4.467E+11 4.467E+11 5.053E+00 6.914E+02 1.267E+04 2.940E+05 3.074E+05 3.074E+05 3.534E+07 29.0308 1.00000
  5.012E+11 5.012E+11 5.074E+00 7.760E+02 1.421E+04 3.370E+05 3.519E+05 3.520E+05 3.550E+07 29.2610 1.00000
  5.623E+11 5.623E+11 5.094E+00 8.709E+02 1.594E+04 3.862E+05 4.030E+05 4.030E+05 3.566E+07 29.4913 1.00000
  6.310E+11 6.310E+11 5.115E+00 9.775E+02 1.789E+04 4.426E+05 4.615E+05 4.615E+05 3.582E+07 29.7215 1.00000
  7.079E+11 7.079E+11 5.136E+00 1.097E+03 2.007E+04 5.073E+05 5.285E+05 5.285E+05 3.598E+07 29.9518 1.00000
  7.943E+11 7.943E+11 5.156E+00 1.231E+03 2.252E+04 5.815E+05 6.053E+05 6.053E+05 3.613E+07 30.1821 1.00000
  8.913E+11 8.913E+11 5.177E+00 1.382E+03 2.527E+04 6.666E+05 6.933E+05 6.933E+05 3.628E+07 30.4123 1.00000
  1.000E+12 1.000E+12 5.198E+00 1.550E+03 2.835E+04 7.642E+05 7.941E+05 7.941E+05 3.643E+07 30.6426 1.00000
  1.122E+12 1.122E+12 5.219E+00 1.740E+03 3.181E+04 8.761E+05 9.096E+05 9.096E+05 3.657E+07 30.8728 1.00000
  1.259E+12 1.259E+12 5.241E+00 1.953E+03 3.569E+04 1.004E+06 1.042E+06 1.042E+06 3.671E+07 31.1031 1.00000
  1.413E+12 1.413E+12 5.262E+00 2.191E+03 4.004E+04 1.152E+06 1.194E+06 1.194E+06 3.685E+07 31.3334 1.00000
  1.585E+12 1.585E+12 5.284E+00 2.459E+03 4.492E+04 1.320E+06 1.368E+06 1.368E+06 3.699E+07 31.5636 1.00000
  1.778E+12 1.778E+12 5.305E+00 2.759E+03 5.040E+04 1.514E+06 1.567E+06 1.567E+06 3.712E+07 31.7939 1.00000
  1.995E+12 1.995E+12 5.327E+00 3.096E+03 5.655E+04 1.736E+06 1.796E+06 1.796E+06 3.725E+07 32.0241 1.00000
  2.239E+12 2.239E+12 5.349E+00 3.474E+03 6.345E+04 1.991E+06 2.058E+06 2.058E+06 3.738E+07 32.2544 1.00000
  2.512E+12 2.512E+12 5.371E+00 3.899E+03 7.119E+04 2.283E+06 2.358E+06 2.359E+06 3.750E+07 32.4846 1.00000
  2.818E+12 2.818E+12 5.393E+00 4.375E+03 7.987E+04 2.619E+06 2.703E+06 2.703E+06 3.762E+07 32.7149 1.00000
  3.162E+12 3.162E+12 5.415E+00 4.909E+03 8.961E+04 3.004E+06 3.098E+06 3.098E+06 3.774E+07 32.9452 1.00000
  3.548E+12 3.548E+12 5.438E+00 5.508E+03 1.005E+05 3.445E+06 3.551E+06 3.551E+06 3.786E+07 33.1754 1.00000
  3.981E+12 3.981E+12 5.460E+00 6.180E+03 1.128E+05 3.952E+06 4.071E+06 4.071E+06 3.797E+07 33.4057 1.00000
  4.467E+12 4.467E+12 5.483E+00 6.935E+03 1.266E+05 4.533E+06 4.667E+06 4.667E+06 3.808E+07 33.6359 1.00000
  5.012E+12 5.012E+12 5.505E+00 7.781E+03 1.420E+05 5.201E+06 5.350E+06 5.350E+06 3.819E+07 33.8662 1.00000
  5.623E+12 5.623E+12 5.528E+00 8.731E+03 1.593E+05 5.966E+06 6.134E+06 6.134E+06 3.830E+07 34.0965 1.00000
  6.310E+12 6.310E+12 5.551E+00 9.797E+03 1.787E+05 6.845E+06 7.034E+06 7.034E+06 3.841E+07 34.3267 1.00000
  7.079E+12 7.079E+12 5.574E+00 1.099E+04 2.005E+05 7.854E+06 8.065E+06 8.065E+06 3.851E+07 34.5570 1.00000
  7.943E+12 7.943E+12 5.598E+00 1.233E+04 2.250E+05 9.011E+06 9.249E+06 9.249E+06 3.861E+07 34.7872 1.00000
  8.913E+12 8.913E+12 5.621E+00 1.384E+04 2.525E+05 1.034E+07 1.061E+07 1.061E+07 3.871E+07 35.0175 1.00000
  1.000E+13 1.000E+13 5.644E+00 1.553E+04 2.832E+05 1.187E+07 1.216E+07 1.216E+07 3.880E+07 35.2478 1.00000
  1.122E+13 1.122E+13 5.668E+00 1.742E+04 3.178E+05 1.362E+07 1.395E+07 1.395E+07 3.890E+07 35.4780 1.00000
  1.259E+13 1.259E+13 5.692E+00 1.955E+04 3.565E+05 1.563E+07 1.600E+07 1.600E+07 3.899E+07 35.7083 1.00000
  1.413E+13 1.413E+13 5.716E+00 2.194E+04 4.000E+05 1.793E+07 1.836E+07 1.836E+07 3.908E+07 35.9385 1.00000
  1.585E+13 1.585E+13 5.740E+00 2.461E+04 4.488E+05 2.058E+07 2.106E+07 2.106E+07 3.917E+07 36.1688 1.00000
  1.778E+13 1.778E+13 5.764E+00 2.762E+04 5.036E+05 2.363E+07 2.416E+07 2.416E+07 3.925E+07 36.3990 1.00000
  1.995E+13 1.995E+13 5.788E+00 3.099E+04 5.650E+05 2.712E+07 2.772E+07 2.772E+07 3.934E+07 36.6293 1.00000
  2.239E+13 2.239E+13 5.812E+00 3.477E+04 6.339E+05 3.113E+07 3.180E+07 3.180E+07 3.942E+07 36.8596 1.00000
  2.512E+13 2.512E+13 5.837E+00 3.901E+04 7.112E+05 3.574E+07 3.649E+07 3.649E+07 3.950E+07 37.0898 1.00000
  2.818E+13 2.818E+13 5.861E+00 4.377E+04 7.979E+05 4.103E+07 4.187E+07 4.187E+07 3.958E+07 37.3201 1.00000
  3.162E+13 3.162E+13 5.886E+00 4.911E+04 8.952E+05 4.710E+07 4.805E+07 4.805E+07 3.965E+07 37.5503 1.00000
  3.548E+13 3.548E+13 5.911E+00 5.511E+04 1.004E+06 5.408E+07 5.514E+07 5.514E+07 3.973E+07 37.7806 1.00000
  3.981E+13 3.981E+13 5.936E+00 6.183E+04 1.127E+06 6.209E+07 6.328E+07 6.328E+07 3.980E+07 38.0109 1.00000
  4.467E+13 4.467E+13 5.961E+00 6.938E+04 1.264E+06 7.130E+07 7.263E+07 7.263E+07 3.987E+07 38.2411 1.00000
  5.012E+13 5.012E+13 5.987E+00 7.784E+04 1.419E+06 8.187E+07 8.337E+07 8.337E+07 3.994E+07 38.4714 1.00000
  5.623E+13 5.623E+13 6.012E+00 8.734E+04 1.591E+06 9.401E+07 9.569E+07 9.569E+07 4.001E+07 38.7016 1.00000
  6.310E+13 6.310E+13 6.038E+00 9.800E+04 1.786E+06 1.080E+08 1.098E+08 1.098E+08 4.008E+07 38.9319 1.00000
  7.079E+13 7.079E+13 6.064E+00 1.100E+05 2.003E+06 1.240E+08 1.261E+08 1.261E+08 4.015E+07 39.1621 1.00000
  7.943E+13 7.943E+13 6.089E+00 1.234E+05 2.248E+06 1.424E+08 1.448E+08 1.448E+08 4.021E+07 39.3924 1.00000
  8.913E+13 8.913E+13 6.115E+00 1.384E+05 2.522E+06 1.636E+08 1.662E+08 1.662E+08 4.027E+07 39.6227 1.00000
