 Incident particle is a Tau with M = 1776.82000 MeV
 Index = 0: Dubnium
      Absorber with <Z/A> = 0.39161
 Sternheimer coef:  a     k=m_s   x_0    x_1    I[eV]   Cbar  delta0
                 0.2711  3.0000  0.6224  3.0000 1061.0  6.5105 0.00

 *** Table generated with PUMAS v1.00 ***

      T         p     Ionization  brems     pair     photonuc  Radloss    dE/dx   CSDA Range  delta   beta
    [MeV]    [MeV/c]  -----------------------[MeV cm^2/g]------------------------  [g/cm^2]
  1.000E+05 1.018E+05 1.561E+00 1.294E-03 2.346E-02 7.480E-03 3.223E-02 1.594E+00 3.137E+04  2.1046 0.99985
  1.122E+05 1.140E+05 1.579E+00 1.501E-03 2.807E-02 8.390E-03 3.796E-02 1.617E+00 3.898E+04  2.2718 0.99988
  1.259E+05 1.277E+05 1.596E+00 1.741E-03 3.350E-02 9.362E-03 4.460E-02 1.641E+00 4.738E+04  2.4440 0.99990
  1.413E+05 1.430E+05 1.613E+00 2.018E-03 3.986E-02 1.045E-02 5.233E-02 1.666E+00 5.667E+04  2.6210 0.99992
  1.585E+05 1.603E+05 1.630E+00 2.337E-03 4.731E-02 1.166E-02 6.130E-02 1.692E+00 6.694E+04  2.8026 0.99994
  1.778E+05 1.796E+05 1.647E+00 2.705E-03 5.602E-02 1.299E-02 7.171E-02 1.719E+00 7.828E+04  2.9886 0.99995
  1.995E+05 2.013E+05 1.664E+00 3.129E-03 6.617E-02 1.451E-02 8.381E-02 1.747E+00 9.080E+04  3.1788 0.99996
  2.239E+05 2.256E+05 1.680E+00 3.618E-03 7.798E-02 1.616E-02 9.776E-02 1.778E+00 1.046E+05  3.3729 0.99997
  2.512E+05 2.530E+05 1.696E+00 4.180E-03 9.170E-02 1.799E-02 1.139E-01 1.810E+00 1.198E+05  3.5708 0.99998
  2.818E+05 2.836E+05 1.712E+00 4.827E-03 1.076E-01 2.004E-02 1.325E-01 1.844E+00 1.366E+05  3.7723 0.99998
  3.162E+05 3.180E+05 1.728E+00 5.571E-03 1.260E-01 2.235E-02 1.539E-01 1.882E+00 1.551E+05  3.9771 0.99998
  3.548E+05 3.566E+05 1.743E+00 6.425E-03 1.473E-01 2.493E-02 1.786E-01 1.922E+00 1.754E+05  4.1850 0.99999
  3.981E+05 3.999E+05 1.758E+00 7.407E-03 1.718E-01 2.779E-02 2.070E-01 1.965E+00 1.977E+05  4.3958 0.99999
  4.467E+05 4.485E+05 1.774E+00 8.534E-03 2.000E-01 3.098E-02 2.395E-01 2.013E+00 2.221E+05  4.6094 0.99999
  5.012E+05 5.030E+05 1.789E+00 9.827E-03 2.325E-01 3.456E-02 2.769E-01 2.065E+00 2.488E+05  4.8255 0.99999
  5.623E+05 5.641E+05 1.803E+00 1.131E-02 2.698E-01 3.841E-02 3.195E-01 2.123E+00 2.780E+05  5.0439 1.00000
  6.310E+05 6.327E+05 1.818E+00 1.301E-02 3.125E-01 4.273E-02 3.683E-01 2.186E+00 3.099E+05  5.2644 1.00000
  7.079E+05 7.097E+05 1.833E+00 1.496E-02 3.615E-01 4.758E-02 4.240E-01 2.257E+00 3.445E+05  5.4868 1.00000
  7.943E+05 7.961E+05 1.847E+00 1.719E-02 4.175E-01 5.305E-02 4.877E-01 2.335E+00 3.822E+05  5.7108 1.00000
  8.913E+05 8.930E+05 1.861E+00 1.974E-02 4.815E-01 5.921E-02 5.604E-01 2.422E+00 4.229E+05  5.9363 1.00000
  1.000E+06 1.002E+06 1.875E+00 2.266E-02 5.545E-01 6.615E-02 6.434E-01 2.519E+00 4.670E+05  6.1631 1.00000
  1.122E+06 1.124E+06 1.889E+00 2.600E-02 6.378E-01 7.399E-02 7.378E-01 2.627E+00 5.144E+05  6.3909 1.00000
  1.259E+06 1.261E+06 1.903E+00 2.982E-02 7.326E-01 8.285E-02 8.453E-01 2.748E+00 5.654E+05  6.6196 1.00000
  1.413E+06 1.414E+06 1.917E+00 3.419E-02 8.405E-01 9.286E-02 9.675E-01 2.884E+00 6.200E+05  6.8489 1.00000
  1.585E+06 1.587E+06 1.930E+00 3.917E-02 9.631E-01 1.042E-01 1.106E+00 3.037E+00 6.782E+05  7.0787 1.00000
  1.778E+06 1.780E+06 1.944E+00 4.487E-02 1.102E+00 1.170E-01 1.264E+00 3.208E+00 7.402E+05  7.3086 1.00000
  1.995E+06 1.997E+06 1.957E+00 5.137E-02 1.260E+00 1.316E-01 1.443E+00 3.400E+00 8.060E+05  7.5387 1.00000
  2.239E+06 2.240E+06 1.970E+00 5.879E-02 1.439E+00 1.481E-01 1.646E+00 3.617E+00 8.754E+05  7.7688 1.00000
  2.512E+06 2.514E+06 1.984E+00 6.725E-02 1.642E+00 1.668E-01 1.876E+00 3.860E+00 9.486E+05  7.9988 1.00000
  2.818E+06 2.820E+06 1.997E+00 7.690E-02 1.872E+00 1.880E-01 2.137E+00 4.134E+00 1.025E+06  8.2289 1.00000
  3.162E+06 3.164E+06 2.010E+00 8.789E-02 2.132E+00 2.122E-01 2.432E+00 4.441E+00 1.106E+06  8.4591 1.00000
  3.548E+06 3.550E+06 2.022E+00 1.004E-01 2.426E+00 2.396E-01 2.766E+00 4.788E+00 1.189E+06  8.6892 1.00000
  3.981E+06 3.983E+06 2.035E+00 1.147E-01 2.757E+00 2.708E-01 3.143E+00 5.178E+00 1.276E+06  8.9194 1.00000
  4.467E+06 4.469E+06 2.048E+00 1.309E-01 3.132E+00 3.063E-01 3.569E+00 5.617E+00 1.367E+06  9.1495 1.00000
  5.012E+06 5.014E+06 2.060E+00 1.494E-01 3.555E+00 3.466E-01 4.051E+00 6.111E+00 1.460E+06  9.3797 1.00000
  5.623E+06 5.625E+06 2.072E+00 1.705E-01 4.033E+00 3.925E-01 4.596E+00 6.668E+00 1.556E+06  9.6099 1.00000
  6.310E+06 6.311E+06 2.085E+00 1.944E-01 4.571E+00 4.448E-01 5.210E+00 7.294E+00 1.654E+06  9.8401 1.00000
  7.079E+06 7.081E+06 2.097E+00 2.216E-01 5.177E+00 5.043E-01 5.903E+00 8.000E+00 1.755E+06 10.0703 1.00000
  7.943E+06 7.945E+06 2.109E+00 2.525E-01 5.861E+00 5.720E-01 6.685E+00 8.794E+00 1.858E+06 10.3005 1.00000
  8.913E+06 8.914E+06 2.120E+00 2.877E-01 6.631E+00 6.492E-01 7.567E+00 9.688E+00 1.963E+06 10.5307 1.00000
  1.000E+07 1.000E+07 2.132E+00 3.276E-01 7.497E+00 7.372E-01 8.562E+00 1.069E+01 2.070E+06 10.7609 1.00000
  1.122E+07 1.122E+07 2.144E+00 3.729E-01 8.473E+00 8.374E-01 9.683E+00 1.183E+01 2.179E+06 10.9911 1.00000
  1.259E+07 1.259E+07 2.155E+00 4.243E-01 9.571E+00 9.517E-01 1.095E+01 1.310E+01 2.289E+06 11.2213 1.00000
  1.413E+07 1.413E+07 2.167E+00 4.826E-01 1.081E+01 1.082E+00 1.237E+01 1.454E+01 2.400E+06 11.4516 1.00000
  1.585E+07 1.585E+07 2.178E+00 5.488E-01 1.220E+01 1.230E+00 1.397E+01 1.615E+01 2.513E+06 11.6818 1.00000
  1.778E+07 1.778E+07 2.189E+00 6.239E-01 1.376E+01 1.400E+00 1.578E+01 1.797E+01 2.627E+06 11.9120 1.00000
  1.995E+07 1.995E+07 2.200E+00 7.089E-01 1.551E+01 1.593E+00 1.782E+01 2.002E+01 2.741E+06 12.1423 1.00000
  2.239E+07 2.239E+07 2.211E+00 8.053E-01 1.749E+01 1.813E+00 2.011E+01 2.232E+01 2.857E+06 12.3725 1.00000
  2.512E+07 2.512E+07 2.223E+00 9.145E-01 1.971E+01 2.065E+00 2.269E+01 2.491E+01 2.973E+06 12.6027 1.00000
  2.818E+07 2.819E+07 2.234E+00 1.038E+00 2.220E+01 2.351E+00 2.559E+01 2.782E+01 3.089E+06 12.8330 1.00000
  3.162E+07 3.162E+07 2.245E+00 1.178E+00 2.500E+01 2.679E+00 2.886E+01 3.110E+01 3.206E+06 13.0632 1.00000
  3.548E+07 3.548E+07 2.255E+00 1.336E+00 2.815E+01 3.052E+00 3.254E+01 3.479E+01 3.324E+06 13.2935 1.00000
  3.981E+07 3.981E+07 2.266E+00 1.516E+00 3.168E+01 3.478E+00 3.668E+01 3.895E+01 3.442E+06 13.5237 1.00000
  4.467E+07 4.467E+07 2.277E+00 1.718E+00 3.566E+01 3.965E+00 4.134E+01 4.362E+01 3.560E+06 13.7540 1.00000
  5.012E+07 5.012E+07 2.288E+00 1.947E+00 4.011E+01 4.520E+00 4.658E+01 4.887E+01 3.678E+06 13.9842 1.00000
  5.623E+07 5.624E+07 2.299E+00 2.206E+00 4.512E+01 5.154E+00 5.248E+01 5.478E+01 3.796E+06 14.2145 1.00000
  6.310E+07 6.310E+07 2.310E+00 2.499E+00 5.075E+01 5.877E+00 5.912E+01 6.143E+01 3.915E+06 14.4447 1.00000
  7.079E+07 7.080E+07 2.321E+00 2.829E+00 5.706E+01 6.703E+00 6.659E+01 6.891E+01 4.033E+06 14.6750 1.00000
  7.943E+07 7.943E+07 2.332E+00 3.202E+00 6.415E+01 7.647E+00 7.500E+01 7.733E+01 4.152E+06 14.9052 1.00000
  8.913E+07 8.913E+07 2.343E+00 3.623E+00 7.210E+01 8.724E+00 8.445E+01 8.679E+01 4.270E+06 15.1355 1.00000
  1.000E+08 1.000E+08 2.353E+00 4.098E+00 8.104E+01 9.953E+00 9.509E+01 9.744E+01 4.389E+06 15.3657 1.00000
  1.122E+08 1.122E+08 2.364E+00 4.634E+00 9.107E+01 1.136E+01 1.071E+02 1.094E+02 4.507E+06 15.5960 1.00000
  1.259E+08 1.259E+08 2.375E+00 5.238E+00 1.023E+02 1.296E+01 1.205E+02 1.229E+02 4.625E+06 15.8262 1.00000
  1.413E+08 1.413E+08 2.386E+00 5.920E+00 1.150E+02 1.479E+01 1.357E+02 1.381E+02 4.743E+06 16.0565 1.00000
  1.585E+08 1.585E+08 2.397E+00 6.688E+00 1.291E+02 1.689E+01 1.527E+02 1.551E+02 4.861E+06 16.2868 1.00000
  1.778E+08 1.778E+08 2.409E+00 7.554E+00 1.450E+02 1.928E+01 1.719E+02 1.743E+02 4.979E+06 16.5170 1.00000
  1.995E+08 1.995E+08 2.420E+00 8.530E+00 1.629E+02 2.201E+01 1.934E+02 1.959E+02 5.097E+06 16.7473 1.00000
  2.239E+08 2.239E+08 2.431E+00 9.628E+00 1.830E+02 2.513E+01 2.177E+02 2.201E+02 5.214E+06 16.9775 1.00000
  2.512E+08 2.512E+08 2.442E+00 1.087E+01 2.055E+02 2.869E+01 2.450E+02 2.475E+02 5.332E+06 17.2078 1.00000
  2.818E+08 2.818E+08 2.453E+00 1.226E+01 2.307E+02 3.276E+01 2.757E+02 2.782E+02 5.449E+06 17.4380 1.00000
  3.162E+08 3.162E+08 2.465E+00 1.383E+01 2.590E+02 3.742E+01 3.103E+02 3.127E+02 5.565E+06 17.6683 1.00000
  3.548E+08 3.548E+08 2.476E+00 1.559E+01 2.908E+02 4.273E+01 3.492E+02 3.516E+02 5.682E+06 17.8986 1.00000
  3.981E+08 3.981E+08 2.487E+00 1.758E+01 3.265E+02 4.881E+01 3.929E+02 3.954E+02 5.798E+06 18.1288 1.00000
  4.467E+08 4.467E+08 2.499E+00 1.981E+01 3.665E+02 5.575E+01 4.421E+02 4.446E+02 5.914E+06 18.3591 1.00000
  5.012E+08 5.012E+08 2.510E+00 2.232E+01 4.115E+02 6.368E+01 4.975E+02 5.000E+02 6.030E+06 18.5893 1.00000
  5.623E+08 5.623E+08 2.522E+00 2.515E+01 4.619E+02 7.275E+01 5.598E+02 5.623E+02 6.146E+06 18.8196 1.00000
  6.310E+08 6.310E+08 2.534E+00 2.833E+01 5.185E+02 8.312E+01 6.299E+02 6.324E+02 6.261E+06 19.0498 1.00000
  7.079E+08 7.079E+08 2.545E+00 3.190E+01 5.819E+02 9.496E+01 7.088E+02 7.113E+02 6.376E+06 19.2801 1.00000
  7.943E+08 7.943E+08 2.557E+00 3.592E+01 6.532E+02 1.085E+02 7.976E+02 8.001E+02 6.491E+06 19.5104 1.00000
  8.913E+08 8.913E+08 2.569E+00 4.043E+01 7.331E+02 1.240E+02 8.975E+02 9.001E+02 6.605E+06 19.7406 1.00000
  1.000E+09 1.000E+09 2.581E+00 4.550E+01 8.228E+02 1.417E+02 1.010E+03 1.013E+03 6.719E+06 19.9709 1.00000
  1.122E+09 1.122E+09 2.593E+00 5.120E+01 9.234E+02 1.619E+02 1.137E+03 1.139E+03 6.833E+06 20.2011 1.00000
  1.259E+09 1.259E+09 2.605E+00 5.760E+01 1.036E+03 1.851E+02 1.279E+03 1.282E+03 6.946E+06 20.4314 1.00000
  1.413E+09 1.413E+09 2.617E+00 6.479E+01 1.163E+03 2.115E+02 1.439E+03 1.442E+03 7.060E+06 20.6616 1.00000
  1.585E+09 1.585E+09 2.629E+00 7.287E+01 1.305E+03 2.417E+02 1.620E+03 1.622E+03 7.173E+06 20.8919 1.00000
  1.778E+09 1.778E+09 2.641E+00 8.195E+01 1.465E+03 2.763E+02 1.823E+03 1.826E+03 7.285E+06 21.1222 1.00000
  1.995E+09 1.995E+09 2.653E+00 9.214E+01 1.644E+03 3.159E+02 2.052E+03 2.054E+03 7.397E+06 21.3524 1.00000
  2.239E+09 2.239E+09 2.666E+00 1.036E+02 1.844E+03 3.611E+02 2.309E+03 2.312E+03 7.509E+06 21.5827 1.00000
  2.512E+09 2.512E+09 2.678E+00 1.164E+02 2.070E+03 4.129E+02 2.599E+03 2.602E+03 7.621E+06 21.8129 1.00000
  2.818E+09 2.818E+09 2.690E+00 1.309E+02 2.323E+03 4.720E+02 2.925E+03 2.928E+03 7.732E+06 22.0432 1.00000
  3.162E+09 3.162E+09 2.703E+00 1.471E+02 2.606E+03 5.397E+02 3.293E+03 3.296E+03 7.843E+06 22.2735 1.00000
  3.548E+09 3.548E+09 2.716E+00 1.653E+02 2.924E+03 6.171E+02 3.707E+03 3.710E+03 7.954E+06 22.5037 1.00000
  3.981E+09 3.981E+09 2.728E+00 1.857E+02 3.282E+03 7.057E+02 4.173E+03 4.176E+03 8.064E+06 22.7340 1.00000
  4.467E+09 4.467E+09 2.741E+00 2.086E+02 3.682E+03 8.070E+02 4.698E+03 4.701E+03 8.174E+06 22.9642 1.00000
  5.012E+09 5.012E+09 2.754E+00 2.343E+02 4.132E+03 9.229E+02 5.289E+03 5.292E+03 8.283E+06 23.1945 1.00000
  5.623E+09 5.623E+09 2.767E+00 2.632E+02 4.636E+03 1.055E+03 5.955E+03 5.958E+03 8.392E+06 23.4247 1.00000
  6.310E+09 6.310E+09 2.780E+00 2.956E+02 5.202E+03 1.207E+03 6.705E+03 6.708E+03 8.501E+06 23.6550 1.00000
  7.079E+09 7.079E+09 2.793E+00 3.320E+02 5.837E+03 1.381E+03 7.550E+03 7.553E+03 8.609E+06 23.8853 1.00000
  7.943E+09 7.943E+09 2.806E+00 3.729E+02 6.550E+03 1.579E+03 8.502E+03 8.505E+03 8.717E+06 24.1155 1.00000
  8.913E+09 8.913E+09 2.819E+00 4.187E+02 7.349E+03 1.807E+03 9.574E+03 9.577E+03 8.825E+06 24.3458 1.00000
  1.000E+10 1.000E+10 2.832E+00 4.701E+02 8.246E+03 2.067E+03 1.078E+04 1.079E+04 8.932E+06 24.5760 1.00000
  1.122E+10 1.122E+10 2.846E+00 5.279E+02 9.252E+03 2.365E+03 1.214E+04 1.215E+04 9.039E+06 24.8063 1.00000
  1.259E+10 1.259E+10 2.859E+00 5.927E+02 1.038E+04 2.705E+03 1.368E+04 1.368E+04 9.145E+06 25.0366 1.00000
  1.413E+10 1.413E+10 2.872E+00 6.654E+02 1.165E+04 3.095E+03 1.541E+04 1.541E+04 9.251E+06 25.2668 1.00000
  1.585E+10 1.585E+10 2.886E+00 7.470E+02 1.307E+04 3.542E+03 1.736E+04 1.736E+04 9.357E+06 25.4971 1.00000
  1.778E+10 1.778E+10 2.900E+00 8.385E+02 1.466E+04 4.053E+03 1.956E+04 1.956E+04 9.462E+06 25.7273 1.00000
  1.995E+10 1.995E+10 2.913E+00 9.413E+02 1.645E+04 4.638E+03 2.203E+04 2.204E+04 9.566E+06 25.9576 1.00000
  2.239E+10 2.239E+10 2.927E+00 1.057E+03 1.846E+04 5.308E+03 2.483E+04 2.483E+04 9.671E+06 26.1879 1.00000
  2.512E+10 2.512E+10 2.941E+00 1.186E+03 2.071E+04 6.075E+03 2.797E+04 2.798E+04 9.775E+06 26.4181 1.00000
  2.818E+10 2.818E+10 2.955E+00 1.331E+03 2.324E+04 6.953E+03 3.153E+04 3.153E+04 9.878E+06 26.6484 1.00000
  3.162E+10 3.162E+10 2.969E+00 1.494E+03 2.608E+04 7.958E+03 3.553E+04 3.553E+04 9.981E+06 26.8786 1.00000
  3.548E+10 3.548E+10 2.983E+00 1.677E+03 2.926E+04 9.109E+03 4.004E+04 4.005E+04 1.008E+07 27.1089 1.00000
  3.981E+10 3.981E+10 2.997E+00 1.882E+03 3.283E+04 1.043E+04 4.514E+04 4.514E+04 1.019E+07 27.3391 1.00000
  4.467E+10 4.467E+10 3.012E+00 2.112E+03 3.683E+04 1.194E+04 5.088E+04 5.089E+04 1.029E+07 27.5694 1.00000
  5.012E+10 5.012E+10 3.026E+00 2.371E+03 4.133E+04 1.367E+04 5.736E+04 5.737E+04 1.039E+07 27.7997 1.00000
  5.623E+10 5.623E+10 3.040E+00 2.660E+03 4.637E+04 1.564E+04 6.467E+04 6.468E+04 1.049E+07 28.0299 1.00000
  6.310E+10 6.310E+10 3.055E+00 2.986E+03 5.203E+04 1.791E+04 7.292E+04 7.293E+04 1.059E+07 28.2602 1.00000
  7.079E+10 7.079E+10 3.069E+00 3.350E+03 5.837E+04 2.051E+04 8.223E+04 8.224E+04 1.069E+07 28.4904 1.00000
  7.943E+10 7.943E+10 3.084E+00 3.760E+03 6.549E+04 2.349E+04 9.274E+04 9.274E+04 1.079E+07 28.7207 1.00000
  8.913E+10 8.913E+10 3.099E+00 4.219E+03 7.348E+04 2.689E+04 1.046E+05 1.046E+05 1.089E+07 28.9510 1.00000
  1.000E+11 1.000E+11 3.114E+00 4.735E+03 8.245E+04 3.080E+04 1.180E+05 1.180E+05 1.098E+07 29.1812 1.00000
  1.122E+11 1.122E+11 3.129E+00 5.313E+03 9.251E+04 3.527E+04 1.331E+05 1.331E+05 1.108E+07 29.4115 1.00000
  1.259E+11 1.259E+11 3.144E+00 5.962E+03 1.038E+05 4.040E+04 1.502E+05 1.502E+05 1.118E+07 29.6417 1.00000
  1.413E+11 1.413E+11 3.159E+00 6.690E+03 1.165E+05 4.627E+04 1.694E+05 1.694E+05 1.128E+07 29.8720 1.00000
  1.585E+11 1.585E+11 3.174E+00 7.507E+03 1.307E+05 5.300E+04 1.912E+05 1.912E+05 1.137E+07 30.1022 1.00000
  1.778E+11 1.778E+11 3.189E+00 8.424E+03 1.466E+05 6.071E+04 2.157E+05 2.157E+05 1.147E+07 30.3325 1.00000
  1.995E+11 1.995E+11 3.205E+00 9.452E+03 1.645E+05 6.954E+04 2.435E+05 2.435E+05 1.156E+07 30.5628 1.00000
  2.239E+11 2.239E+11 3.220E+00 1.061E+04 1.845E+05 7.967E+04 2.748E+05 2.748E+05 1.166E+07 30.7930 1.00000
  2.512E+11 2.512E+11 3.235E+00 1.190E+04 2.071E+05 9.127E+04 3.102E+05 3.102E+05 1.175E+07 31.0233 1.00000
  2.818E+11 2.818E+11 3.251E+00 1.335E+04 2.323E+05 1.046E+05 3.502E+05 3.503E+05 1.184E+07 31.2535 1.00000
  3.162E+11 3.162E+11 3.267E+00 1.498E+04 2.607E+05 1.198E+05 3.955E+05 3.955E+05 1.193E+07 31.4838 1.00000
  3.548E+11 3.548E+11 3.283E+00 1.681E+04 2.925E+05 1.373E+05 4.466E+05 4.466E+05 1.203E+07 31.7141 1.00000
  3.981E+11 3.981E+11 3.298E+00 1.887E+04 3.281E+05 1.573E+05 5.043E+05 5.043E+05 1.212E+07 31.9443 1.00000
  4.467E+11 4.467E+11 3.314E+00 2.117E+04 3.682E+05 1.803E+05 5.696E+05 5.696E+05 1.221E+07 32.1746 1.00000
  5.012E+11 5.012E+11 3.330E+00 2.375E+04 4.131E+05 2.066E+05 6.434E+05 6.434E+05 1.230E+07 32.4048 1.00000
  5.623E+11 5.623E+11 3.347E+00 2.665E+04 4.634E+05 2.368E+05 7.269E+05 7.269E+05 1.239E+07 32.6351 1.00000
  6.310E+11 6.310E+11 3.363E+00 2.990E+04 5.200E+05 2.714E+05 8.213E+05 8.213E+05 1.248E+07 32.8653 1.00000
  7.079E+11 7.079E+11 3.379E+00 3.355E+04 5.834E+05 3.111E+05 9.280E+05 9.280E+05 1.257E+07 33.0956 1.00000
  7.943E+11 7.943E+11 3.396E+00 3.765E+04 6.546E+05 3.566E+05 1.049E+06 1.049E+06 1.265E+07 33.3259 1.00000
  8.913E+11 8.913E+11 3.412E+00 4.224E+04 7.344E+05 4.087E+05 1.185E+06 1.185E+06 1.274E+07 33.5561 1.00000
  1.000E+12 1.000E+12 3.429E+00 4.740E+04 8.240E+05 4.686E+05 1.340E+06 1.340E+06 1.283E+07 33.7864 1.00000
  1.122E+12 1.122E+12 3.445E+00 5.318E+04 9.245E+05 5.372E+05 1.515E+06 1.515E+06 1.291E+07 34.0166 1.00000
  1.259E+12 1.259E+12 3.462E+00 5.967E+04 1.037E+06 6.159E+05 1.713E+06 1.713E+06 1.300E+07 34.2469 1.00000
  1.413E+12 1.413E+12 3.479E+00 6.695E+04 1.164E+06 7.061E+05 1.937E+06 1.937E+06 1.308E+07 34.4772 1.00000
  1.585E+12 1.585E+12 3.496E+00 7.512E+04 1.306E+06 8.096E+05 2.190E+06 2.190E+06 1.317E+07 34.7074 1.00000
  1.778E+12 1.778E+12 3.513E+00 8.429E+04 1.465E+06 9.284E+05 2.478E+06 2.478E+06 1.325E+07 34.9377 1.00000
  1.995E+12 1.995E+12 3.530E+00 9.458E+04 1.644E+06 1.065E+06 2.803E+06 2.803E+06 1.333E+07 35.1679 1.00000
  2.239E+12 2.239E+12 3.547E+00 1.061E+05 1.844E+06 1.221E+06 3.171E+06 3.171E+06 1.341E+07 35.3982 1.00000
  2.512E+12 2.512E+12 3.565E+00 1.191E+05 2.069E+06 1.400E+06 3.588E+06 3.588E+06 1.350E+07 35.6284 1.00000
  2.818E+12 2.818E+12 3.582E+00 1.336E+05 2.321E+06 1.606E+06 4.061E+06 4.061E+06 1.358E+07 35.8587 1.00000
  3.162E+12 3.162E+12 3.600E+00 1.499E+05 2.605E+06 1.842E+06 4.596E+06 4.596E+06 1.366E+07 36.0890 1.00000
  3.548E+12 3.548E+12 3.617E+00 1.682E+05 2.922E+06 2.112E+06 5.203E+06 5.203E+06 1.373E+07 36.3192 1.00000
  3.981E+12 3.981E+12 3.635E+00 1.887E+05 3.279E+06 2.423E+06 5.891E+06 5.891E+06 1.381E+07 36.5495 1.00000
  4.467E+12 4.467E+12 3.653E+00 2.117E+05 3.679E+06 2.780E+06 6.670E+06 6.670E+06 1.389E+07 36.7797 1.00000
  5.012E+12 5.012E+12 3.671E+00 2.376E+05 4.127E+06 3.189E+06 7.554E+06 7.554E+06 1.397E+07 37.0100 1.00000
  5.623E+12 5.623E+12 3.689E+00 2.666E+05 4.631E+06 3.658E+06 8.556E+06 8.556E+06 1.404E+07 37.2403 1.00000
  6.310E+12 6.310E+12 3.707E+00 2.991E+05 5.196E+06 4.197E+06 9.692E+06 9.692E+06 1.412E+07 37.4705 1.00000
  7.079E+12 7.079E+12 3.725E+00 3.356E+05 5.829E+06 4.816E+06 1.098E+07 1.098E+07 1.419E+07 37.7008 1.00000
  7.943E+12 7.943E+12 3.743E+00 3.765E+05 6.540E+06 5.525E+06 1.244E+07 1.244E+07 1.427E+07 37.9310 1.00000
  8.913E+12 8.913E+12 3.762E+00 4.225E+05 7.338E+06 6.340E+06 1.410E+07 1.410E+07 1.434E+07 38.1613 1.00000
  1.000E+13 1.000E+13 3.780E+00 4.740E+05 8.233E+06 7.275E+06 1.598E+07 1.598E+07 1.441E+07 38.3916 1.00000
  1.122E+13 1.122E+13 3.799E+00 5.319E+05 9.237E+06 8.349E+06 1.812E+07 1.812E+07 1.449E+07 38.6218 1.00000
  1.259E+13 1.259E+13 3.818E+00 5.968E+05 1.036E+07 9.582E+06 2.054E+07 2.054E+07 1.456E+07 38.8521 1.00000
  1.413E+13 1.413E+13 3.837E+00 6.696E+05 1.163E+07 1.100E+07 2.329E+07 2.329E+07 1.463E+07 39.0823 1.00000
  1.585E+13 1.585E+13 3.856E+00 7.513E+05 1.305E+07 1.262E+07 2.642E+07 2.642E+07 1.470E+07 39.3126 1.00000
  1.778E+13 1.778E+13 3.875E+00 8.430E+05 1.464E+07 1.449E+07 2.997E+07 2.997E+07 1.477E+07 39.5428 1.00000
  1.995E+13 1.995E+13 3.894E+00 9.458E+05 1.642E+07 1.663E+07 3.400E+07 3.400E+07 1.483E+07 39.7731 1.00000
  2.239E+13 2.239E+13 3.913E+00 1.061E+06 1.842E+07 1.909E+07 3.857E+07 3.857E+07 1.490E+07 40.0034 1.00000
  2.512E+13 2.512E+13 3.932E+00 1.191E+06 2.067E+07 2.191E+07 4.377E+07 4.377E+07 1.497E+07 40.2336 1.00000
  2.818E+13 2.818E+13 3.952E+00 1.336E+06 2.319E+07 2.516E+07 4.968E+07 4.968E+07 1.503E+07 40.4639 1.00000
  3.162E+13 3.162E+13 3.971E+00 1.499E+06 2.602E+07 2.888E+07 5.640E+07 5.640E+07 1.510E+07 40.6941 1.00000
  3.548E+13 3.548E+13 3.991E+00 1.682E+06 2.919E+07 3.316E+07 6.404E+07 6.404E+07 1.516E+07 40.9244 1.00000
  3.981E+13 3.981E+13 4.011E+00 1.887E+06 3.275E+07 3.807E+07 7.271E+07 7.271E+07 1.523E+07 41.1547 1.00000
  4.467E+13 4.467E+13 4.030E+00 2.117E+06 3.675E+07 4.372E+07 8.258E+07 8.258E+07 1.529E+07 41.3849 1.00000
  5.012E+13 5.012E+13 4.050E+00 2.376E+06 4.123E+07 5.020E+07 9.381E+07 9.381E+07 1.535E+07 41.6152 1.00000
  5.623E+13 5.623E+13 4.071E+00 2.666E+06 4.626E+07 5.765E+07 1.066E+08 1.066E+08 1.541E+07 41.8454 1.00000
  6.310E+13 6.310E+13 4.091E+00 2.991E+06 5.190E+07 6.620E+07 1.211E+08 1.211E+08 1.547E+07 42.0757 1.00000
  7.079E+13 7.079E+13 4.111E+00 3.356E+06 5.823E+07 7.603E+07 1.376E+08 1.376E+08 1.553E+07 42.3059 1.00000
  7.943E+13 7.943E+13 4.131E+00 3.765E+06 6.533E+07 8.732E+07 1.564E+08 1.564E+08 1.559E+07 42.5362 1.00000
  8.913E+13 8.913E+13 4.152E+00 4.225E+06 7.330E+07 1.003E+08 1.778E+08 1.778E+08 1.565E+07 42.7665 1.00000
