 Incident particle is a Tau with M = 1776.82000 MeV
 Index = 0: Dysprosium
      Absorber with <Z/A> = 0.40615
 Sternheimer coef:  a     k=m_s   x_0    x_1    I[eV]   Cbar  delta0
                 0.2466  2.5849  0.0822  3.4474  628.0  5.9182 0.14

 *** Table generated with PUMAS v1.00 ***

      T         p     Ionization  brems     pair     photonuc  Radloss    dE/dx   CSDA Range  delta   beta
    [MeV]    [MeV/c]  -----------------------[MeV cm^2/g]------------------------  [g/cm^2]
  1.000E+05 1.018E+05 1.621E+00 8.793E-04 1.542E-02 7.611E-03 2.391E-02 1.645E+00 3.040E+04  3.1339 0.99985
  1.122E+05 1.140E+05 1.640E+00 1.019E-03 1.847E-02 8.545E-03 2.803E-02 1.668E+00 3.777E+04  3.2901 0.99988
  1.259E+05 1.277E+05 1.658E+00 1.181E-03 2.205E-02 9.545E-03 3.277E-02 1.691E+00 4.593E+04  3.4499 0.99990
  1.413E+05 1.430E+05 1.677E+00 1.368E-03 2.625E-02 1.066E-02 3.828E-02 1.715E+00 5.494E+04  3.6131 0.99992
  1.585E+05 1.603E+05 1.695E+00 1.583E-03 3.118E-02 1.191E-02 4.467E-02 1.740E+00 6.492E+04  3.7797 0.99994
  1.778E+05 1.796E+05 1.714E+00 1.831E-03 3.693E-02 1.329E-02 5.206E-02 1.766E+00 7.595E+04  3.9496 0.99995
  1.995E+05 2.013E+05 1.732E+00 2.116E-03 4.365E-02 1.486E-02 6.063E-02 1.793E+00 8.815E+04  4.1228 0.99996
  2.239E+05 2.256E+05 1.750E+00 2.445E-03 5.147E-02 1.656E-02 7.048E-02 1.820E+00 1.016E+05  4.2992 0.99997
  2.512E+05 2.530E+05 1.768E+00 2.823E-03 6.056E-02 1.847E-02 8.185E-02 1.850E+00 1.165E+05  4.4787 0.99998
  2.818E+05 2.836E+05 1.785E+00 3.257E-03 7.111E-02 2.060E-02 9.496E-02 1.880E+00 1.329E+05  4.6612 0.99998
  3.162E+05 3.180E+05 1.803E+00 3.757E-03 8.332E-02 2.299E-02 1.101E-01 1.913E+00 1.511E+05  4.8468 0.99998
  3.548E+05 3.566E+05 1.820E+00 4.331E-03 9.744E-02 2.567E-02 1.274E-01 1.948E+00 1.711E+05  5.0351 0.99999
  3.981E+05 3.999E+05 1.837E+00 4.989E-03 1.137E-01 2.865E-02 1.474E-01 1.985E+00 1.931E+05  5.2264 0.99999
  4.467E+05 4.485E+05 1.854E+00 5.745E-03 1.325E-01 3.197E-02 1.702E-01 2.025E+00 2.173E+05  5.4203 0.99999
  5.012E+05 5.030E+05 1.871E+00 6.611E-03 1.541E-01 3.570E-02 1.964E-01 2.067E+00 2.440E+05  5.6169 0.99999
  5.623E+05 5.641E+05 1.888E+00 7.605E-03 1.790E-01 3.971E-02 2.263E-01 2.114E+00 2.732E+05  5.8161 1.00000
  6.310E+05 6.327E+05 1.904E+00 8.743E-03 2.075E-01 4.422E-02 2.604E-01 2.164E+00 3.053E+05  6.0178 1.00000
  7.079E+05 7.097E+05 1.920E+00 1.005E-02 2.402E-01 4.929E-02 2.995E-01 2.220E+00 3.404E+05  6.2219 1.00000
  7.943E+05 7.961E+05 1.936E+00 1.154E-02 2.776E-01 5.501E-02 3.441E-01 2.280E+00 3.788E+05  6.4284 1.00000
  8.913E+05 8.930E+05 1.952E+00 1.325E-02 3.203E-01 6.145E-02 3.950E-01 2.347E+00 4.207E+05  6.6371 1.00000
  1.000E+06 1.002E+06 1.968E+00 1.520E-02 3.692E-01 6.872E-02 4.531E-01 2.421E+00 4.664E+05  6.8479 1.00000
  1.122E+06 1.124E+06 1.983E+00 1.744E-02 4.250E-01 7.692E-02 5.193E-01 2.502E+00 5.159E+05  7.0609 1.00000
  1.259E+06 1.261E+06 1.998E+00 1.999E-02 4.885E-01 8.620E-02 5.947E-01 2.593E+00 5.697E+05  7.2758 1.00000
  1.413E+06 1.414E+06 2.013E+00 2.291E-02 5.608E-01 9.669E-02 6.804E-01 2.694E+00 6.278E+05  7.4927 1.00000
  1.585E+06 1.587E+06 2.028E+00 2.624E-02 6.431E-01 1.086E-01 7.779E-01 2.806E+00 6.906E+05  7.7113 1.00000
  1.778E+06 1.780E+06 2.042E+00 3.005E-02 7.366E-01 1.220E-01 8.887E-01 2.931E+00 7.580E+05  7.9316 1.00000
  1.995E+06 1.997E+06 2.057E+00 3.439E-02 8.428E-01 1.373E-01 1.014E+00 3.071E+00 8.303E+05  8.1536 1.00000
  2.239E+06 2.240E+06 2.071E+00 3.934E-02 9.632E-01 1.546E-01 1.157E+00 3.228E+00 9.077E+05  8.3770 1.00000
  2.512E+06 2.514E+06 2.085E+00 4.500E-02 1.100E+00 1.742E-01 1.319E+00 3.404E+00 9.901E+05  8.6018 1.00000
  2.818E+06 2.820E+06 2.099E+00 5.144E-02 1.254E+00 1.965E-01 1.502E+00 3.601E+00 1.078E+06  8.8279 1.00000
  3.162E+06 3.164E+06 2.112E+00 5.878E-02 1.429E+00 2.219E-01 1.710E+00 3.823E+00 1.170E+06  9.0551 1.00000
  3.548E+06 3.550E+06 2.126E+00 6.715E-02 1.628E+00 2.507E-01 1.945E+00 4.071E+00 1.268E+06  9.2832 1.00000
  3.981E+06 3.983E+06 2.139E+00 7.668E-02 1.851E+00 2.834E-01 2.211E+00 4.351E+00 1.371E+06  9.5122 1.00000
  4.467E+06 4.469E+06 2.152E+00 8.753E-02 2.104E+00 3.207E-01 2.512E+00 4.665E+00 1.479E+06  9.7419 1.00000
  5.012E+06 5.014E+06 2.165E+00 9.988E-02 2.390E+00 3.630E-01 2.853E+00 5.018E+00 1.592E+06  9.9720 1.00000
  5.623E+06 5.625E+06 2.178E+00 1.139E-01 2.712E+00 4.113E-01 3.237E+00 5.415E+00 1.709E+06 10.2022 1.00000
  6.310E+06 6.311E+06 2.190E+00 1.299E-01 3.076E+00 4.662E-01 3.672E+00 5.862E+00 1.831E+06 10.4324 1.00000
  7.079E+06 7.081E+06 2.203E+00 1.481E-01 3.486E+00 5.287E-01 4.163E+00 6.366E+00 1.957E+06 10.6626 1.00000
  7.943E+06 7.945E+06 2.215E+00 1.687E-01 3.948E+00 5.999E-01 4.717E+00 6.932E+00 2.087E+06 10.8928 1.00000
  8.913E+06 8.914E+06 2.228E+00 1.922E-01 4.469E+00 6.810E-01 5.342E+00 7.570E+00 2.221E+06 11.1230 1.00000
  1.000E+07 1.000E+07 2.240E+00 2.189E-01 5.055E+00 7.734E-01 6.048E+00 8.287E+00 2.359E+06 11.3532 1.00000
  1.122E+07 1.122E+07 2.252E+00 2.491E-01 5.716E+00 8.788E-01 6.844E+00 9.095E+00 2.499E+06 11.5834 1.00000
  1.259E+07 1.259E+07 2.264E+00 2.835E-01 6.459E+00 9.988E-01 7.741E+00 1.001E+01 2.643E+06 11.8136 1.00000
  1.413E+07 1.413E+07 2.276E+00 3.225E-01 7.296E+00 1.136E+00 8.754E+00 1.103E+01 2.790E+06 12.0439 1.00000
  1.585E+07 1.585E+07 2.287E+00 3.667E-01 8.237E+00 1.292E+00 9.895E+00 1.218E+01 2.938E+06 12.2741 1.00000
  1.778E+07 1.778E+07 2.299E+00 4.169E-01 9.295E+00 1.470E+00 1.118E+01 1.348E+01 3.090E+06 12.5043 1.00000
  1.995E+07 1.995E+07 2.311E+00 4.738E-01 1.049E+01 1.673E+00 1.263E+01 1.494E+01 3.243E+06 12.7346 1.00000
  2.239E+07 2.239E+07 2.322E+00 5.382E-01 1.182E+01 1.905E+00 1.427E+01 1.659E+01 3.397E+06 12.9648 1.00000
  2.512E+07 2.512E+07 2.334E+00 6.113E-01 1.333E+01 2.169E+00 1.611E+01 1.844E+01 3.554E+06 13.1950 1.00000
  2.818E+07 2.819E+07 2.345E+00 6.940E-01 1.502E+01 2.470E+00 1.818E+01 2.053E+01 3.712E+06 13.4253 1.00000
  3.162E+07 3.162E+07 2.356E+00 7.877E-01 1.692E+01 2.814E+00 2.052E+01 2.288E+01 3.871E+06 13.6555 1.00000
  3.548E+07 3.548E+07 2.368E+00 8.937E-01 1.905E+01 3.207E+00 2.315E+01 2.552E+01 4.030E+06 13.8858 1.00000
  3.981E+07 3.981E+07 2.379E+00 1.014E+00 2.145E+01 3.655E+00 2.612E+01 2.850E+01 4.191E+06 14.1160 1.00000
  4.467E+07 4.467E+07 2.390E+00 1.149E+00 2.414E+01 4.166E+00 2.946E+01 3.185E+01 4.353E+06 14.3463 1.00000
  5.012E+07 5.012E+07 2.402E+00 1.303E+00 2.717E+01 4.750E+00 3.322E+01 3.562E+01 4.515E+06 14.5765 1.00000
  5.623E+07 5.624E+07 2.413E+00 1.476E+00 3.056E+01 5.416E+00 3.746E+01 3.987E+01 4.677E+06 14.8068 1.00000
  6.310E+07 6.310E+07 2.424E+00 1.672E+00 3.438E+01 6.177E+00 4.223E+01 4.465E+01 4.840E+06 15.0370 1.00000
  7.079E+07 7.080E+07 2.435E+00 1.894E+00 3.866E+01 7.045E+00 4.760E+01 5.004E+01 5.003E+06 15.2673 1.00000
  7.943E+07 7.943E+07 2.447E+00 2.144E+00 4.347E+01 8.037E+00 5.365E+01 5.610E+01 5.167E+06 15.4975 1.00000
  8.913E+07 8.913E+07 2.458E+00 2.426E+00 4.887E+01 9.169E+00 6.047E+01 6.293E+01 5.330E+06 15.7278 1.00000
  1.000E+08 1.000E+08 2.469E+00 2.745E+00 5.493E+01 1.046E+01 6.814E+01 7.061E+01 5.494E+06 15.9580 1.00000
  1.122E+08 1.122E+08 2.481E+00 3.105E+00 6.174E+01 1.194E+01 7.678E+01 7.926E+01 5.657E+06 16.1883 1.00000
  1.259E+08 1.259E+08 2.492E+00 3.510E+00 6.938E+01 1.363E+01 8.651E+01 8.901E+01 5.820E+06 16.4185 1.00000
  1.413E+08 1.413E+08 2.504E+00 3.968E+00 7.795E+01 1.555E+01 9.747E+01 9.998E+01 5.983E+06 16.6488 1.00000
  1.585E+08 1.585E+08 2.515E+00 4.484E+00 8.758E+01 1.775E+01 1.098E+02 1.123E+02 6.146E+06 16.8791 1.00000
  1.778E+08 1.778E+08 2.526E+00 5.066E+00 9.838E+01 2.026E+01 1.237E+02 1.262E+02 6.309E+06 17.1093 1.00000
  1.995E+08 1.995E+08 2.538E+00 5.722E+00 1.105E+02 2.314E+01 1.394E+02 1.419E+02 6.471E+06 17.3396 1.00000
  2.239E+08 2.239E+08 2.550E+00 6.460E+00 1.241E+02 2.641E+01 1.570E+02 1.595E+02 6.633E+06 17.5698 1.00000
  2.512E+08 2.512E+08 2.561E+00 7.292E+00 1.394E+02 3.016E+01 1.768E+02 1.794E+02 6.795E+06 17.8001 1.00000
  2.818E+08 2.818E+08 2.573E+00 8.229E+00 1.565E+02 3.444E+01 1.992E+02 2.018E+02 6.956E+06 18.0303 1.00000
  3.162E+08 3.162E+08 2.585E+00 9.284E+00 1.758E+02 3.933E+01 2.244E+02 2.270E+02 7.117E+06 18.2606 1.00000
  3.548E+08 3.548E+08 2.596E+00 1.047E+01 1.973E+02 4.492E+01 2.527E+02 2.553E+02 7.278E+06 18.4909 1.00000
  3.981E+08 3.981E+08 2.608E+00 1.181E+01 2.216E+02 5.131E+01 2.847E+02 2.873E+02 7.438E+06 18.7211 1.00000
  4.467E+08 4.467E+08 2.620E+00 1.331E+01 2.487E+02 5.861E+01 3.207E+02 3.233E+02 7.598E+06 18.9514 1.00000
  5.012E+08 5.012E+08 2.632E+00 1.500E+01 2.792E+02 6.695E+01 3.612E+02 3.638E+02 7.757E+06 19.1816 1.00000
  5.623E+08 5.623E+08 2.644E+00 1.691E+01 3.135E+02 7.649E+01 4.069E+02 4.095E+02 7.916E+06 19.4119 1.00000
  6.310E+08 6.310E+08 2.656E+00 1.905E+01 3.519E+02 8.738E+01 4.583E+02 4.610E+02 8.074E+06 19.6421 1.00000
  7.079E+08 7.079E+08 2.668E+00 2.145E+01 3.950E+02 9.984E+01 5.163E+02 5.189E+02 8.232E+06 19.8724 1.00000
  7.943E+08 7.943E+08 2.680E+00 2.416E+01 4.433E+02 1.141E+02 5.816E+02 5.842E+02 8.389E+06 20.1027 1.00000
  8.913E+08 8.913E+08 2.693E+00 2.720E+01 4.976E+02 1.304E+02 6.551E+02 6.578E+02 8.545E+06 20.3329 1.00000
  1.000E+09 1.000E+09 2.705E+00 3.062E+01 5.585E+02 1.490E+02 7.381E+02 7.408E+02 8.701E+06 20.5632 1.00000
  1.122E+09 1.122E+09 2.717E+00 3.446E+01 6.268E+02 1.702E+02 8.315E+02 8.342E+02 8.857E+06 20.7934 1.00000
  1.259E+09 1.259E+09 2.730E+00 3.878E+01 7.035E+02 1.946E+02 9.368E+02 9.395E+02 9.012E+06 21.0237 1.00000
  1.413E+09 1.413E+09 2.742E+00 4.363E+01 7.895E+02 2.224E+02 1.055E+03 1.058E+03 9.166E+06 21.2539 1.00000
  1.585E+09 1.585E+09 2.755E+00 4.908E+01 8.860E+02 2.542E+02 1.189E+03 1.192E+03 9.320E+06 21.4842 1.00000
  1.778E+09 1.778E+09 2.768E+00 5.520E+01 9.943E+02 2.905E+02 1.340E+03 1.343E+03 9.473E+06 21.7145 1.00000
  1.995E+09 1.995E+09 2.780E+00 6.208E+01 1.116E+03 3.321E+02 1.510E+03 1.513E+03 9.626E+06 21.9447 1.00000
  2.239E+09 2.239E+09 2.793E+00 6.980E+01 1.252E+03 3.797E+02 1.702E+03 1.704E+03 9.777E+06 22.1750 1.00000
  2.512E+09 2.512E+09 2.806E+00 7.847E+01 1.405E+03 4.340E+02 1.918E+03 1.920E+03 9.929E+06 22.4052 1.00000
  2.818E+09 2.818E+09 2.819E+00 8.821E+01 1.577E+03 4.963E+02 2.161E+03 2.164E+03 1.008E+07 22.6355 1.00000
  3.162E+09 3.162E+09 2.832E+00 9.915E+01 1.769E+03 5.674E+02 2.436E+03 2.439E+03 1.023E+07 22.8658 1.00000
  3.548E+09 3.548E+09 2.845E+00 1.114E+02 1.985E+03 6.488E+02 2.746E+03 2.748E+03 1.038E+07 23.0960 1.00000
  3.981E+09 3.981E+09 2.858E+00 1.252E+02 2.228E+03 7.419E+02 3.095E+03 3.098E+03 1.053E+07 23.3263 1.00000
  4.467E+09 4.467E+09 2.871E+00 1.407E+02 2.500E+03 8.484E+02 3.489E+03 3.492E+03 1.068E+07 23.5565 1.00000
  5.012E+09 5.012E+09 2.885E+00 1.581E+02 2.805E+03 9.703E+02 3.933E+03 3.936E+03 1.082E+07 23.7868 1.00000
  5.623E+09 5.623E+09 2.898E+00 1.776E+02 3.148E+03 1.110E+03 4.435E+03 4.438E+03 1.097E+07 24.0170 1.00000
  6.310E+09 6.310E+09 2.911E+00 1.995E+02 3.532E+03 1.269E+03 5.001E+03 5.003E+03 1.111E+07 24.2473 1.00000
  7.079E+09 7.079E+09 2.925E+00 2.240E+02 3.963E+03 1.452E+03 5.639E+03 5.642E+03 1.126E+07 24.4776 1.00000
  7.943E+09 7.943E+09 2.939E+00 2.516E+02 4.447E+03 1.661E+03 6.359E+03 6.362E+03 1.140E+07 24.7078 1.00000
  8.913E+09 8.913E+09 2.952E+00 2.826E+02 4.989E+03 1.900E+03 7.172E+03 7.175E+03 1.155E+07 24.9381 1.00000
  1.000E+10 1.000E+10 2.966E+00 3.173E+02 5.598E+03 2.173E+03 8.089E+03 8.092E+03 1.169E+07 25.1683 1.00000
  1.122E+10 1.122E+10 2.980E+00 3.563E+02 6.282E+03 2.486E+03 9.124E+03 9.127E+03 1.183E+07 25.3986 1.00000
  1.259E+10 1.259E+10 2.994E+00 4.001E+02 7.048E+03 2.844E+03 1.029E+04 1.030E+04 1.198E+07 25.6289 1.00000
  1.413E+10 1.413E+10 3.008E+00 4.492E+02 7.909E+03 3.254E+03 1.161E+04 1.162E+04 1.212E+07 25.8591 1.00000
  1.585E+10 1.585E+10 3.022E+00 5.043E+02 8.874E+03 3.724E+03 1.310E+04 1.310E+04 1.226E+07 26.0894 1.00000
  1.778E+10 1.778E+10 3.036E+00 5.661E+02 9.956E+03 4.261E+03 1.478E+04 1.479E+04 1.239E+07 26.3196 1.00000
  1.995E+10 1.995E+10 3.050E+00 6.356E+02 1.117E+04 4.876E+03 1.668E+04 1.669E+04 1.253E+07 26.5499 1.00000
  2.239E+10 2.239E+10 3.064E+00 7.135E+02 1.253E+04 5.580E+03 1.883E+04 1.883E+04 1.267E+07 26.7802 1.00000
  2.512E+10 2.512E+10 3.079E+00 8.009E+02 1.406E+04 6.387E+03 2.125E+04 2.125E+04 1.281E+07 27.0104 1.00000
  2.818E+10 2.818E+10 3.093E+00 8.989E+02 1.578E+04 7.310E+03 2.399E+04 2.399E+04 1.294E+07 27.2407 1.00000
  3.162E+10 3.162E+10 3.108E+00 1.009E+03 1.771E+04 8.366E+03 2.708E+04 2.708E+04 1.308E+07 27.4709 1.00000
  3.548E+10 3.548E+10 3.122E+00 1.133E+03 1.987E+04 9.577E+03 3.057E+04 3.058E+04 1.321E+07 27.7012 1.00000
  3.981E+10 3.981E+10 3.137E+00 1.271E+03 2.229E+04 1.096E+04 3.452E+04 3.453E+04 1.335E+07 27.9314 1.00000
  4.467E+10 4.467E+10 3.152E+00 1.427E+03 2.501E+04 1.255E+04 3.898E+04 3.899E+04 1.348E+07 28.1617 1.00000
  5.012E+10 5.012E+10 3.167E+00 1.601E+03 2.806E+04 1.437E+04 4.403E+04 4.403E+04 1.361E+07 28.3920 1.00000
  5.623E+10 5.623E+10 3.182E+00 1.797E+03 3.148E+04 1.645E+04 4.973E+04 4.973E+04 1.374E+07 28.6222 1.00000
  6.310E+10 6.310E+10 3.197E+00 2.017E+03 3.532E+04 1.883E+04 5.617E+04 5.618E+04 1.387E+07 28.8525 1.00000
  7.079E+10 7.079E+10 3.212E+00 2.263E+03 3.963E+04 2.156E+04 6.346E+04 6.346E+04 1.400E+07 29.0827 1.00000
  7.943E+10 7.943E+10 3.227E+00 2.540E+03 4.447E+04 2.469E+04 7.170E+04 7.170E+04 1.413E+07 29.3130 1.00000
  8.913E+10 8.913E+10 3.242E+00 2.850E+03 4.989E+04 2.827E+04 8.102E+04 8.102E+04 1.426E+07 29.5433 1.00000
  1.000E+11 1.000E+11 3.258E+00 3.198E+03 5.598E+04 3.238E+04 9.156E+04 9.156E+04 1.438E+07 29.7735 1.00000
  1.122E+11 1.122E+11 3.273E+00 3.589E+03 6.281E+04 3.708E+04 1.035E+05 1.035E+05 1.451E+07 30.0038 1.00000
  1.259E+11 1.259E+11 3.289E+00 4.028E+03 7.047E+04 4.247E+04 1.170E+05 1.170E+05 1.463E+07 30.2340 1.00000
  1.413E+11 1.413E+11 3.305E+00 4.520E+03 7.907E+04 4.864E+04 1.322E+05 1.322E+05 1.476E+07 30.4643 1.00000
  1.585E+11 1.585E+11 3.320E+00 5.072E+03 8.871E+04 5.572E+04 1.495E+05 1.495E+05 1.488E+07 30.6945 1.00000
  1.778E+11 1.778E+11 3.336E+00 5.691E+03 9.954E+04 6.382E+04 1.691E+05 1.691E+05 1.500E+07 30.9248 1.00000
  1.995E+11 1.995E+11 3.352E+00 6.386E+03 1.117E+05 7.311E+04 1.912E+05 1.912E+05 1.512E+07 31.1551 1.00000
  2.239E+11 2.239E+11 3.368E+00 7.166E+03 1.253E+05 8.376E+04 2.162E+05 2.162E+05 1.524E+07 31.3853 1.00000
  2.512E+11 2.512E+11 3.384E+00 8.041E+03 1.406E+05 9.596E+04 2.446E+05 2.446E+05 1.536E+07 31.6156 1.00000
  2.818E+11 2.818E+11 3.400E+00 9.022E+03 1.577E+05 1.099E+05 2.767E+05 2.767E+05 1.548E+07 31.8458 1.00000
  3.162E+11 3.162E+11 3.417E+00 1.012E+04 1.770E+05 1.260E+05 3.131E+05 3.131E+05 1.560E+07 32.0761 1.00000
  3.548E+11 3.548E+11 3.433E+00 1.136E+04 1.986E+05 1.443E+05 3.543E+05 3.543E+05 1.571E+07 32.3064 1.00000
  3.981E+11 3.981E+11 3.449E+00 1.275E+04 2.228E+05 1.654E+05 4.009E+05 4.009E+05 1.583E+07 32.5366 1.00000
  4.467E+11 4.467E+11 3.466E+00 1.430E+04 2.500E+05 1.895E+05 4.538E+05 4.538E+05 1.594E+07 32.7669 1.00000
  5.012E+11 5.012E+11 3.483E+00 1.605E+04 2.805E+05 2.172E+05 5.137E+05 5.137E+05 1.606E+07 32.9971 1.00000
  5.623E+11 5.623E+11 3.499E+00 1.801E+04 3.147E+05 2.490E+05 5.816E+05 5.816E+05 1.617E+07 33.2274 1.00000
  6.310E+11 6.310E+11 3.516E+00 2.020E+04 3.531E+05 2.853E+05 6.586E+05 6.586E+05 1.628E+07 33.4576 1.00000
  7.079E+11 7.079E+11 3.533E+00 2.267E+04 3.961E+05 3.270E+05 7.458E+05 7.458E+05 1.639E+07 33.6879 1.00000
  7.943E+11 7.943E+11 3.550E+00 2.544E+04 4.444E+05 3.749E+05 8.447E+05 8.448E+05 1.650E+07 33.9182 1.00000
  8.913E+11 8.913E+11 3.567E+00 2.854E+04 4.986E+05 4.297E+05 9.569E+05 9.569E+05 1.661E+07 34.1484 1.00000
  1.000E+12 1.000E+12 3.584E+00 3.202E+04 5.595E+05 4.926E+05 1.084E+06 1.084E+06 1.671E+07 34.3787 1.00000
  1.122E+12 1.122E+12 3.602E+00 3.593E+04 6.277E+05 5.648E+05 1.228E+06 1.228E+06 1.682E+07 34.6089 1.00000
  1.259E+12 1.259E+12 3.619E+00 4.032E+04 7.043E+05 6.475E+05 1.392E+06 1.392E+06 1.692E+07 34.8392 1.00000
  1.413E+12 1.413E+12 3.637E+00 4.524E+04 7.902E+05 7.424E+05 1.578E+06 1.578E+06 1.703E+07 35.0695 1.00000
  1.585E+12 1.585E+12 3.654E+00 5.076E+04 8.866E+05 8.512E+05 1.789E+06 1.789E+06 1.713E+07 35.2997 1.00000
  1.778E+12 1.778E+12 3.672E+00 5.695E+04 9.947E+05 9.760E+05 2.028E+06 2.028E+06 1.723E+07 35.5300 1.00000
  1.995E+12 1.995E+12 3.690E+00 6.390E+04 1.116E+06 1.119E+06 2.299E+06 2.299E+06 1.733E+07 35.7602 1.00000
  2.239E+12 2.239E+12 3.708E+00 7.170E+04 1.252E+06 1.284E+06 2.607E+06 2.607E+06 1.743E+07 35.9905 1.00000
  2.512E+12 2.512E+12 3.726E+00 8.045E+04 1.405E+06 1.472E+06 2.957E+06 2.957E+06 1.753E+07 36.2207 1.00000
  2.818E+12 2.818E+12 3.744E+00 9.027E+04 1.576E+06 1.688E+06 3.355E+06 3.355E+06 1.763E+07 36.4510 1.00000
  3.162E+12 3.162E+12 3.762E+00 1.013E+05 1.768E+06 1.936E+06 3.806E+06 3.806E+06 1.772E+07 36.6813 1.00000
  3.548E+12 3.548E+12 3.780E+00 1.136E+05 1.984E+06 2.221E+06 4.319E+06 4.319E+06 1.782E+07 36.9115 1.00000
  3.981E+12 3.981E+12 3.799E+00 1.275E+05 2.226E+06 2.548E+06 4.901E+06 4.901E+06 1.791E+07 37.1418 1.00000
  4.467E+12 4.467E+12 3.817E+00 1.431E+05 2.498E+06 2.922E+06 5.563E+06 5.563E+06 1.801E+07 37.3720 1.00000
  5.012E+12 5.012E+12 3.836E+00 1.605E+05 2.802E+06 3.353E+06 6.315E+06 6.315E+06 1.810E+07 37.6023 1.00000
  5.623E+12 5.623E+12 3.854E+00 1.801E+05 3.144E+06 3.846E+06 7.170E+06 7.170E+06 1.819E+07 37.8326 1.00000
  6.310E+12 6.310E+12 3.873E+00 2.021E+05 3.528E+06 4.413E+06 8.142E+06 8.142E+06 1.828E+07 38.0628 1.00000
  7.079E+12 7.079E+12 3.892E+00 2.268E+05 3.958E+06 5.063E+06 9.247E+06 9.247E+06 1.837E+07 38.2931 1.00000
  7.943E+12 7.943E+12 3.911E+00 2.544E+05 4.441E+06 5.809E+06 1.050E+07 1.050E+07 1.846E+07 38.5233 1.00000
  8.913E+12 8.913E+12 3.930E+00 2.855E+05 4.982E+06 6.666E+06 1.193E+07 1.193E+07 1.854E+07 38.7536 1.00000
  1.000E+13 1.000E+13 3.949E+00 3.203E+05 5.590E+06 7.649E+06 1.356E+07 1.356E+07 1.863E+07 38.9839 1.00000
  1.122E+13 1.122E+13 3.969E+00 3.594E+05 6.272E+06 8.778E+06 1.541E+07 1.541E+07 1.871E+07 39.2141 1.00000
  1.259E+13 1.259E+13 3.988E+00 4.032E+05 7.037E+06 1.007E+07 1.751E+07 1.751E+07 1.880E+07 39.4444 1.00000
  1.413E+13 1.413E+13 4.008E+00 4.524E+05 7.895E+06 1.156E+07 1.991E+07 1.991E+07 1.888E+07 39.6746 1.00000
  1.585E+13 1.585E+13 4.027E+00 5.076E+05 8.858E+06 1.327E+07 2.263E+07 2.263E+07 1.896E+07 39.9049 1.00000
  1.778E+13 1.778E+13 4.047E+00 5.696E+05 9.938E+06 1.523E+07 2.574E+07 2.574E+07 1.904E+07 40.1351 1.00000
  1.995E+13 1.995E+13 4.067E+00 6.391E+05 1.115E+07 1.748E+07 2.927E+07 2.927E+07 1.912E+07 40.3654 1.00000
  2.239E+13 2.239E+13 4.087E+00 7.171E+05 1.251E+07 2.007E+07 3.330E+07 3.330E+07 1.920E+07 40.5957 1.00000
  2.512E+13 2.512E+13 4.107E+00 8.046E+05 1.404E+07 2.304E+07 3.788E+07 3.788E+07 1.928E+07 40.8259 1.00000
  2.818E+13 2.818E+13 4.127E+00 9.027E+05 1.575E+07 2.645E+07 4.310E+07 4.310E+07 1.935E+07 41.0562 1.00000
  3.162E+13 3.162E+13 4.147E+00 1.013E+06 1.767E+07 3.036E+07 4.904E+07 4.904E+07 1.943E+07 41.2864 1.00000
  3.548E+13 3.548E+13 4.168E+00 1.136E+06 1.982E+07 3.486E+07 5.582E+07 5.582E+07 1.950E+07 41.5167 1.00000
  3.981E+13 3.981E+13 4.188E+00 1.275E+06 2.224E+07 4.003E+07 6.354E+07 6.354E+07 1.957E+07 41.7470 1.00000
  4.467E+13 4.467E+13 4.209E+00 1.431E+06 2.495E+07 4.596E+07 7.234E+07 7.234E+07 1.965E+07 41.9772 1.00000
  5.012E+13 5.012E+13 4.229E+00 1.605E+06 2.799E+07 5.278E+07 8.238E+07 8.238E+07 1.972E+07 42.2075 1.00000
  5.623E+13 5.623E+13 4.250E+00 1.801E+06 3.141E+07 6.061E+07 9.382E+07 9.382E+07 1.979E+07 42.4377 1.00000
  6.310E+13 6.310E+13 4.271E+00 2.021E+06 3.524E+07 6.960E+07 1.069E+08 1.069E+08 1.986E+07 42.6680 1.00000
  7.079E+13 7.079E+13 4.292E+00 2.268E+06 3.954E+07 7.993E+07 1.217E+08 1.217E+08 1.992E+07 42.8982 1.00000
  7.943E+13 7.943E+13 4.313E+00 2.544E+06 4.436E+07 9.180E+07 1.387E+08 1.387E+08 1.999E+07 43.1285 1.00000
  8.913E+13 8.913E+13 4.335E+00 2.855E+06 4.977E+07 1.054E+08 1.581E+08 1.581E+08 2.006E+07 43.3588 1.00000
