 Incident particle is a Tau with M = 1776.82000 MeV
 Index = 0: EGlass
      Absorber with <Z/A> = 0.49686
 Sternheimer coef:  a     k=m_s   x_0    x_1    I[eV]   Cbar  delta0
                 0.1380  3.0000  0.2000  3.0000  143.4  3.9495 0.00

 *** Table generated with PUMAS v1.00 ***

      T         p     Ionization  brems     pair     photonuc  Radloss    dE/dx   CSDA Range  delta   beta
    [MeV]    [MeV/c]  -----------------------[MeV cm^2/g]------------------------  [g/cm^2]
  1.000E+05 1.018E+05 2.111E+00 2.172E-04 3.431E-03 8.181E-03 1.183E-02 2.122E+00 2.356E+04  4.4105 0.99985
  1.122E+05 1.140E+05 2.131E+00 2.511E-04 4.127E-03 9.228E-03 1.361E-02 2.144E+00 2.928E+04  4.6069 0.99988
  1.259E+05 1.277E+05 2.151E+00 2.901E-04 4.949E-03 1.035E-02 1.559E-02 2.166E+00 3.563E+04  4.8059 0.99990
  1.413E+05 1.430E+05 2.170E+00 3.350E-04 5.916E-03 1.162E-02 1.787E-02 2.188E+00 4.269E+04  5.0076 0.99992
  1.585E+05 1.603E+05 2.190E+00 3.866E-04 7.051E-03 1.304E-02 2.047E-02 2.211E+00 5.052E+04  5.2118 0.99994
  1.778E+05 1.796E+05 2.210E+00 4.460E-04 8.382E-03 1.461E-02 2.344E-02 2.233E+00 5.923E+04  5.4184 0.99995
  1.995E+05 2.013E+05 2.229E+00 5.143E-04 9.939E-03 1.641E-02 2.687E-02 2.256E+00 6.889E+04  5.6272 0.99996
  2.239E+05 2.256E+05 2.249E+00 5.928E-04 1.176E-02 1.838E-02 3.073E-02 2.279E+00 7.963E+04  5.8381 0.99997
  2.512E+05 2.530E+05 2.268E+00 6.829E-04 1.388E-02 2.058E-02 3.514E-02 2.303E+00 9.155E+04  6.0510 0.99998
  2.818E+05 2.836E+05 2.287E+00 7.863E-04 1.634E-02 2.305E-02 4.018E-02 2.327E+00 1.048E+05  6.2659 0.99998
  3.162E+05 3.180E+05 2.306E+00 9.050E-04 1.920E-02 2.585E-02 4.595E-02 2.352E+00 1.195E+05  6.4825 0.99998
  3.548E+05 3.566E+05 2.325E+00 1.041E-03 2.252E-02 2.898E-02 5.254E-02 2.378E+00 1.358E+05  6.7008 0.99999
  3.981E+05 3.999E+05 2.344E+00 1.197E-03 2.636E-02 3.248E-02 6.004E-02 2.404E+00 1.539E+05  6.9207 0.99999
  4.467E+05 4.485E+05 2.362E+00 1.376E-03 3.080E-02 3.640E-02 6.858E-02 2.431E+00 1.740E+05  7.1420 0.99999
  5.012E+05 5.030E+05 2.381E+00 1.581E-03 3.592E-02 4.081E-02 7.831E-02 2.459E+00 1.963E+05  7.3646 0.99999
  5.623E+05 5.641E+05 2.399E+00 1.816E-03 4.183E-02 4.558E-02 8.923E-02 2.489E+00 2.210E+05  7.5884 1.00000
  6.310E+05 6.327E+05 2.418E+00 2.085E-03 4.863E-02 5.095E-02 1.017E-01 2.519E+00 2.484E+05  7.8134 1.00000
  7.079E+05 7.097E+05 2.436E+00 2.392E-03 5.646E-02 5.702E-02 1.159E-01 2.552E+00 2.788E+05  8.0393 1.00000
  7.943E+05 7.961E+05 2.454E+00 2.744E-03 6.544E-02 6.386E-02 1.320E-01 2.586E+00 3.124E+05  8.2662 1.00000
  8.913E+05 8.930E+05 2.472E+00 3.147E-03 7.575E-02 7.159E-02 1.505E-01 2.622E+00 3.497E+05  8.4938 1.00000
  1.000E+06 1.002E+06 2.489E+00 3.607E-03 8.755E-02 8.033E-02 1.715E-01 2.661E+00 3.908E+05  8.7220 1.00000
  1.122E+06 1.124E+06 2.507E+00 4.133E-03 1.011E-01 9.021E-02 1.954E-01 2.702E+00 4.363E+05  8.9509 1.00000
  1.259E+06 1.261E+06 2.524E+00 4.735E-03 1.165E-01 1.014E-01 2.227E-01 2.747E+00 4.866E+05  9.1802 1.00000
  1.413E+06 1.414E+06 2.542E+00 5.422E-03 1.342E-01 1.141E-01 2.537E-01 2.795E+00 5.420E+05  9.4098 1.00000
  1.585E+06 1.587E+06 2.559E+00 6.207E-03 1.543E-01 1.285E-01 2.890E-01 2.848E+00 6.031E+05  9.6397 1.00000
  1.778E+06 1.780E+06 2.576E+00 7.103E-03 1.773E-01 1.448E-01 3.291E-01 2.905E+00 6.703E+05  9.8696 1.00000
  1.995E+06 1.997E+06 2.593E+00 8.126E-03 2.034E-01 1.633E-01 3.748E-01 2.968E+00 7.442E+05 10.0997 1.00000
  2.239E+06 2.240E+06 2.610E+00 9.294E-03 2.331E-01 1.843E-01 4.267E-01 3.037E+00 8.253E+05 10.3298 1.00000
  2.512E+06 2.514E+06 2.627E+00 1.063E-02 2.669E-01 2.082E-01 4.857E-01 3.112E+00 9.142E+05 10.5598 1.00000
  2.818E+06 2.820E+06 2.643E+00 1.215E-02 3.053E-01 2.353E-01 5.528E-01 3.196E+00 1.011E+06 10.7899 1.00000
  3.162E+06 3.164E+06 2.660E+00 1.388E-02 3.489E-01 2.661E-01 6.289E-01 3.289E+00 1.117E+06 11.0201 1.00000
  3.548E+06 3.550E+06 2.676E+00 1.585E-02 3.983E-01 3.012E-01 7.154E-01 3.391E+00 1.233E+06 11.2502 1.00000
  3.981E+06 3.983E+06 2.692E+00 1.811E-02 4.544E-01 3.411E-01 8.136E-01 3.506E+00 1.359E+06 11.4804 1.00000
  4.467E+06 4.469E+06 2.708E+00 2.067E-02 5.178E-01 3.865E-01 9.250E-01 3.633E+00 1.495E+06 11.7105 1.00000
  5.012E+06 5.014E+06 2.724E+00 2.360E-02 5.896E-01 4.382E-01 1.051E+00 3.775E+00 1.642E+06 11.9407 1.00000
  5.623E+06 5.625E+06 2.739E+00 2.692E-02 6.708E-01 4.971E-01 1.195E+00 3.934E+00 1.801E+06 12.1709 1.00000
  6.310E+06 6.311E+06 2.755E+00 3.071E-02 7.625E-01 5.641E-01 1.357E+00 4.112E+00 1.971E+06 12.4011 1.00000
  7.079E+06 7.081E+06 2.770E+00 3.503E-02 8.662E-01 6.404E-01 1.542E+00 4.312E+00 2.154E+06 12.6313 1.00000
  7.943E+06 7.945E+06 2.785E+00 3.993E-02 9.833E-01 7.274E-01 1.751E+00 4.536E+00 2.350E+06 12.8615 1.00000
  8.913E+06 8.914E+06 2.800E+00 4.551E-02 1.115E+00 8.265E-01 1.987E+00 4.788E+00 2.558E+06 13.0917 1.00000
  1.000E+07 1.000E+07 2.815E+00 5.186E-02 1.264E+00 9.395E-01 2.256E+00 5.071E+00 2.778E+06 13.3219 1.00000
  1.122E+07 1.122E+07 2.830E+00 5.908E-02 1.433E+00 1.068E+00 2.560E+00 5.390E+00 3.012E+06 13.5521 1.00000
  1.259E+07 1.259E+07 2.844E+00 6.728E-02 1.622E+00 1.215E+00 2.904E+00 5.749E+00 3.258E+06 13.7823 1.00000
  1.413E+07 1.413E+07 2.859E+00 7.660E-02 1.835E+00 1.382E+00 3.295E+00 6.153E+00 3.516E+06 14.0126 1.00000
  1.585E+07 1.585E+07 2.873E+00 8.718E-02 2.076E+00 1.573E+00 3.736E+00 6.610E+00 3.787E+06 14.2428 1.00000
  1.778E+07 1.778E+07 2.888E+00 9.920E-02 2.347E+00 1.791E+00 4.237E+00 7.125E+00 4.069E+06 14.4730 1.00000
  1.995E+07 1.995E+07 2.902E+00 1.128E-01 2.651E+00 2.040E+00 4.804E+00 7.706E+00 4.362E+06 14.7033 1.00000
  2.239E+07 2.239E+07 2.916E+00 1.283E-01 2.994E+00 2.323E+00 5.446E+00 8.361E+00 4.666E+06 14.9335 1.00000
  2.512E+07 2.512E+07 2.930E+00 1.459E-01 3.380E+00 2.646E+00 6.172E+00 9.102E+00 4.979E+06 15.1637 1.00000
  2.818E+07 2.819E+07 2.944E+00 1.658E-01 3.814E+00 3.015E+00 6.995E+00 9.939E+00 5.302E+06 15.3940 1.00000
  3.162E+07 3.162E+07 2.958E+00 1.884E-01 4.302E+00 3.436E+00 7.927E+00 1.088E+01 5.632E+06 15.6242 1.00000
  3.548E+07 3.548E+07 2.972E+00 2.140E-01 4.851E+00 3.916E+00 8.981E+00 1.195E+01 5.971E+06 15.8545 1.00000
  3.981E+07 3.981E+07 2.985E+00 2.430E-01 5.468E+00 4.465E+00 1.018E+01 1.316E+01 6.317E+06 16.0847 1.00000
  4.467E+07 4.467E+07 2.999E+00 2.759E-01 6.161E+00 5.091E+00 1.153E+01 1.453E+01 6.668E+06 16.3150 1.00000
  5.012E+07 5.012E+07 3.013E+00 3.131E-01 6.940E+00 5.805E+00 1.306E+01 1.607E+01 7.026E+06 16.5452 1.00000
  5.623E+07 5.624E+07 3.027E+00 3.553E-01 7.815E+00 6.621E+00 1.479E+01 1.782E+01 7.388E+06 16.7755 1.00000
  6.310E+07 6.310E+07 3.041E+00 4.030E-01 8.798E+00 7.552E+00 1.675E+01 1.979E+01 7.753E+06 17.0057 1.00000
  7.079E+07 7.080E+07 3.054E+00 4.570E-01 9.903E+00 8.615E+00 1.897E+01 2.203E+01 8.123E+06 17.2360 1.00000
  7.943E+07 7.943E+07 3.068E+00 5.180E-01 1.114E+01 9.828E+00 2.149E+01 2.456E+01 8.495E+06 17.4662 1.00000
  8.913E+07 8.913E+07 3.082E+00 5.871E-01 1.254E+01 1.121E+01 2.434E+01 2.742E+01 8.869E+06 17.6965 1.00000
  1.000E+08 1.000E+08 3.096E+00 6.651E-01 1.410E+01 1.280E+01 2.756E+01 3.066E+01 9.244E+06 17.9267 1.00000
  1.122E+08 1.122E+08 3.110E+00 7.534E-01 1.586E+01 1.460E+01 3.122E+01 3.433E+01 9.621E+06 18.1570 1.00000
  1.259E+08 1.259E+08 3.124E+00 8.530E-01 1.783E+01 1.667E+01 3.535E+01 3.848E+01 9.998E+06 18.3872 1.00000
  1.413E+08 1.413E+08 3.138E+00 9.656E-01 2.005E+01 1.903E+01 4.004E+01 4.318E+01 1.038E+07 18.6175 1.00000
  1.585E+08 1.585E+08 3.152E+00 1.093E+00 2.253E+01 2.172E+01 4.534E+01 4.850E+01 1.075E+07 18.8478 1.00000
  1.778E+08 1.778E+08 3.166E+00 1.236E+00 2.532E+01 2.480E+01 5.136E+01 5.452E+01 1.113E+07 19.0780 1.00000
  1.995E+08 1.995E+08 3.180E+00 1.398E+00 2.846E+01 2.831E+01 5.817E+01 6.135E+01 1.151E+07 19.3083 1.00000
  2.239E+08 2.239E+08 3.194E+00 1.581E+00 3.197E+01 3.233E+01 6.588E+01 6.907E+01 1.188E+07 19.5385 1.00000
  2.512E+08 2.512E+08 3.208E+00 1.788E+00 3.592E+01 3.691E+01 7.462E+01 7.783E+01 1.225E+07 19.7688 1.00000
  2.818E+08 2.818E+08 3.223E+00 2.020E+00 4.035E+01 4.215E+01 8.452E+01 8.775E+01 1.263E+07 19.9990 1.00000
  3.162E+08 3.162E+08 3.237E+00 2.282E+00 4.532E+01 4.814E+01 9.575E+01 9.898E+01 1.299E+07 20.2293 1.00000
  3.548E+08 3.548E+08 3.251E+00 2.578E+00 5.090E+01 5.499E+01 1.085E+02 1.117E+02 1.336E+07 20.4596 1.00000
  3.981E+08 3.981E+08 3.266E+00 2.911E+00 5.717E+01 6.281E+01 1.229E+02 1.261E+02 1.373E+07 20.6898 1.00000
  4.467E+08 4.467E+08 3.280E+00 3.287E+00 6.419E+01 7.174E+01 1.392E+02 1.425E+02 1.409E+07 20.9201 1.00000
  5.012E+08 5.012E+08 3.295E+00 3.710E+00 7.208E+01 8.195E+01 1.577E+02 1.610E+02 1.445E+07 21.1503 1.00000
  5.623E+08 5.623E+08 3.310E+00 4.186E+00 8.093E+01 9.363E+01 1.787E+02 1.821E+02 1.481E+07 21.3806 1.00000
  6.310E+08 6.310E+08 3.324E+00 4.722E+00 9.087E+01 1.070E+02 2.026E+02 2.059E+02 1.516E+07 21.6108 1.00000
  7.079E+08 7.079E+08 3.339E+00 5.326E+00 1.020E+02 1.222E+02 2.296E+02 2.329E+02 1.552E+07 21.8411 1.00000
  7.943E+08 7.943E+08 3.354E+00 6.005E+00 1.145E+02 1.396E+02 2.602E+02 2.635E+02 1.587E+07 22.0714 1.00000
  8.913E+08 8.913E+08 3.369E+00 6.770E+00 1.286E+02 1.596E+02 2.949E+02 2.983E+02 1.621E+07 22.3016 1.00000
  1.000E+09 1.000E+09 3.384E+00 7.631E+00 1.443E+02 1.824E+02 3.343E+02 3.377E+02 1.656E+07 22.5319 1.00000
  1.122E+09 1.122E+09 3.399E+00 8.599E+00 1.620E+02 2.084E+02 3.790E+02 3.824E+02 1.690E+07 22.7621 1.00000
  1.259E+09 1.259E+09 3.415E+00 9.688E+00 1.818E+02 2.382E+02 4.297E+02 4.331E+02 1.723E+07 22.9924 1.00000
  1.413E+09 1.413E+09 3.430E+00 1.091E+01 2.041E+02 2.722E+02 4.872E+02 4.906E+02 1.757E+07 23.2226 1.00000
  1.585E+09 1.585E+09 3.445E+00 1.229E+01 2.290E+02 3.112E+02 5.525E+02 5.559E+02 1.790E+07 23.4529 1.00000
  1.778E+09 1.778E+09 3.461E+00 1.384E+01 2.571E+02 3.557E+02 6.266E+02 6.300E+02 1.822E+07 23.6832 1.00000
  1.995E+09 1.995E+09 3.476E+00 1.558E+01 2.885E+02 4.066E+02 7.107E+02 7.141E+02 1.855E+07 23.9134 1.00000
  2.239E+09 2.239E+09 3.492E+00 1.753E+01 3.238E+02 4.648E+02 8.061E+02 8.096E+02 1.887E+07 24.1437 1.00000
  2.512E+09 2.512E+09 3.508E+00 1.973E+01 3.633E+02 5.314E+02 9.145E+02 9.180E+02 1.919E+07 24.3739 1.00000
  2.818E+09 2.818E+09 3.524E+00 2.220E+01 4.078E+02 6.076E+02 1.038E+03 1.041E+03 1.950E+07 24.6042 1.00000
  3.162E+09 3.162E+09 3.539E+00 2.498E+01 4.576E+02 6.947E+02 1.177E+03 1.181E+03 1.981E+07 24.8345 1.00000
  3.548E+09 3.548E+09 3.555E+00 2.810E+01 5.135E+02 7.943E+02 1.336E+03 1.339E+03 2.012E+07 25.0647 1.00000
  3.981E+09 3.981E+09 3.572E+00 3.160E+01 5.762E+02 9.083E+02 1.516E+03 1.520E+03 2.042E+07 25.2950 1.00000
  4.467E+09 4.467E+09 3.588E+00 3.554E+01 6.466E+02 1.039E+03 1.721E+03 1.724E+03 2.072E+07 25.5252 1.00000
  5.012E+09 5.012E+09 3.604E+00 3.996E+01 7.256E+02 1.188E+03 1.953E+03 1.957E+03 2.102E+07 25.7555 1.00000
  5.623E+09 5.623E+09 3.620E+00 4.492E+01 8.142E+02 1.359E+03 2.218E+03 2.221E+03 2.132E+07 25.9857 1.00000
  6.310E+09 6.310E+09 3.637E+00 5.049E+01 9.136E+02 1.554E+03 2.518E+03 2.522E+03 2.161E+07 26.2160 1.00000
  7.079E+09 7.079E+09 3.653E+00 5.676E+01 1.025E+03 1.777E+03 2.859E+03 2.863E+03 2.189E+07 26.4463 1.00000
  7.943E+09 7.943E+09 3.670E+00 6.378E+01 1.150E+03 2.033E+03 3.247E+03 3.251E+03 2.218E+07 26.6765 1.00000
  8.913E+09 8.913E+09 3.687E+00 7.168E+01 1.291E+03 2.326E+03 3.688E+03 3.692E+03 2.246E+07 26.9068 1.00000
  1.000E+10 1.000E+10 3.703E+00 8.054E+01 1.448E+03 2.661E+03 4.189E+03 4.193E+03 2.273E+07 27.1370 1.00000
  1.122E+10 1.122E+10 3.720E+00 9.049E+01 1.625E+03 3.044E+03 4.759E+03 4.763E+03 2.301E+07 27.3673 1.00000
  1.259E+10 1.259E+10 3.737E+00 1.017E+02 1.824E+03 3.482E+03 5.408E+03 5.411E+03 2.328E+07 27.5976 1.00000
  1.413E+10 1.413E+10 3.755E+00 1.142E+02 2.046E+03 3.984E+03 6.145E+03 6.149E+03 2.354E+07 27.8278 1.00000
  1.585E+10 1.585E+10 3.772E+00 1.283E+02 2.296E+03 4.559E+03 6.983E+03 6.987E+03 2.381E+07 28.0581 1.00000
  1.778E+10 1.778E+10 3.789E+00 1.441E+02 2.576E+03 5.217E+03 7.937E+03 7.941E+03 2.407E+07 28.2883 1.00000
  1.995E+10 1.995E+10 3.806E+00 1.618E+02 2.890E+03 5.970E+03 9.022E+03 9.026E+03 2.433E+07 28.5186 1.00000
  2.239E+10 2.239E+10 3.824E+00 1.817E+02 3.243E+03 6.832E+03 1.026E+04 1.026E+04 2.458E+07 28.7489 1.00000
  2.512E+10 2.512E+10 3.842E+00 2.040E+02 3.639E+03 7.819E+03 1.166E+04 1.167E+04 2.483E+07 28.9791 1.00000
  2.818E+10 2.818E+10 3.859E+00 2.291E+02 4.083E+03 8.949E+03 1.326E+04 1.327E+04 2.508E+07 29.2094 1.00000
  3.162E+10 3.162E+10 3.877E+00 2.572E+02 4.581E+03 1.024E+04 1.508E+04 1.509E+04 2.532E+07 29.4396 1.00000
  3.548E+10 3.548E+10 3.895E+00 2.888E+02 5.140E+03 1.172E+04 1.715E+04 1.716E+04 2.556E+07 29.6699 1.00000
  3.981E+10 3.981E+10 3.913E+00 3.242E+02 5.767E+03 1.342E+04 1.951E+04 1.952E+04 2.580E+07 29.9001 1.00000
  4.467E+10 4.467E+10 3.931E+00 3.640E+02 6.471E+03 1.536E+04 2.220E+04 2.220E+04 2.603E+07 30.1304 1.00000
  5.012E+10 5.012E+10 3.949E+00 4.086E+02 7.261E+03 1.759E+04 2.526E+04 2.526E+04 2.626E+07 30.3607 1.00000
  5.623E+10 5.623E+10 3.967E+00 4.587E+02 8.146E+03 2.014E+04 2.874E+04 2.875E+04 2.649E+07 30.5909 1.00000
  6.310E+10 6.310E+10 3.986E+00 5.149E+02 9.140E+03 2.306E+04 3.271E+04 3.272E+04 2.671E+07 30.8212 1.00000
  7.079E+10 7.079E+10 4.004E+00 5.780E+02 1.026E+04 2.640E+04 3.723E+04 3.724E+04 2.693E+07 31.0514 1.00000
  7.943E+10 7.943E+10 4.023E+00 6.487E+02 1.151E+04 3.023E+04 4.239E+04 4.239E+04 2.715E+07 31.2817 1.00000
  8.913E+10 8.913E+10 4.042E+00 7.282E+02 1.291E+04 3.462E+04 4.826E+04 4.826E+04 2.737E+07 31.5120 1.00000
  1.000E+11 1.000E+11 4.061E+00 8.173E+02 1.449E+04 3.964E+04 5.495E+04 5.495E+04 2.758E+07 31.7422 1.00000
  1.122E+11 1.122E+11 4.079E+00 9.173E+02 1.625E+04 4.540E+04 6.257E+04 6.258E+04 2.779E+07 31.9725 1.00000
  1.259E+11 1.259E+11 4.099E+00 1.029E+03 1.824E+04 5.200E+04 7.126E+04 7.127E+04 2.799E+07 32.2027 1.00000
  1.413E+11 1.413E+11 4.118E+00 1.155E+03 2.046E+04 5.956E+04 8.117E+04 8.118E+04 2.819E+07 32.4330 1.00000
  1.585E+11 1.585E+11 4.137E+00 1.297E+03 2.296E+04 6.822E+04 9.247E+04 9.247E+04 2.839E+07 32.6632 1.00000
  1.778E+11 1.778E+11 4.156E+00 1.455E+03 2.576E+04 7.814E+04 1.054E+05 1.054E+05 2.859E+07 32.8935 1.00000
  1.995E+11 1.995E+11 4.176E+00 1.633E+03 2.890E+04 8.952E+04 1.200E+05 1.201E+05 2.878E+07 33.1238 1.00000
  2.239E+11 2.239E+11 4.195E+00 1.833E+03 3.242E+04 1.025E+05 1.368E+05 1.368E+05 2.897E+07 33.3540 1.00000
  2.512E+11 2.512E+11 4.215E+00 2.056E+03 3.638E+04 1.175E+05 1.559E+05 1.559E+05 2.916E+07 33.5843 1.00000
  2.818E+11 2.818E+11 4.235E+00 2.308E+03 4.082E+04 1.346E+05 1.777E+05 1.777E+05 2.935E+07 33.8145 1.00000
  3.162E+11 3.162E+11 4.255E+00 2.590E+03 4.580E+04 1.542E+05 2.026E+05 2.026E+05 2.953E+07 34.0448 1.00000
  3.548E+11 3.548E+11 4.275E+00 2.906E+03 5.138E+04 1.767E+05 2.310E+05 2.310E+05 2.971E+07 34.2751 1.00000
  3.981E+11 3.981E+11 4.295E+00 3.261E+03 5.765E+04 2.025E+05 2.634E+05 2.634E+05 2.988E+07 34.5053 1.00000
  4.467E+11 4.467E+11 4.315E+00 3.659E+03 6.468E+04 2.321E+05 3.004E+05 3.004E+05 3.005E+07 34.7356 1.00000
  5.012E+11 5.012E+11 4.336E+00 4.106E+03 7.257E+04 2.659E+05 3.426E+05 3.426E+05 3.023E+07 34.9658 1.00000
  5.623E+11 5.623E+11 4.356E+00 4.607E+03 8.143E+04 3.048E+05 3.908E+05 3.908E+05 3.039E+07 35.1961 1.00000
  6.310E+11 6.310E+11 4.377E+00 5.170E+03 9.136E+04 3.493E+05 4.459E+05 4.459E+05 3.056E+07 35.4263 1.00000
  7.079E+11 7.079E+11 4.397E+00 5.801E+03 1.025E+05 4.004E+05 5.087E+05 5.087E+05 3.072E+07 35.6566 1.00000
  7.943E+11 7.943E+11 4.418E+00 6.510E+03 1.150E+05 4.590E+05 5.805E+05 5.805E+05 3.088E+07 35.8869 1.00000
  8.913E+11 8.913E+11 4.439E+00 7.304E+03 1.290E+05 5.261E+05 6.625E+05 6.625E+05 3.104E+07 36.1171 1.00000
  1.000E+12 1.000E+12 4.460E+00 8.196E+03 1.448E+05 6.031E+05 7.561E+05 7.561E+05 3.119E+07 36.3474 1.00000
  1.122E+12 1.122E+12 4.481E+00 9.196E+03 1.624E+05 6.914E+05 8.631E+05 8.631E+05 3.134E+07 36.5776 1.00000
  1.259E+12 1.259E+12 4.503E+00 1.032E+04 1.822E+05 7.927E+05 9.853E+05 9.853E+05 3.149E+07 36.8079 1.00000
  1.413E+12 1.413E+12 4.524E+00 1.158E+04 2.045E+05 9.089E+05 1.125E+06 1.125E+06 3.164E+07 37.0382 1.00000
  1.585E+12 1.585E+12 4.545E+00 1.299E+04 2.294E+05 1.042E+06 1.285E+06 1.285E+06 3.178E+07 37.2684 1.00000
  1.778E+12 1.778E+12 4.567E+00 1.458E+04 2.574E+05 1.195E+06 1.467E+06 1.467E+06 3.192E+07 37.4987 1.00000
  1.995E+12 1.995E+12 4.589E+00 1.636E+04 2.888E+05 1.370E+06 1.675E+06 1.675E+06 3.206E+07 37.7289 1.00000
  2.239E+12 2.239E+12 4.611E+00 1.835E+04 3.240E+05 1.571E+06 1.914E+06 1.914E+06 3.220E+07 37.9592 1.00000
  2.512E+12 2.512E+12 4.633E+00 2.059E+04 3.635E+05 1.802E+06 2.186E+06 2.186E+06 3.233E+07 38.1894 1.00000
  2.818E+12 2.818E+12 4.655E+00 2.311E+04 4.079E+05 2.067E+06 2.498E+06 2.498E+06 3.246E+07 38.4197 1.00000
  3.162E+12 3.162E+12 4.677E+00 2.593E+04 4.576E+05 2.371E+06 2.854E+06 2.854E+06 3.259E+07 38.6500 1.00000
  3.548E+12 3.548E+12 4.700E+00 2.909E+04 5.134E+05 2.719E+06 3.262E+06 3.262E+06 3.272E+07 38.8802 1.00000
  3.981E+12 3.981E+12 4.722E+00 3.264E+04 5.761E+05 3.119E+06 3.728E+06 3.728E+06 3.284E+07 39.1105 1.00000
  4.467E+12 4.467E+12 4.745E+00 3.662E+04 6.463E+05 3.578E+06 4.261E+06 4.261E+06 3.296E+07 39.3407 1.00000
  5.012E+12 5.012E+12 4.767E+00 4.109E+04 7.252E+05 4.105E+06 4.871E+06 4.871E+06 3.308E+07 39.5710 1.00000
  5.623E+12 5.623E+12 4.790E+00 4.611E+04 8.136E+05 4.709E+06 5.569E+06 5.569E+06 3.320E+07 39.8013 1.00000
  6.310E+12 6.310E+12 4.813E+00 5.173E+04 9.128E+05 5.402E+06 6.367E+06 6.367E+06 3.332E+07 40.0315 1.00000
  7.079E+12 7.079E+12 4.836E+00 5.804E+04 1.024E+06 6.198E+06 7.281E+06 7.281E+06 3.343E+07 40.2618 1.00000
  7.943E+12 7.943E+12 4.860E+00 6.513E+04 1.149E+06 7.112E+06 8.326E+06 8.326E+06 3.354E+07 40.4920 1.00000
  8.913E+12 8.913E+12 4.883E+00 7.307E+04 1.289E+06 8.161E+06 9.523E+06 9.523E+06 3.365E+07 40.7223 1.00000
  1.000E+13 1.000E+13 4.906E+00 8.199E+04 1.446E+06 9.365E+06 1.089E+07 1.089E+07 3.376E+07 40.9526 1.00000
  1.122E+13 1.122E+13 4.930E+00 9.200E+04 1.623E+06 1.075E+07 1.246E+07 1.246E+07 3.386E+07 41.1828 1.00000
  1.259E+13 1.259E+13 4.954E+00 1.032E+05 1.821E+06 1.233E+07 1.426E+07 1.426E+07 3.396E+07 41.4131 1.00000
  1.413E+13 1.413E+13 4.978E+00 1.158E+05 2.043E+06 1.415E+07 1.631E+07 1.631E+07 3.407E+07 41.6433 1.00000
  1.585E+13 1.585E+13 5.002E+00 1.300E+05 2.292E+06 1.625E+07 1.867E+07 1.867E+07 3.416E+07 41.8736 1.00000
  1.778E+13 1.778E+13 5.026E+00 1.458E+05 2.572E+06 1.865E+07 2.136E+07 2.136E+07 3.426E+07 42.1038 1.00000
  1.995E+13 1.995E+13 5.050E+00 1.636E+05 2.885E+06 2.140E+07 2.445E+07 2.445E+07 3.436E+07 42.3341 1.00000
  2.239E+13 2.239E+13 5.075E+00 1.836E+05 3.237E+06 2.457E+07 2.799E+07 2.799E+07 3.445E+07 42.5644 1.00000
  2.512E+13 2.512E+13 5.099E+00 2.060E+05 3.632E+06 2.821E+07 3.204E+07 3.204E+07 3.454E+07 42.7946 1.00000
  2.818E+13 2.818E+13 5.124E+00 2.311E+05 4.075E+06 3.238E+07 3.669E+07 3.669E+07 3.463E+07 43.0249 1.00000
  3.162E+13 3.162E+13 5.149E+00 2.593E+05 4.572E+06 3.718E+07 4.201E+07 4.201E+07 3.472E+07 43.2551 1.00000
  3.548E+13 3.548E+13 5.173E+00 2.909E+05 5.129E+06 4.268E+07 4.810E+07 4.810E+07 3.481E+07 43.4854 1.00000
  3.981E+13 3.981E+13 5.199E+00 3.264E+05 5.755E+06 4.901E+07 5.509E+07 5.509E+07 3.489E+07 43.7157 1.00000
  4.467E+13 4.467E+13 5.224E+00 3.663E+05 6.457E+06 5.627E+07 6.309E+07 6.309E+07 3.497E+07 43.9459 1.00000
  5.012E+13 5.012E+13 5.249E+00 4.109E+05 7.244E+06 6.462E+07 7.227E+07 7.227E+07 3.505E+07 44.1762 1.00000
  5.623E+13 5.623E+13 5.275E+00 4.611E+05 8.128E+06 7.420E+07 8.279E+07 8.279E+07 3.513E+07 44.4064 1.00000
  6.310E+13 6.310E+13 5.300E+00 5.174E+05 9.119E+06 8.521E+07 9.485E+07 9.485E+07 3.521E+07 44.6367 1.00000
  7.079E+13 7.079E+13 5.326E+00 5.805E+05 1.023E+07 9.786E+07 1.087E+08 1.087E+08 3.529E+07 44.8669 1.00000
  7.943E+13 7.943E+13 5.352E+00 6.513E+05 1.148E+07 1.124E+08 1.245E+08 1.245E+08 3.536E+07 45.0972 1.00000
  8.913E+13 8.913E+13 5.378E+00 7.308E+05 1.288E+07 1.291E+08 1.427E+08 1.427E+08 3.543E+07 45.3275 1.00000
