 Incident particle is a Tau with M = 1776.82000 MeV
 Index = 0: Einsteinium
      Absorber with <Z/A> = 0.39273
 Sternheimer coef:  a     k=m_s   x_0    x_1    I[eV]   Cbar  delta0
                 0.2595  3.0000  0.5697  3.0000  980.0  6.3488 0.00

 *** Table generated with PUMAS v1.00 ***

      T         p     Ionization  brems     pair     photonuc  Radloss    dE/dx   CSDA Range  delta   beta
    [MeV]    [MeV/c]  -----------------------[MeV cm^2/g]------------------------  [g/cm^2]
  1.000E+05 1.018E+05 1.567E+00 1.230E-03 2.220E-02 7.496E-03 3.093E-02 1.598E+00 3.129E+04  2.2440 0.99985
  1.122E+05 1.140E+05 1.585E+00 1.427E-03 2.657E-02 8.409E-03 3.641E-02 1.621E+00 3.887E+04  2.4138 0.99988
  1.259E+05 1.277E+05 1.602E+00 1.654E-03 3.171E-02 9.384E-03 4.275E-02 1.645E+00 4.726E+04  2.5884 0.99990
  1.413E+05 1.430E+05 1.619E+00 1.917E-03 3.774E-02 1.047E-02 5.013E-02 1.669E+00 5.653E+04  2.7675 0.99992
  1.585E+05 1.603E+05 1.636E+00 2.220E-03 4.480E-02 1.169E-02 5.870E-02 1.694E+00 6.678E+04  2.9511 0.99994
  1.778E+05 1.796E+05 1.652E+00 2.570E-03 5.304E-02 1.303E-02 6.864E-02 1.721E+00 7.810E+04  3.1389 0.99995
  1.995E+05 2.013E+05 1.669E+00 2.972E-03 6.266E-02 1.455E-02 8.018E-02 1.749E+00 9.061E+04  3.3307 0.99996
  2.239E+05 2.256E+05 1.685E+00 3.436E-03 7.385E-02 1.621E-02 9.349E-02 1.779E+00 1.044E+05  3.5263 0.99997
  2.512E+05 2.530E+05 1.701E+00 3.970E-03 8.685E-02 1.805E-02 1.089E-01 1.810E+00 1.196E+05  3.7255 0.99998
  2.818E+05 2.836E+05 1.717E+00 4.584E-03 1.019E-01 2.011E-02 1.266E-01 1.844E+00 1.364E+05  3.9281 0.99998
  3.162E+05 3.180E+05 1.733E+00 5.290E-03 1.194E-01 2.243E-02 1.471E-01 1.880E+00 1.549E+05  4.1339 0.99998
  3.548E+05 3.566E+05 1.748E+00 6.101E-03 1.395E-01 2.502E-02 1.706E-01 1.919E+00 1.752E+05  4.3427 0.99999
  3.981E+05 3.999E+05 1.763E+00 7.032E-03 1.627E-01 2.790E-02 1.977E-01 1.961E+00 1.975E+05  4.5544 0.99999
  4.467E+05 4.485E+05 1.779E+00 8.102E-03 1.895E-01 3.110E-02 2.287E-01 2.007E+00 2.220E+05  4.7686 0.99999
  5.012E+05 5.030E+05 1.794E+00 9.328E-03 2.203E-01 3.470E-02 2.643E-01 2.058E+00 2.488E+05  4.9853 0.99999
  5.623E+05 5.641E+05 1.808E+00 1.074E-02 2.556E-01 3.857E-02 3.049E-01 2.113E+00 2.782E+05  5.2042 1.00000
  6.310E+05 6.327E+05 1.823E+00 1.235E-02 2.962E-01 4.291E-02 3.514E-01 2.175E+00 3.102E+05  5.4250 1.00000
  7.079E+05 7.097E+05 1.838E+00 1.420E-02 3.426E-01 4.779E-02 4.046E-01 2.242E+00 3.450E+05  5.6477 1.00000
  7.943E+05 7.961E+05 1.852E+00 1.631E-02 3.957E-01 5.329E-02 4.653E-01 2.317E+00 3.829E+05  5.8720 1.00000
  8.913E+05 8.930E+05 1.866E+00 1.873E-02 4.564E-01 5.948E-02 5.347E-01 2.401E+00 4.240E+05  6.0977 1.00000
  1.000E+06 1.002E+06 1.880E+00 2.150E-02 5.257E-01 6.646E-02 6.137E-01 2.494E+00 4.685E+05  6.3246 1.00000
  1.122E+06 1.124E+06 1.894E+00 2.467E-02 6.047E-01 7.434E-02 7.037E-01 2.598E+00 5.164E+05  6.5525 1.00000
  1.259E+06 1.261E+06 1.908E+00 2.830E-02 6.947E-01 8.325E-02 8.062E-01 2.714E+00 5.680E+05  6.7813 1.00000
  1.413E+06 1.414E+06 1.922E+00 3.244E-02 7.971E-01 9.333E-02 9.228E-01 2.845E+00 6.233E+05  7.0106 1.00000
  1.585E+06 1.587E+06 1.936E+00 3.717E-02 9.134E-01 1.047E-01 1.055E+00 2.991E+00 6.824E+05  7.2404 1.00000
  1.778E+06 1.780E+06 1.949E+00 4.257E-02 1.046E+00 1.176E-01 1.206E+00 3.155E+00 7.454E+05  7.4703 1.00000
  1.995E+06 1.997E+06 1.963E+00 4.873E-02 1.196E+00 1.323E-01 1.377E+00 3.339E+00 8.123E+05  7.7004 1.00000
  2.239E+06 2.240E+06 1.976E+00 5.577E-02 1.366E+00 1.489E-01 1.570E+00 3.546E+00 8.830E+05  7.9305 1.00000
  2.512E+06 2.514E+06 1.989E+00 6.379E-02 1.558E+00 1.677E-01 1.790E+00 3.779E+00 9.577E+05  8.1605 1.00000
  2.818E+06 2.820E+06 2.002E+00 7.294E-02 1.776E+00 1.891E-01 2.038E+00 4.040E+00 1.036E+06  8.3906 1.00000
  3.162E+06 3.164E+06 2.015E+00 8.337E-02 2.023E+00 2.134E-01 2.320E+00 4.335E+00 1.118E+06  8.6208 1.00000
  3.548E+06 3.550E+06 2.028E+00 9.525E-02 2.302E+00 2.409E-01 2.638E+00 4.666E+00 1.204E+06  8.8509 1.00000
  3.981E+06 3.983E+06 2.041E+00 1.088E-01 2.617E+00 2.723E-01 2.998E+00 5.039E+00 1.294E+06  9.0811 1.00000
  4.467E+06 4.469E+06 2.053E+00 1.242E-01 2.973E+00 3.080E-01 3.405E+00 5.458E+00 1.386E+06  9.3112 1.00000
  5.012E+06 5.014E+06 2.066E+00 1.417E-01 3.375E+00 3.486E-01 3.865E+00 5.931E+00 1.482E+06  9.5414 1.00000
  5.623E+06 5.625E+06 2.078E+00 1.617E-01 3.828E+00 3.948E-01 4.384E+00 6.463E+00 1.581E+06  9.7716 1.00000
  6.310E+06 6.311E+06 2.090E+00 1.844E-01 4.339E+00 4.473E-01 4.971E+00 7.061E+00 1.683E+06 10.0018 1.00000
  7.079E+06 7.081E+06 2.102E+00 2.102E-01 4.915E+00 5.072E-01 5.633E+00 7.735E+00 1.787E+06 10.2320 1.00000
  7.943E+06 7.945E+06 2.114E+00 2.395E-01 5.565E+00 5.754E-01 6.379E+00 8.494E+00 1.894E+06 10.4622 1.00000
  8.913E+06 8.914E+06 2.126E+00 2.728E-01 6.296E+00 6.530E-01 7.222E+00 9.348E+00 2.003E+06 10.6924 1.00000
  1.000E+07 1.000E+07 2.138E+00 3.107E-01 7.119E+00 7.415E-01 8.171E+00 1.031E+01 2.114E+06 10.9226 1.00000
  1.122E+07 1.122E+07 2.150E+00 3.536E-01 8.046E+00 8.424E-01 9.242E+00 1.139E+01 2.226E+06 11.1528 1.00000
  1.259E+07 1.259E+07 2.161E+00 4.024E-01 9.089E+00 9.573E-01 1.045E+01 1.261E+01 2.341E+06 11.3830 1.00000
  1.413E+07 1.413E+07 2.173E+00 4.578E-01 1.026E+01 1.088E+00 1.181E+01 1.398E+01 2.456E+06 11.6133 1.00000
  1.585E+07 1.585E+07 2.184E+00 5.205E-01 1.158E+01 1.238E+00 1.334E+01 1.553E+01 2.574E+06 11.8435 1.00000
  1.778E+07 1.778E+07 2.195E+00 5.917E-01 1.307E+01 1.408E+00 1.507E+01 1.726E+01 2.692E+06 12.0737 1.00000
  1.995E+07 1.995E+07 2.206E+00 6.724E-01 1.474E+01 1.603E+00 1.701E+01 1.922E+01 2.811E+06 12.3040 1.00000
  2.239E+07 2.239E+07 2.218E+00 7.638E-01 1.661E+01 1.824E+00 1.920E+01 2.142E+01 2.931E+06 12.5342 1.00000
  2.512E+07 2.512E+07 2.229E+00 8.674E-01 1.872E+01 2.077E+00 2.166E+01 2.389E+01 3.052E+06 12.7644 1.00000
  2.818E+07 2.819E+07 2.240E+00 9.847E-01 2.109E+01 2.366E+00 2.444E+01 2.668E+01 3.174E+06 12.9947 1.00000
  3.162E+07 3.162E+07 2.251E+00 1.117E+00 2.375E+01 2.695E+00 2.756E+01 2.981E+01 3.296E+06 13.2249 1.00000
  3.548E+07 3.548E+07 2.262E+00 1.268E+00 2.674E+01 3.071E+00 3.108E+01 3.334E+01 3.419E+06 13.4552 1.00000
  3.981E+07 3.981E+07 2.273E+00 1.438E+00 3.010E+01 3.500E+00 3.504E+01 3.731E+01 3.542E+06 13.6854 1.00000
  4.467E+07 4.467E+07 2.284E+00 1.630E+00 3.387E+01 3.989E+00 3.949E+01 4.178E+01 3.665E+06 13.9157 1.00000
  5.012E+07 5.012E+07 2.294E+00 1.847E+00 3.811E+01 4.548E+00 4.451E+01 4.680E+01 3.788E+06 14.1459 1.00000
  5.623E+07 5.624E+07 2.305E+00 2.093E+00 4.287E+01 5.185E+00 5.015E+01 5.245E+01 3.912E+06 14.3762 1.00000
  6.310E+07 6.310E+07 2.316E+00 2.370E+00 4.821E+01 5.913E+00 5.650E+01 5.881E+01 4.036E+06 14.6064 1.00000
  7.079E+07 7.080E+07 2.327E+00 2.684E+00 5.421E+01 6.745E+00 6.364E+01 6.597E+01 4.159E+06 14.8367 1.00000
  7.943E+07 7.943E+07 2.338E+00 3.037E+00 6.095E+01 7.694E+00 7.168E+01 7.402E+01 4.283E+06 15.0669 1.00000
  8.913E+07 8.913E+07 2.349E+00 3.437E+00 6.851E+01 8.777E+00 8.073E+01 8.307E+01 4.407E+06 15.2972 1.00000
  1.000E+08 1.000E+08 2.360E+00 3.888E+00 7.700E+01 1.001E+01 9.090E+01 9.326E+01 4.531E+06 15.5274 1.00000
  1.122E+08 1.122E+08 2.371E+00 4.396E+00 8.653E+01 1.143E+01 1.024E+02 1.047E+02 4.654E+06 15.7577 1.00000
  1.259E+08 1.259E+08 2.382E+00 4.970E+00 9.723E+01 1.304E+01 1.152E+02 1.176E+02 4.778E+06 15.9879 1.00000
  1.413E+08 1.413E+08 2.393E+00 5.617E+00 1.092E+02 1.489E+01 1.297E+02 1.321E+02 4.901E+06 16.2182 1.00000
  1.585E+08 1.585E+08 2.404E+00 6.346E+00 1.227E+02 1.699E+01 1.460E+02 1.484E+02 5.025E+06 16.4485 1.00000
  1.778E+08 1.778E+08 2.415E+00 7.168E+00 1.378E+02 1.940E+01 1.644E+02 1.668E+02 5.148E+06 16.6787 1.00000
  1.995E+08 1.995E+08 2.426E+00 8.094E+00 1.548E+02 2.214E+01 1.850E+02 1.875E+02 5.271E+06 16.9090 1.00000
  2.239E+08 2.239E+08 2.438E+00 9.137E+00 1.739E+02 2.528E+01 2.083E+02 2.107E+02 5.393E+06 17.1392 1.00000
  2.512E+08 2.512E+08 2.449E+00 1.031E+01 1.952E+02 2.887E+01 2.344E+02 2.369E+02 5.516E+06 17.3695 1.00000
  2.818E+08 2.818E+08 2.460E+00 1.163E+01 2.192E+02 3.297E+01 2.638E+02 2.663E+02 5.638E+06 17.5997 1.00000
  3.162E+08 3.162E+08 2.471E+00 1.312E+01 2.462E+02 3.765E+01 2.969E+02 2.994E+02 5.760E+06 17.8300 1.00000
  3.548E+08 3.548E+08 2.483E+00 1.480E+01 2.764E+02 4.300E+01 3.342E+02 3.366E+02 5.882E+06 18.0603 1.00000
  3.981E+08 3.981E+08 2.494E+00 1.668E+01 3.103E+02 4.911E+01 3.761E+02 3.786E+02 6.003E+06 18.2905 1.00000
  4.467E+08 4.467E+08 2.506E+00 1.880E+01 3.483E+02 5.609E+01 4.232E+02 4.257E+02 6.125E+06 18.5208 1.00000
  5.012E+08 5.012E+08 2.517E+00 2.119E+01 3.910E+02 6.408E+01 4.763E+02 4.788E+02 6.246E+06 18.7510 1.00000
  5.623E+08 5.623E+08 2.529E+00 2.387E+01 4.389E+02 7.320E+01 5.360E+02 5.385E+02 6.366E+06 18.9813 1.00000
  6.310E+08 6.310E+08 2.541E+00 2.689E+01 4.927E+02 8.363E+01 6.032E+02 6.058E+02 6.487E+06 19.2115 1.00000
  7.079E+08 7.079E+08 2.552E+00 3.028E+01 5.530E+02 9.555E+01 6.789E+02 6.814E+02 6.607E+06 19.4418 1.00000
  7.943E+08 7.943E+08 2.564E+00 3.409E+01 6.207E+02 1.092E+02 7.640E+02 7.666E+02 6.726E+06 19.6721 1.00000
  8.913E+08 8.913E+08 2.576E+00 3.838E+01 6.967E+02 1.248E+02 8.598E+02 8.624E+02 6.846E+06 19.9023 1.00000
  1.000E+09 1.000E+09 2.588E+00 4.319E+01 7.819E+02 1.426E+02 9.677E+02 9.702E+02 6.965E+06 20.1326 1.00000
  1.122E+09 1.122E+09 2.600E+00 4.860E+01 8.775E+02 1.629E+02 1.089E+03 1.092E+03 7.084E+06 20.3628 1.00000
  1.259E+09 1.259E+09 2.612E+00 5.468E+01 9.848E+02 1.862E+02 1.226E+03 1.228E+03 7.202E+06 20.5931 1.00000
  1.413E+09 1.413E+09 2.624E+00 6.151E+01 1.105E+03 2.128E+02 1.380E+03 1.382E+03 7.320E+06 20.8233 1.00000
  1.585E+09 1.585E+09 2.636E+00 6.918E+01 1.240E+03 2.432E+02 1.553E+03 1.555E+03 7.438E+06 21.0536 1.00000
  1.778E+09 1.778E+09 2.648E+00 7.780E+01 1.392E+03 2.780E+02 1.748E+03 1.750E+03 7.555E+06 21.2839 1.00000
  1.995E+09 1.995E+09 2.661E+00 8.747E+01 1.562E+03 3.178E+02 1.967E+03 1.970E+03 7.672E+06 21.5141 1.00000
  2.239E+09 2.239E+09 2.673E+00 9.834E+01 1.753E+03 3.634E+02 2.215E+03 2.217E+03 7.789E+06 21.7444 1.00000
  2.512E+09 2.512E+09 2.685E+00 1.105E+02 1.967E+03 4.154E+02 2.493E+03 2.496E+03 7.905E+06 21.9746 1.00000
  2.818E+09 2.818E+09 2.698E+00 1.242E+02 2.207E+03 4.749E+02 2.806E+03 2.809E+03 8.021E+06 22.2049 1.00000
  3.162E+09 3.162E+09 2.711E+00 1.396E+02 2.477E+03 5.430E+02 3.159E+03 3.162E+03 8.137E+06 22.4352 1.00000
  3.548E+09 3.548E+09 2.723E+00 1.569E+02 2.779E+03 6.209E+02 3.557E+03 3.560E+03 8.252E+06 22.6654 1.00000
  3.981E+09 3.981E+09 2.736E+00 1.763E+02 3.119E+03 7.100E+02 4.005E+03 4.008E+03 8.367E+06 22.8957 1.00000
  4.467E+09 4.467E+09 2.749E+00 1.981E+02 3.499E+03 8.120E+02 4.509E+03 4.512E+03 8.481E+06 23.1259 1.00000
  5.012E+09 5.012E+09 2.762E+00 2.225E+02 3.927E+03 9.286E+02 5.078E+03 5.081E+03 8.595E+06 23.3562 1.00000
  5.623E+09 5.623E+09 2.774E+00 2.499E+02 4.406E+03 1.062E+03 5.718E+03 5.721E+03 8.709E+06 23.5864 1.00000
  6.310E+09 6.310E+09 2.787E+00 2.807E+02 4.944E+03 1.215E+03 6.439E+03 6.442E+03 8.822E+06 23.8167 1.00000
  7.079E+09 7.079E+09 2.801E+00 3.153E+02 5.547E+03 1.389E+03 7.252E+03 7.255E+03 8.935E+06 24.0470 1.00000
  7.943E+09 7.943E+09 2.814E+00 3.541E+02 6.224E+03 1.589E+03 8.168E+03 8.171E+03 9.047E+06 24.2772 1.00000
  8.913E+09 8.913E+09 2.827E+00 3.976E+02 6.984E+03 1.818E+03 9.200E+03 9.203E+03 9.159E+06 24.5075 1.00000
  1.000E+10 1.000E+10 2.840E+00 4.464E+02 7.837E+03 2.080E+03 1.036E+04 1.037E+04 9.271E+06 24.7377 1.00000
  1.122E+10 1.122E+10 2.854E+00 5.013E+02 8.793E+03 2.379E+03 1.167E+04 1.168E+04 9.382E+06 24.9680 1.00000
  1.259E+10 1.259E+10 2.867E+00 5.628E+02 9.866E+03 2.722E+03 1.315E+04 1.315E+04 9.493E+06 25.1983 1.00000
  1.413E+10 1.413E+10 2.881E+00 6.318E+02 1.107E+04 3.115E+03 1.482E+04 1.482E+04 9.603E+06 25.4285 1.00000
  1.585E+10 1.585E+10 2.894E+00 7.093E+02 1.242E+04 3.564E+03 1.669E+04 1.670E+04 9.713E+06 25.6588 1.00000
  1.778E+10 1.778E+10 2.908E+00 7.963E+02 1.394E+04 4.078E+03 1.881E+04 1.881E+04 9.822E+06 25.8890 1.00000
  1.995E+10 1.995E+10 2.922E+00 8.939E+02 1.564E+04 4.667E+03 2.120E+04 2.120E+04 9.931E+06 26.1193 1.00000
  2.239E+10 2.239E+10 2.935E+00 1.003E+03 1.755E+04 5.341E+03 2.389E+04 2.389E+04 1.004E+07 26.3496 1.00000
  2.512E+10 2.512E+10 2.949E+00 1.126E+03 1.969E+04 6.112E+03 2.692E+04 2.693E+04 1.015E+07 26.5798 1.00000
  2.818E+10 2.818E+10 2.963E+00 1.264E+03 2.209E+04 6.996E+03 3.035E+04 3.035E+04 1.025E+07 26.8101 1.00000
  3.162E+10 3.162E+10 2.977E+00 1.419E+03 2.478E+04 8.007E+03 3.421E+04 3.421E+04 1.036E+07 27.0403 1.00000
  3.548E+10 3.548E+10 2.991E+00 1.592E+03 2.781E+04 9.165E+03 3.856E+04 3.857E+04 1.047E+07 27.2706 1.00000
  3.981E+10 3.981E+10 3.006E+00 1.787E+03 3.120E+04 1.049E+04 4.348E+04 4.348E+04 1.057E+07 27.5008 1.00000
  4.467E+10 4.467E+10 3.020E+00 2.006E+03 3.501E+04 1.201E+04 4.902E+04 4.902E+04 1.068E+07 27.7311 1.00000
  5.012E+10 5.012E+10 3.034E+00 2.251E+03 3.928E+04 1.375E+04 5.528E+04 5.528E+04 1.078E+07 27.9614 1.00000
  5.623E+10 5.623E+10 3.049E+00 2.526E+03 4.407E+04 1.574E+04 6.234E+04 6.234E+04 1.089E+07 28.1916 1.00000
  6.310E+10 6.310E+10 3.063E+00 2.835E+03 4.944E+04 1.802E+04 7.030E+04 7.031E+04 1.099E+07 28.4219 1.00000
  7.079E+10 7.079E+10 3.078E+00 3.182E+03 5.548E+04 2.064E+04 7.930E+04 7.930E+04 1.110E+07 28.6521 1.00000
  7.943E+10 7.943E+10 3.093E+00 3.571E+03 6.224E+04 2.363E+04 8.945E+04 8.945E+04 1.120E+07 28.8824 1.00000
  8.913E+10 8.913E+10 3.108E+00 4.007E+03 6.984E+04 2.706E+04 1.009E+05 1.009E+05 1.130E+07 29.1127 1.00000
  1.000E+11 1.000E+11 3.122E+00 4.496E+03 7.836E+04 3.099E+04 1.138E+05 1.138E+05 1.140E+07 29.3429 1.00000
  1.122E+11 1.122E+11 3.137E+00 5.046E+03 8.792E+04 3.549E+04 1.285E+05 1.285E+05 1.150E+07 29.5732 1.00000
  1.259E+11 1.259E+11 3.152E+00 5.662E+03 9.864E+04 4.065E+04 1.450E+05 1.450E+05 1.160E+07 29.8034 1.00000
  1.413E+11 1.413E+11 3.168E+00 6.353E+03 1.107E+05 4.656E+04 1.636E+05 1.636E+05 1.170E+07 30.0337 1.00000
  1.585E+11 1.585E+11 3.183E+00 7.129E+03 1.242E+05 5.333E+04 1.846E+05 1.846E+05 1.180E+07 30.2639 1.00000
  1.778E+11 1.778E+11 3.198E+00 8.000E+03 1.393E+05 6.108E+04 2.084E+05 2.084E+05 1.190E+07 30.4942 1.00000
  1.995E+11 1.995E+11 3.214E+00 8.977E+03 1.563E+05 6.997E+04 2.353E+05 2.353E+05 1.200E+07 30.7245 1.00000
  2.239E+11 2.239E+11 3.229E+00 1.007E+04 1.754E+05 8.016E+04 2.656E+05 2.656E+05 1.210E+07 30.9547 1.00000
  2.512E+11 2.512E+11 3.245E+00 1.130E+04 1.968E+05 9.184E+04 2.999E+05 2.999E+05 1.219E+07 31.1850 1.00000
  2.818E+11 2.818E+11 3.260E+00 1.268E+04 2.208E+05 1.052E+05 3.387E+05 3.387E+05 1.229E+07 31.4152 1.00000
  3.162E+11 3.162E+11 3.276E+00 1.423E+04 2.477E+05 1.206E+05 3.825E+05 3.825E+05 1.239E+07 31.6455 1.00000
  3.548E+11 3.548E+11 3.292E+00 1.597E+04 2.779E+05 1.381E+05 4.320E+05 4.321E+05 1.248E+07 31.8758 1.00000
  3.981E+11 3.981E+11 3.308E+00 1.792E+04 3.118E+05 1.583E+05 4.881E+05 4.881E+05 1.258E+07 32.1060 1.00000
  4.467E+11 4.467E+11 3.324E+00 2.010E+04 3.499E+05 1.814E+05 5.514E+05 5.514E+05 1.267E+07 32.3363 1.00000
  5.012E+11 5.012E+11 3.340E+00 2.256E+04 3.926E+05 2.079E+05 6.230E+05 6.230E+05 1.276E+07 32.5665 1.00000
  5.623E+11 5.623E+11 3.356E+00 2.531E+04 4.404E+05 2.383E+05 7.040E+05 7.040E+05 1.286E+07 32.7968 1.00000
  6.310E+11 6.310E+11 3.372E+00 2.840E+04 4.942E+05 2.731E+05 7.956E+05 7.956E+05 1.295E+07 33.0270 1.00000
  7.079E+11 7.079E+11 3.389E+00 3.187E+04 5.545E+05 3.130E+05 8.993E+05 8.993E+05 1.304E+07 33.2573 1.00000
  7.943E+11 7.943E+11 3.405E+00 3.575E+04 6.221E+05 3.588E+05 1.017E+06 1.017E+06 1.313E+07 33.4876 1.00000
  8.913E+11 8.913E+11 3.422E+00 4.012E+04 6.980E+05 4.113E+05 1.149E+06 1.149E+06 1.322E+07 33.7178 1.00000
  1.000E+12 1.000E+12 3.438E+00 4.501E+04 7.831E+05 4.715E+05 1.300E+06 1.300E+06 1.331E+07 33.9481 1.00000
  1.122E+12 1.122E+12 3.455E+00 5.051E+04 8.786E+05 5.405E+05 1.470E+06 1.470E+06 1.340E+07 34.1783 1.00000
  1.259E+12 1.259E+12 3.472E+00 5.667E+04 9.858E+05 6.197E+05 1.662E+06 1.662E+06 1.348E+07 34.4086 1.00000
  1.413E+12 1.413E+12 3.489E+00 6.359E+04 1.106E+06 7.105E+05 1.880E+06 1.880E+06 1.357E+07 34.6389 1.00000
  1.585E+12 1.585E+12 3.506E+00 7.135E+04 1.241E+06 8.146E+05 2.127E+06 2.127E+06 1.366E+07 34.8691 1.00000
  1.778E+12 1.778E+12 3.523E+00 8.005E+04 1.392E+06 9.341E+05 2.406E+06 2.406E+06 1.374E+07 35.0994 1.00000
  1.995E+12 1.995E+12 3.540E+00 8.982E+04 1.562E+06 1.071E+06 2.723E+06 2.723E+06 1.383E+07 35.3296 1.00000
  2.239E+12 2.239E+12 3.557E+00 1.008E+05 1.753E+06 1.228E+06 3.082E+06 3.082E+06 1.391E+07 35.5599 1.00000
  2.512E+12 2.512E+12 3.575E+00 1.131E+05 1.966E+06 1.409E+06 3.488E+06 3.488E+06 1.400E+07 35.7901 1.00000
  2.818E+12 2.818E+12 3.592E+00 1.269E+05 2.206E+06 1.616E+06 3.949E+06 3.949E+06 1.408E+07 36.0204 1.00000
  3.162E+12 3.162E+12 3.610E+00 1.424E+05 2.475E+06 1.853E+06 4.471E+06 4.471E+06 1.416E+07 36.2507 1.00000
  3.548E+12 3.548E+12 3.628E+00 1.597E+05 2.777E+06 2.126E+06 5.063E+06 5.063E+06 1.424E+07 36.4809 1.00000
  3.981E+12 3.981E+12 3.645E+00 1.792E+05 3.116E+06 2.438E+06 5.733E+06 5.733E+06 1.432E+07 36.7112 1.00000
  4.467E+12 4.467E+12 3.663E+00 2.011E+05 3.496E+06 2.797E+06 6.494E+06 6.494E+06 1.440E+07 36.9414 1.00000
  5.012E+12 5.012E+12 3.681E+00 2.256E+05 3.923E+06 3.208E+06 7.357E+06 7.357E+06 1.448E+07 37.1717 1.00000
  5.623E+12 5.623E+12 3.699E+00 2.532E+05 4.401E+06 3.681E+06 8.335E+06 8.335E+06 1.456E+07 37.4020 1.00000
  6.310E+12 6.310E+12 3.717E+00 2.841E+05 4.938E+06 4.223E+06 9.445E+06 9.445E+06 1.464E+07 37.6322 1.00000
  7.079E+12 7.079E+12 3.736E+00 3.187E+05 5.540E+06 4.845E+06 1.070E+07 1.070E+07 1.471E+07 37.8625 1.00000
  7.943E+12 7.943E+12 3.754E+00 3.576E+05 6.216E+06 5.560E+06 1.213E+07 1.213E+07 1.479E+07 38.0927 1.00000
  8.913E+12 8.913E+12 3.772E+00 4.012E+05 6.974E+06 6.379E+06 1.375E+07 1.375E+07 1.486E+07 38.3230 1.00000
  1.000E+13 1.000E+13 3.791E+00 4.502E+05 7.824E+06 7.320E+06 1.559E+07 1.559E+07 1.494E+07 38.5533 1.00000
  1.122E+13 1.122E+13 3.810E+00 5.051E+05 8.778E+06 8.401E+06 1.768E+07 1.768E+07 1.501E+07 38.7835 1.00000
  1.259E+13 1.259E+13 3.829E+00 5.668E+05 9.849E+06 9.641E+06 2.006E+07 2.006E+07 1.509E+07 39.0138 1.00000
  1.413E+13 1.413E+13 3.847E+00 6.359E+05 1.105E+07 1.106E+07 2.275E+07 2.275E+07 1.516E+07 39.2440 1.00000
  1.585E+13 1.585E+13 3.866E+00 7.135E+05 1.240E+07 1.270E+07 2.581E+07 2.581E+07 1.523E+07 39.4743 1.00000
  1.778E+13 1.778E+13 3.885E+00 8.006E+05 1.391E+07 1.458E+07 2.929E+07 2.929E+07 1.530E+07 39.7045 1.00000
  1.995E+13 1.995E+13 3.905E+00 8.983E+05 1.561E+07 1.673E+07 3.324E+07 3.324E+07 1.537E+07 39.9348 1.00000
  2.239E+13 2.239E+13 3.924E+00 1.008E+06 1.751E+07 1.921E+07 3.772E+07 3.772E+07 1.544E+07 40.1651 1.00000
  2.512E+13 2.512E+13 3.943E+00 1.131E+06 1.965E+07 2.205E+07 4.282E+07 4.282E+07 1.551E+07 40.3953 1.00000
  2.818E+13 2.818E+13 3.963E+00 1.269E+06 2.204E+07 2.531E+07 4.862E+07 4.862E+07 1.557E+07 40.6256 1.00000
  3.162E+13 3.162E+13 3.982E+00 1.424E+06 2.473E+07 2.906E+07 5.521E+07 5.521E+07 1.564E+07 40.8558 1.00000
  3.548E+13 3.548E+13 4.002E+00 1.597E+06 2.775E+07 3.336E+07 6.271E+07 6.271E+07 1.571E+07 41.0861 1.00000
  3.981E+13 3.981E+13 4.022E+00 1.792E+06 3.113E+07 3.831E+07 7.123E+07 7.123E+07 1.577E+07 41.3164 1.00000
  4.467E+13 4.467E+13 4.042E+00 2.011E+06 3.493E+07 4.399E+07 8.092E+07 8.092E+07 1.583E+07 41.5466 1.00000
  5.012E+13 5.012E+13 4.062E+00 2.256E+06 3.919E+07 5.051E+07 9.195E+07 9.195E+07 1.590E+07 41.7769 1.00000
  5.623E+13 5.623E+13 4.082E+00 2.532E+06 4.396E+07 5.800E+07 1.045E+08 1.045E+08 1.596E+07 42.0071 1.00000
  6.310E+13 6.310E+13 4.102E+00 2.841E+06 4.933E+07 6.661E+07 1.188E+08 1.188E+08 1.602E+07 42.2374 1.00000
  7.079E+13 7.079E+13 4.123E+00 3.187E+06 5.534E+07 7.650E+07 1.350E+08 1.350E+08 1.608E+07 42.4676 1.00000
  7.943E+13 7.943E+13 4.143E+00 3.576E+06 6.209E+07 8.786E+07 1.535E+08 1.535E+08 1.614E+07 42.6979 1.00000
  8.913E+13 8.913E+13 4.164E+00 4.012E+06 6.966E+07 1.009E+08 1.746E+08 1.746E+08 1.620E+07 42.9282 1.00000
