 Incident particle is a Tau with M = 1776.82000 MeV
 Index = 0: EpoTek301
      Absorber with <Z/A> = 0.53404
 Sternheimer coef:  a     k=m_s   x_0    x_1    I[eV]   Cbar  delta0
                 0.4270  3.0000  0.2000  2.0000   76.7  3.4112 0.00

 *** Table generated with PUMAS v1.00 ***

      T         p     Ionization  brems     pair     photonuc  Radloss    dE/dx   CSDA Range  delta   beta
    [MeV]    [MeV/c]  -----------------------[MeV cm^2/g]------------------------  [g/cm^2]
  1.000E+05 1.018E+05 2.348E+00 1.239E-04 1.924E-03 8.398E-03 1.045E-02 2.359E+00 2.120E+04  4.6905 0.99985
  1.122E+05 1.140E+05 2.367E+00 1.430E-04 2.325E-03 9.488E-03 1.196E-02 2.379E+00 2.635E+04  4.9140 0.99988
  1.259E+05 1.277E+05 2.387E+00 1.651E-04 2.800E-03 1.066E-02 1.363E-02 2.400E+00 3.208E+04  5.1391 0.99990
  1.413E+05 1.430E+05 2.406E+00 1.905E-04 3.359E-03 1.199E-02 1.554E-02 2.422E+00 3.845E+04  5.3655 0.99992
  1.585E+05 1.603E+05 2.425E+00 2.198E-04 4.017E-03 1.347E-02 1.770E-02 2.443E+00 4.554E+04  5.5927 0.99994
  1.778E+05 1.796E+05 2.445E+00 2.534E-04 4.789E-03 1.512E-02 2.017E-02 2.465E+00 5.342E+04  5.8206 0.99995
  1.995E+05 2.013E+05 2.464E+00 2.920E-04 5.694E-03 1.701E-02 2.300E-02 2.487E+00 6.218E+04  6.0487 0.99996
  2.239E+05 2.256E+05 2.484E+00 3.363E-04 6.752E-03 1.908E-02 2.617E-02 2.510E+00 7.192E+04  6.2770 0.99997
  2.512E+05 2.530E+05 2.503E+00 3.872E-04 7.987E-03 2.140E-02 2.977E-02 2.533E+00 8.276E+04  6.5056 0.99998
  2.818E+05 2.836E+05 2.522E+00 4.456E-04 9.426E-03 2.401E-02 3.388E-02 2.556E+00 9.480E+04  6.7343 0.99998
  3.162E+05 3.180E+05 2.542E+00 5.127E-04 1.110E-02 2.696E-02 3.857E-02 2.580E+00 1.082E+05  6.9632 0.99998
  3.548E+05 3.566E+05 2.561E+00 5.896E-04 1.304E-02 3.028E-02 4.391E-02 2.605E+00 1.231E+05  7.1923 0.99999
  3.981E+05 3.999E+05 2.581E+00 6.777E-04 1.530E-02 3.398E-02 4.995E-02 2.631E+00 1.396E+05  7.4215 0.99999
  4.467E+05 4.485E+05 2.600E+00 7.788E-04 1.790E-02 3.813E-02 5.682E-02 2.657E+00 1.580E+05  7.6508 0.99999
  5.012E+05 5.030E+05 2.619E+00 8.946E-04 2.092E-02 4.281E-02 6.463E-02 2.684E+00 1.784E+05  7.8802 0.99999
  5.623E+05 5.641E+05 2.639E+00 1.027E-03 2.440E-02 4.788E-02 7.331E-02 2.712E+00 2.011E+05  8.1097 1.00000
  6.310E+05 6.327E+05 2.658E+00 1.179E-03 2.842E-02 5.360E-02 8.319E-02 2.741E+00 2.262E+05  8.3392 1.00000
  7.079E+05 7.097E+05 2.677E+00 1.353E-03 3.304E-02 6.005E-02 9.445E-02 2.772E+00 2.542E+05  8.5689 1.00000
  7.943E+05 7.961E+05 2.696E+00 1.552E-03 3.836E-02 6.735E-02 1.073E-01 2.804E+00 2.852E+05  8.7986 1.00000
  8.913E+05 8.930E+05 2.715E+00 1.780E-03 4.447E-02 7.559E-02 1.218E-01 2.837E+00 3.195E+05  9.0284 1.00000
  1.000E+06 1.002E+06 2.734E+00 2.041E-03 5.148E-02 8.491E-02 1.384E-01 2.873E+00 3.576E+05  9.2582 1.00000
  1.122E+06 1.124E+06 2.753E+00 2.339E-03 5.951E-02 9.547E-02 1.573E-01 2.910E+00 3.998E+05  9.4881 1.00000
  1.259E+06 1.261E+06 2.772E+00 2.680E-03 6.872E-02 1.074E-01 1.788E-01 2.951E+00 4.465E+05  9.7180 1.00000
  1.413E+06 1.414E+06 2.790E+00 3.070E-03 7.924E-02 1.210E-01 2.033E-01 2.994E+00 4.982E+05  9.9479 1.00000
  1.585E+06 1.587E+06 2.809E+00 3.516E-03 9.127E-02 1.364E-01 2.312E-01 3.040E+00 5.554E+05 10.1779 1.00000
  1.778E+06 1.780E+06 2.827E+00 4.026E-03 1.050E-01 1.538E-01 2.628E-01 3.090E+00 6.184E+05 10.4079 1.00000
  1.995E+06 1.997E+06 2.846E+00 4.608E-03 1.207E-01 1.736E-01 2.989E-01 3.145E+00 6.881E+05 10.6380 1.00000
  2.239E+06 2.240E+06 2.864E+00 5.274E-03 1.385E-01 1.961E-01 3.399E-01 3.204E+00 7.648E+05 10.8681 1.00000
  2.512E+06 2.514E+06 2.882E+00 6.034E-03 1.588E-01 2.217E-01 3.865E-01 3.268E+00 8.492E+05 11.0981 1.00000
  2.818E+06 2.820E+06 2.899E+00 6.902E-03 1.819E-01 2.507E-01 4.396E-01 3.339E+00 9.420E+05 11.3282 1.00000
  3.162E+06 3.164E+06 2.917E+00 7.892E-03 2.082E-01 2.838E-01 4.999E-01 3.417E+00 1.044E+06 11.5584 1.00000
  3.548E+06 3.550E+06 2.935E+00 9.023E-03 2.380E-01 3.214E-01 5.684E-01 3.503E+00 1.155E+06 11.7885 1.00000
  3.981E+06 3.983E+06 2.952E+00 1.031E-02 2.719E-01 3.641E-01 6.463E-01 3.598E+00 1.277E+06 12.0187 1.00000
  4.467E+06 4.469E+06 2.969E+00 1.179E-02 3.102E-01 4.128E-01 7.348E-01 3.704E+00 1.410E+06 12.2488 1.00000
  5.012E+06 5.014E+06 2.986E+00 1.346E-02 3.537E-01 4.682E-01 8.354E-01 3.821E+00 1.555E+06 12.4790 1.00000
  5.623E+06 5.625E+06 3.003E+00 1.538E-02 4.030E-01 5.313E-01 9.497E-01 3.952E+00 1.713E+06 12.7092 1.00000
  6.310E+06 6.311E+06 3.019E+00 1.756E-02 4.587E-01 6.032E-01 1.079E+00 4.099E+00 1.883E+06 12.9394 1.00000
  7.079E+06 7.081E+06 3.036E+00 2.005E-02 5.217E-01 6.851E-01 1.227E+00 4.263E+00 2.067E+06 13.1696 1.00000
  7.943E+06 7.945E+06 3.052E+00 2.288E-02 5.930E-01 7.784E-01 1.394E+00 4.446E+00 2.266E+06 13.3998 1.00000
  8.913E+06 8.914E+06 3.068E+00 2.610E-02 6.734E-01 8.848E-01 1.584E+00 4.653E+00 2.479E+06 13.6300 1.00000
  1.000E+07 1.000E+07 3.084E+00 2.978E-02 7.643E-01 1.006E+00 1.800E+00 4.884E+00 2.707E+06 13.8602 1.00000
  1.122E+07 1.122E+07 3.100E+00 3.396E-02 8.669E-01 1.144E+00 2.045E+00 5.145E+00 2.951E+06 14.0904 1.00000
  1.259E+07 1.259E+07 3.116E+00 3.872E-02 9.827E-01 1.302E+00 2.323E+00 5.439E+00 3.210E+06 14.3206 1.00000
  1.413E+07 1.413E+07 3.131E+00 4.413E-02 1.113E+00 1.481E+00 2.639E+00 5.770E+00 3.484E+06 14.5509 1.00000
  1.585E+07 1.585E+07 3.147E+00 5.029E-02 1.260E+00 1.686E+00 2.997E+00 6.144E+00 3.774E+06 14.7811 1.00000
  1.778E+07 1.778E+07 3.162E+00 5.728E-02 1.426E+00 1.920E+00 3.403E+00 6.565E+00 4.078E+06 15.0113 1.00000
  1.995E+07 1.995E+07 3.177E+00 6.524E-02 1.613E+00 2.187E+00 3.865E+00 7.042E+00 4.397E+06 15.2416 1.00000
  2.239E+07 2.239E+07 3.192E+00 7.428E-02 1.823E+00 2.491E+00 4.388E+00 7.581E+00 4.731E+06 15.4718 1.00000
  2.512E+07 2.512E+07 3.208E+00 8.455E-02 2.060E+00 2.838E+00 4.982E+00 8.190E+00 5.078E+06 15.7020 1.00000
  2.818E+07 2.819E+07 3.223E+00 9.621E-02 2.326E+00 3.234E+00 5.656E+00 8.879E+00 5.438E+06 15.9323 1.00000
  3.162E+07 3.162E+07 3.238E+00 1.094E-01 2.626E+00 3.685E+00 6.421E+00 9.659E+00 5.809E+06 16.1625 1.00000
  3.548E+07 3.548E+07 3.252E+00 1.245E-01 2.963E+00 4.201E+00 7.289E+00 1.054E+01 6.192E+06 16.3928 1.00000
  3.981E+07 3.981E+07 3.267E+00 1.415E-01 3.343E+00 4.790E+00 8.274E+00 1.154E+01 6.585E+06 16.6230 1.00000
  4.467E+07 4.467E+07 3.282E+00 1.609E-01 3.769E+00 5.461E+00 9.391E+00 1.267E+01 6.987E+06 16.8533 1.00000
  5.012E+07 5.012E+07 3.297E+00 1.828E-01 4.248E+00 6.228E+00 1.066E+01 1.396E+01 7.397E+06 17.0835 1.00000
  5.623E+07 5.624E+07 3.312E+00 2.076E-01 4.787E+00 7.104E+00 1.210E+01 1.541E+01 7.815E+06 17.3138 1.00000
  6.310E+07 6.310E+07 3.327E+00 2.358E-01 5.392E+00 8.103E+00 1.373E+01 1.706E+01 8.239E+06 17.5440 1.00000
  7.079E+07 7.080E+07 3.342E+00 2.677E-01 6.073E+00 9.244E+00 1.558E+01 1.893E+01 8.668E+06 17.7743 1.00000
  7.943E+07 7.943E+07 3.356E+00 3.038E-01 6.837E+00 1.055E+01 1.769E+01 2.104E+01 9.101E+06 18.0045 1.00000
  8.913E+07 8.913E+07 3.371E+00 3.447E-01 7.695E+00 1.204E+01 2.008E+01 2.345E+01 9.538E+06 18.2348 1.00000
  1.000E+08 1.000E+08 3.386E+00 3.910E-01 8.660E+00 1.373E+01 2.279E+01 2.617E+01 9.978E+06 18.4650 1.00000
  1.122E+08 1.122E+08 3.401E+00 4.434E-01 9.742E+00 1.567E+01 2.586E+01 2.926E+01 1.042E+07 18.6953 1.00000
  1.259E+08 1.259E+08 3.416E+00 5.027E-01 1.096E+01 1.789E+01 2.935E+01 3.277E+01 1.086E+07 18.9255 1.00000
  1.413E+08 1.413E+08 3.431E+00 5.697E-01 1.232E+01 2.042E+01 3.332E+01 3.675E+01 1.131E+07 19.1558 1.00000
  1.585E+08 1.585E+08 3.446E+00 6.455E-01 1.386E+01 2.331E+01 3.782E+01 4.126E+01 1.175E+07 19.3861 1.00000
  1.778E+08 1.778E+08 3.461E+00 7.311E-01 1.558E+01 2.662E+01 4.293E+01 4.639E+01 1.219E+07 19.6163 1.00000
  1.995E+08 1.995E+08 3.476E+00 8.279E-01 1.751E+01 3.039E+01 4.873E+01 5.220E+01 1.263E+07 19.8466 1.00000
  2.239E+08 2.239E+08 3.492E+00 9.372E-01 1.968E+01 3.470E+01 5.532E+01 5.881E+01 1.307E+07 20.0768 1.00000
  2.512E+08 2.512E+08 3.507E+00 1.061E+00 2.211E+01 3.962E+01 6.280E+01 6.631E+01 1.351E+07 20.3071 1.00000
  2.818E+08 2.818E+08 3.522E+00 1.200E+00 2.485E+01 4.525E+01 7.130E+01 7.482E+01 1.395E+07 20.5373 1.00000
  3.162E+08 3.162E+08 3.538E+00 1.357E+00 2.792E+01 5.168E+01 8.095E+01 8.449E+01 1.438E+07 20.7676 1.00000
  3.548E+08 3.548E+08 3.553E+00 1.535E+00 3.136E+01 5.903E+01 9.192E+01 9.547E+01 1.481E+07 20.9979 1.00000
  3.981E+08 3.981E+08 3.569E+00 1.735E+00 3.522E+01 6.742E+01 1.044E+02 1.079E+02 1.524E+07 21.2281 1.00000
  4.467E+08 4.467E+08 3.584E+00 1.961E+00 3.956E+01 7.701E+01 1.185E+02 1.221E+02 1.566E+07 21.4584 1.00000
  5.012E+08 5.012E+08 3.600E+00 2.215E+00 4.443E+01 8.798E+01 1.346E+02 1.382E+02 1.608E+07 21.6886 1.00000
  5.623E+08 5.623E+08 3.616E+00 2.502E+00 4.989E+01 1.005E+02 1.529E+02 1.565E+02 1.650E+07 21.9189 1.00000
  6.310E+08 6.310E+08 3.632E+00 2.826E+00 5.602E+01 1.148E+02 1.737E+02 1.773E+02 1.691E+07 22.1491 1.00000
  7.079E+08 7.079E+08 3.648E+00 3.190E+00 6.290E+01 1.312E+02 1.973E+02 2.009E+02 1.732E+07 22.3794 1.00000
  7.943E+08 7.943E+08 3.664E+00 3.601E+00 7.062E+01 1.499E+02 2.241E+02 2.278E+02 1.773E+07 22.6097 1.00000
  8.913E+08 8.913E+08 3.680E+00 4.063E+00 7.928E+01 1.713E+02 2.547E+02 2.583E+02 1.813E+07 22.8399 1.00000
  1.000E+09 1.000E+09 3.696E+00 4.584E+00 8.900E+01 1.958E+02 2.894E+02 2.930E+02 1.852E+07 23.0702 1.00000
  1.122E+09 1.122E+09 3.712E+00 5.171E+00 9.991E+01 2.237E+02 3.288E+02 3.325E+02 1.891E+07 23.3004 1.00000
  1.259E+09 1.259E+09 3.729E+00 5.831E+00 1.122E+02 2.557E+02 3.737E+02 3.774E+02 1.930E+07 23.5307 1.00000
  1.413E+09 1.413E+09 3.745E+00 6.574E+00 1.259E+02 2.922E+02 4.247E+02 4.285E+02 1.968E+07 23.7609 1.00000
  1.585E+09 1.585E+09 3.762E+00 7.410E+00 1.413E+02 3.340E+02 4.827E+02 4.865E+02 2.006E+07 23.9912 1.00000
  1.778E+09 1.778E+09 3.778E+00 8.350E+00 1.586E+02 3.818E+02 5.488E+02 5.526E+02 2.044E+07 24.2215 1.00000
  1.995E+09 1.995E+09 3.795E+00 9.408E+00 1.780E+02 4.365E+02 6.239E+02 6.277E+02 2.080E+07 24.4517 1.00000
  2.239E+09 2.239E+09 3.812E+00 1.060E+01 1.998E+02 4.990E+02 7.094E+02 7.132E+02 2.117E+07 24.6820 1.00000
  2.512E+09 2.512E+09 3.829E+00 1.194E+01 2.242E+02 5.705E+02 8.066E+02 8.104E+02 2.153E+07 24.9122 1.00000
  2.818E+09 2.818E+09 3.846E+00 1.344E+01 2.516E+02 6.522E+02 9.173E+02 9.211E+02 2.188E+07 25.1425 1.00000
  3.162E+09 3.162E+09 3.863E+00 1.513E+01 2.824E+02 7.458E+02 1.043E+03 1.047E+03 2.224E+07 25.3728 1.00000
  3.548E+09 3.548E+09 3.880E+00 1.703E+01 3.169E+02 8.528E+02 1.187E+03 1.191E+03 2.258E+07 25.6030 1.00000
  3.981E+09 3.981E+09 3.897E+00 1.917E+01 3.556E+02 9.751E+02 1.350E+03 1.354E+03 2.292E+07 25.8333 1.00000
  4.467E+09 4.467E+09 3.915E+00 2.157E+01 3.991E+02 1.115E+03 1.536E+03 1.540E+03 2.326E+07 26.0635 1.00000
  5.012E+09 5.012E+09 3.932E+00 2.427E+01 4.478E+02 1.275E+03 1.747E+03 1.751E+03 2.359E+07 26.2938 1.00000
  5.623E+09 5.623E+09 3.950E+00 2.730E+01 5.025E+02 1.459E+03 1.988E+03 1.992E+03 2.392E+07 26.5240 1.00000
  6.310E+09 6.310E+09 3.967E+00 3.070E+01 5.639E+02 1.668E+03 2.263E+03 2.267E+03 2.425E+07 26.7543 1.00000
  7.079E+09 7.079E+09 3.985E+00 3.453E+01 6.327E+02 1.908E+03 2.575E+03 2.579E+03 2.456E+07 26.9846 1.00000
  7.943E+09 7.943E+09 4.003E+00 3.883E+01 7.100E+02 2.183E+03 2.931E+03 2.935E+03 2.488E+07 27.2148 1.00000
  8.913E+09 8.913E+09 4.021E+00 4.365E+01 7.967E+02 2.497E+03 3.337E+03 3.341E+03 2.519E+07 27.4451 1.00000
  1.000E+10 1.000E+10 4.039E+00 4.907E+01 8.940E+02 2.856E+03 3.799E+03 3.803E+03 2.549E+07 27.6753 1.00000
  1.122E+10 1.122E+10 4.057E+00 5.516E+01 1.003E+03 3.268E+03 4.326E+03 4.330E+03 2.580E+07 27.9056 1.00000
  1.259E+10 1.259E+10 4.076E+00 6.199E+01 1.126E+03 3.739E+03 4.926E+03 4.930E+03 2.609E+07 28.1359 1.00000
  1.413E+10 1.413E+10 4.094E+00 6.967E+01 1.263E+03 4.278E+03 5.610E+03 5.614E+03 2.639E+07 28.3661 1.00000
  1.585E+10 1.585E+10 4.112E+00 7.828E+01 1.417E+03 4.895E+03 6.390E+03 6.394E+03 2.667E+07 28.5964 1.00000
  1.778E+10 1.778E+10 4.131E+00 8.796E+01 1.590E+03 5.601E+03 7.279E+03 7.283E+03 2.696E+07 28.8266 1.00000
  1.995E+10 1.995E+10 4.150E+00 9.881E+01 1.784E+03 6.409E+03 8.292E+03 8.296E+03 2.724E+07 29.0569 1.00000
  2.239E+10 2.239E+10 4.169E+00 1.110E+02 2.002E+03 7.335E+03 9.448E+03 9.452E+03 2.751E+07 29.2872 1.00000
  2.512E+10 2.512E+10 4.187E+00 1.247E+02 2.246E+03 8.394E+03 1.077E+04 1.077E+04 2.778E+07 29.5174 1.00000
  2.818E+10 2.818E+10 4.206E+00 1.401E+02 2.520E+03 9.608E+03 1.227E+04 1.227E+04 2.805E+07 29.7477 1.00000
  3.162E+10 3.162E+10 4.226E+00 1.573E+02 2.828E+03 1.100E+04 1.398E+04 1.399E+04 2.831E+07 29.9779 1.00000
  3.548E+10 3.548E+10 4.245E+00 1.766E+02 3.173E+03 1.259E+04 1.594E+04 1.594E+04 2.857E+07 30.2082 1.00000
  3.981E+10 3.981E+10 4.264E+00 1.984E+02 3.560E+03 1.441E+04 1.817E+04 1.817E+04 2.883E+07 30.4384 1.00000
  4.467E+10 4.467E+10 4.284E+00 2.227E+02 3.994E+03 1.649E+04 2.071E+04 2.072E+04 2.908E+07 30.6687 1.00000
  5.012E+10 5.012E+10 4.303E+00 2.501E+02 4.482E+03 1.888E+04 2.362E+04 2.362E+04 2.933E+07 30.8990 1.00000
  5.623E+10 5.623E+10 4.323E+00 2.808E+02 5.029E+03 2.162E+04 2.693E+04 2.693E+04 2.957E+07 31.1292 1.00000
  6.310E+10 6.310E+10 4.343E+00 3.153E+02 5.642E+03 2.475E+04 3.071E+04 3.072E+04 2.981E+07 31.3595 1.00000
  7.079E+10 7.079E+10 4.363E+00 3.540E+02 6.331E+03 2.834E+04 3.503E+04 3.503E+04 3.004E+07 31.5897 1.00000
  7.943E+10 7.943E+10 4.383E+00 3.974E+02 7.103E+03 3.245E+04 3.995E+04 3.996E+04 3.027E+07 31.8200 1.00000
  8.913E+10 8.913E+10 4.403E+00 4.461E+02 7.970E+03 3.716E+04 4.558E+04 4.558E+04 3.050E+07 32.0503 1.00000
  1.000E+11 1.000E+11 4.423E+00 5.007E+02 8.942E+03 4.256E+04 5.200E+04 5.201E+04 3.073E+07 32.2805 1.00000
  1.122E+11 1.122E+11 4.443E+00 5.621E+02 1.003E+04 4.874E+04 5.934E+04 5.934E+04 3.095E+07 32.5108 1.00000
  1.259E+11 1.259E+11 4.464E+00 6.309E+02 1.126E+04 5.582E+04 6.771E+04 6.772E+04 3.116E+07 32.7410 1.00000
  1.413E+11 1.413E+11 4.484E+00 7.081E+02 1.263E+04 6.394E+04 7.728E+04 7.728E+04 3.138E+07 32.9713 1.00000
  1.585E+11 1.585E+11 4.505E+00 7.948E+02 1.417E+04 7.324E+04 8.820E+04 8.821E+04 3.159E+07 33.2015 1.00000
  1.778E+11 1.778E+11 4.526E+00 8.920E+02 1.590E+04 8.389E+04 1.007E+05 1.007E+05 3.179E+07 33.4318 1.00000
  1.995E+11 1.995E+11 4.547E+00 1.001E+03 1.784E+04 9.610E+04 1.149E+05 1.149E+05 3.199E+07 33.6621 1.00000
  2.239E+11 2.239E+11 4.568E+00 1.124E+03 2.002E+04 1.101E+05 1.312E+05 1.312E+05 3.219E+07 33.8923 1.00000
  2.512E+11 2.512E+11 4.589E+00 1.261E+03 2.246E+04 1.261E+05 1.498E+05 1.499E+05 3.239E+07 34.1226 1.00000
  2.818E+11 2.818E+11 4.610E+00 1.415E+03 2.520E+04 1.445E+05 1.711E+05 1.711E+05 3.258E+07 34.3528 1.00000
  3.162E+11 3.162E+11 4.632E+00 1.588E+03 2.827E+04 1.656E+05 1.954E+05 1.954E+05 3.277E+07 34.5831 1.00000
  3.548E+11 3.548E+11 4.653E+00 1.782E+03 3.172E+04 1.897E+05 2.232E+05 2.232E+05 3.295E+07 34.8134 1.00000
  3.981E+11 3.981E+11 4.675E+00 2.000E+03 3.559E+04 2.174E+05 2.550E+05 2.550E+05 3.313E+07 35.0436 1.00000
  4.467E+11 4.467E+11 4.697E+00 2.244E+03 3.993E+04 2.491E+05 2.913E+05 2.913E+05 3.331E+07 35.2739 1.00000
  5.012E+11 5.012E+11 4.718E+00 2.519E+03 4.480E+04 2.855E+05 3.328E+05 3.328E+05 3.349E+07 35.5041 1.00000
  5.623E+11 5.623E+11 4.740E+00 2.826E+03 5.026E+04 3.272E+05 3.803E+05 3.803E+05 3.366E+07 35.7344 1.00000
  6.310E+11 6.310E+11 4.763E+00 3.171E+03 5.640E+04 3.750E+05 4.346E+05 4.346E+05 3.383E+07 35.9646 1.00000
  7.079E+11 7.079E+11 4.785E+00 3.559E+03 6.327E+04 4.299E+05 4.967E+05 4.967E+05 3.400E+07 36.1949 1.00000
  7.943E+11 7.943E+11 4.807E+00 3.993E+03 7.099E+04 4.927E+05 5.677E+05 5.677E+05 3.416E+07 36.4252 1.00000
  8.913E+11 8.913E+11 4.830E+00 4.481E+03 7.965E+04 5.648E+05 6.490E+05 6.490E+05 3.432E+07 36.6554 1.00000
  1.000E+12 1.000E+12 4.852E+00 5.028E+03 8.937E+04 6.475E+05 7.419E+05 7.419E+05 3.448E+07 36.8857 1.00000
  1.122E+12 1.122E+12 4.875E+00 5.642E+03 1.003E+05 7.423E+05 8.482E+05 8.482E+05 3.463E+07 37.1159 1.00000
  1.259E+12 1.259E+12 4.898E+00 6.331E+03 1.125E+05 8.510E+05 9.699E+05 9.699E+05 3.478E+07 37.3462 1.00000
  1.413E+12 1.413E+12 4.921E+00 7.104E+03 1.262E+05 9.758E+05 1.109E+06 1.109E+06 3.493E+07 37.5765 1.00000
  1.585E+12 1.585E+12 4.944E+00 7.971E+03 1.416E+05 1.119E+06 1.268E+06 1.268E+06 3.508E+07 37.8067 1.00000
  1.778E+12 1.778E+12 4.967E+00 8.944E+03 1.589E+05 1.283E+06 1.451E+06 1.451E+06 3.522E+07 38.0370 1.00000
  1.995E+12 1.995E+12 4.991E+00 1.004E+04 1.783E+05 1.471E+06 1.659E+06 1.659E+06 3.536E+07 38.2672 1.00000
  2.239E+12 2.239E+12 5.014E+00 1.126E+04 2.000E+05 1.687E+06 1.898E+06 1.898E+06 3.550E+07 38.4975 1.00000
  2.512E+12 2.512E+12 5.038E+00 1.264E+04 2.244E+05 1.935E+06 2.172E+06 2.172E+06 3.563E+07 38.7277 1.00000
  2.818E+12 2.818E+12 5.062E+00 1.418E+04 2.518E+05 2.219E+06 2.485E+06 2.485E+06 3.576E+07 38.9580 1.00000
  3.162E+12 3.162E+12 5.086E+00 1.591E+04 2.825E+05 2.545E+06 2.843E+06 2.843E+06 3.589E+07 39.1883 1.00000
  3.548E+12 3.548E+12 5.110E+00 1.785E+04 3.170E+05 2.919E+06 3.254E+06 3.254E+06 3.602E+07 39.4185 1.00000
  3.981E+12 3.981E+12 5.134E+00 2.003E+04 3.556E+05 3.349E+06 3.724E+06 3.724E+06 3.614E+07 39.6488 1.00000
  4.467E+12 4.467E+12 5.158E+00 2.247E+04 3.990E+05 3.841E+06 4.263E+06 4.263E+06 3.627E+07 39.8790 1.00000
  5.012E+12 5.012E+12 5.183E+00 2.521E+04 4.476E+05 4.406E+06 4.879E+06 4.879E+06 3.639E+07 40.1093 1.00000
  5.623E+12 5.623E+12 5.207E+00 2.829E+04 5.022E+05 5.055E+06 5.586E+06 5.586E+06 3.650E+07 40.3396 1.00000
  6.310E+12 6.310E+12 5.232E+00 3.174E+04 5.635E+05 5.800E+06 6.395E+06 6.395E+06 3.662E+07 40.5698 1.00000
  7.079E+12 7.079E+12 5.257E+00 3.562E+04 6.322E+05 6.654E+06 7.322E+06 7.322E+06 3.673E+07 40.8001 1.00000
  7.943E+12 7.943E+12 5.282E+00 3.996E+04 7.093E+05 7.635E+06 8.385E+06 8.385E+06 3.684E+07 41.0303 1.00000
  8.913E+12 8.913E+12 5.307E+00 4.484E+04 7.959E+05 8.761E+06 9.602E+06 9.602E+06 3.695E+07 41.2606 1.00000
  1.000E+13 1.000E+13 5.332E+00 5.031E+04 8.929E+05 1.005E+07 1.100E+07 1.100E+07 3.706E+07 41.4909 1.00000
  1.122E+13 1.122E+13 5.357E+00 5.645E+04 1.002E+06 1.154E+07 1.260E+07 1.260E+07 3.716E+07 41.7211 1.00000
  1.259E+13 1.259E+13 5.383E+00 6.334E+04 1.124E+06 1.324E+07 1.443E+07 1.443E+07 3.726E+07 41.9514 1.00000
  1.413E+13 1.413E+13 5.409E+00 7.107E+04 1.261E+06 1.520E+07 1.653E+07 1.653E+07 3.736E+07 42.1816 1.00000
  1.585E+13 1.585E+13 5.434E+00 7.974E+04 1.415E+06 1.744E+07 1.894E+07 1.894E+07 3.746E+07 42.4119 1.00000
  1.778E+13 1.778E+13 5.460E+00 8.947E+04 1.587E+06 2.002E+07 2.170E+07 2.170E+07 3.755E+07 42.6421 1.00000
  1.995E+13 1.995E+13 5.487E+00 1.004E+05 1.781E+06 2.298E+07 2.486E+07 2.486E+07 3.765E+07 42.8724 1.00000
  2.239E+13 2.239E+13 5.513E+00 1.126E+05 1.998E+06 2.638E+07 2.849E+07 2.849E+07 3.774E+07 43.1027 1.00000
  2.512E+13 2.512E+13 5.539E+00 1.264E+05 2.242E+06 3.028E+07 3.265E+07 3.265E+07 3.783E+07 43.3329 1.00000
  2.818E+13 2.818E+13 5.566E+00 1.418E+05 2.515E+06 3.476E+07 3.742E+07 3.742E+07 3.792E+07 43.5632 1.00000
  3.162E+13 3.162E+13 5.592E+00 1.591E+05 2.822E+06 3.991E+07 4.289E+07 4.289E+07 3.800E+07 43.7934 1.00000
  3.548E+13 3.548E+13 5.619E+00 1.785E+05 3.166E+06 4.582E+07 4.917E+07 4.917E+07 3.809E+07 44.0237 1.00000
  3.981E+13 3.981E+13 5.646E+00 2.003E+05 3.553E+06 5.261E+07 5.636E+07 5.636E+07 3.817E+07 44.2540 1.00000
  4.467E+13 4.467E+13 5.673E+00 2.248E+05 3.986E+06 6.041E+07 6.462E+07 6.462E+07 3.825E+07 44.4842 1.00000
  5.012E+13 5.012E+13 5.700E+00 2.522E+05 4.472E+06 6.937E+07 7.409E+07 7.409E+07 3.833E+07 44.7145 1.00000
  5.623E+13 5.623E+13 5.728E+00 2.830E+05 5.017E+06 7.966E+07 8.496E+07 8.496E+07 3.841E+07 44.9447 1.00000
  6.310E+13 6.310E+13 5.755E+00 3.175E+05 5.629E+06 9.148E+07 9.743E+07 9.743E+07 3.848E+07 45.1750 1.00000
  7.079E+13 7.079E+13 5.783E+00 3.562E+05 6.316E+06 1.051E+08 1.117E+08 1.117E+08 3.856E+07 45.4052 1.00000
  7.943E+13 7.943E+13 5.811E+00 3.997E+05 7.086E+06 1.207E+08 1.281E+08 1.281E+08 3.863E+07 45.6355 1.00000
  8.913E+13 8.913E+13 5.839E+00 4.485E+05 7.950E+06 1.386E+08 1.470E+08 1.470E+08 3.870E+07 45.8658 1.00000
