 Incident particle is a Tau with M = 1776.82000 MeV
 Index = 0: Erbium
      Absorber with <Z/A> = 0.40656
 Sternheimer coef:  a     k=m_s   x_0    x_1    I[eV]   Cbar  delta0
                 0.2482  2.5573  0.0658  3.4932  658.0  5.9565 0.14

 *** Table generated with PUMAS v1.00 ***

      T         p     Ionization  brems     pair     photonuc  Radloss    dE/dx   CSDA Range  delta   beta
    [MeV]    [MeV/c]  -----------------------[MeV cm^2/g]------------------------  [g/cm^2]
  1.000E+05 1.018E+05 1.615E+00 9.046E-04 1.590E-02 7.603E-03 2.440E-02 1.639E+00 3.050E+04  3.1552 0.99985
  1.122E+05 1.140E+05 1.634E+00 1.049E-03 1.903E-02 8.536E-03 2.862E-02 1.663E+00 3.789E+04  3.3097 0.99988
  1.259E+05 1.277E+05 1.653E+00 1.215E-03 2.272E-02 9.535E-03 3.347E-02 1.687E+00 4.606E+04  3.4676 0.99990
  1.413E+05 1.430E+05 1.672E+00 1.407E-03 2.706E-02 1.065E-02 3.912E-02 1.711E+00 5.511E+04  3.6290 0.99992
  1.585E+05 1.603E+05 1.690E+00 1.629E-03 3.213E-02 1.189E-02 4.565E-02 1.736E+00 6.511E+04  3.7937 0.99994
  1.778E+05 1.796E+05 1.709E+00 1.884E-03 3.806E-02 1.327E-02 5.322E-02 1.762E+00 7.617E+04  3.9617 0.99995
  1.995E+05 2.013E+05 1.727E+00 2.178E-03 4.498E-02 1.484E-02 6.200E-02 1.789E+00 8.839E+04  4.1329 0.99996
  2.239E+05 2.256E+05 1.745E+00 2.516E-03 5.304E-02 1.654E-02 7.210E-02 1.817E+00 1.019E+05  4.3073 0.99997
  2.512E+05 2.530E+05 1.763E+00 2.905E-03 6.241E-02 1.844E-02 8.375E-02 1.847E+00 1.168E+05  4.4847 0.99998
  2.818E+05 2.836E+05 1.781E+00 3.353E-03 7.327E-02 2.056E-02 9.719E-02 1.878E+00 1.333E+05  4.6652 0.99998
  3.162E+05 3.180E+05 1.799E+00 3.867E-03 8.585E-02 2.296E-02 1.127E-01 1.911E+00 1.514E+05  4.8486 0.99998
  3.548E+05 3.566E+05 1.816E+00 4.458E-03 1.004E-01 2.563E-02 1.305E-01 1.947E+00 1.714E+05  5.0348 0.99999
  3.981E+05 3.999E+05 1.833E+00 5.136E-03 1.172E-01 2.860E-02 1.509E-01 1.984E+00 1.934E+05  5.2239 0.99999
  4.467E+05 4.485E+05 1.851E+00 5.914E-03 1.365E-01 3.191E-02 1.743E-01 2.025E+00 2.177E+05  5.4157 0.99999
  5.012E+05 5.030E+05 1.867E+00 6.806E-03 1.588E-01 3.563E-02 2.012E-01 2.069E+00 2.443E+05  5.6101 0.99999
  5.623E+05 5.641E+05 1.884E+00 7.829E-03 1.844E-01 3.964E-02 2.318E-01 2.116E+00 2.735E+05  5.8072 1.00000
  6.310E+05 6.327E+05 1.901E+00 9.001E-03 2.137E-01 4.413E-02 2.669E-01 2.168E+00 3.056E+05  6.0068 1.00000
  7.079E+05 7.097E+05 1.917E+00 1.034E-02 2.474E-01 4.919E-02 3.069E-01 2.224E+00 3.406E+05  6.2088 1.00000
  7.943E+05 7.961E+05 1.933E+00 1.188E-02 2.859E-01 5.489E-02 3.527E-01 2.286E+00 3.790E+05  6.4131 1.00000
  8.913E+05 8.930E+05 1.949E+00 1.364E-02 3.299E-01 6.132E-02 4.049E-01 2.354E+00 4.207E+05  6.6198 1.00000
  1.000E+06 1.002E+06 1.965E+00 1.565E-02 3.802E-01 6.856E-02 4.645E-01 2.429E+00 4.662E+05  6.8287 1.00000
  1.122E+06 1.124E+06 1.980E+00 1.795E-02 4.376E-01 7.675E-02 5.323E-01 2.513E+00 5.156E+05  7.0396 1.00000
  1.259E+06 1.261E+06 1.996E+00 2.058E-02 5.031E-01 8.600E-02 6.096E-01 2.605E+00 5.691E+05  7.2527 1.00000
  1.413E+06 1.414E+06 2.011E+00 2.359E-02 5.775E-01 9.647E-02 6.976E-01 2.708E+00 6.270E+05  7.4677 1.00000
  1.585E+06 1.587E+06 2.026E+00 2.702E-02 6.622E-01 1.083E-01 7.976E-01 2.823E+00 6.893E+05  7.6845 1.00000
  1.778E+06 1.780E+06 2.040E+00 3.094E-02 7.585E-01 1.217E-01 9.111E-01 2.952E+00 7.563E+05  7.9032 1.00000
  1.995E+06 1.997E+06 2.055E+00 3.541E-02 8.677E-01 1.370E-01 1.040E+00 3.095E+00 8.281E+05  8.1235 1.00000
  2.239E+06 2.240E+06 2.069E+00 4.051E-02 9.917E-01 1.542E-01 1.186E+00 3.256E+00 9.049E+05  8.3455 1.00000
  2.512E+06 2.514E+06 2.083E+00 4.633E-02 1.132E+00 1.738E-01 1.352E+00 3.436E+00 9.866E+05  8.5689 1.00000
  2.818E+06 2.820E+06 2.097E+00 5.297E-02 1.291E+00 1.960E-01 1.540E+00 3.638E+00 1.073E+06  8.7937 1.00000
  3.162E+06 3.164E+06 2.111E+00 6.053E-02 1.472E+00 2.213E-01 1.753E+00 3.864E+00 1.165E+06  9.0197 1.00000
  3.548E+06 3.550E+06 2.124E+00 6.915E-02 1.675E+00 2.500E-01 1.995E+00 4.119E+00 1.262E+06  9.2469 1.00000
  3.981E+06 3.983E+06 2.138E+00 7.896E-02 1.906E+00 2.827E-01 2.267E+00 4.405E+00 1.364E+06  9.4751 1.00000
  4.467E+06 4.469E+06 2.151E+00 9.014E-02 2.166E+00 3.198E-01 2.576E+00 4.727E+00 1.470E+06  9.7041 1.00000
  5.012E+06 5.014E+06 2.164E+00 1.029E-01 2.460E+00 3.621E-01 2.925E+00 5.089E+00 1.581E+06  9.9338 1.00000
  5.623E+06 5.625E+06 2.177E+00 1.173E-01 2.792E+00 4.101E-01 3.319E+00 5.496E+00 1.697E+06 10.1639 1.00000
  6.310E+06 6.311E+06 2.189E+00 1.338E-01 3.166E+00 4.649E-01 3.764E+00 5.954E+00 1.817E+06 10.3941 1.00000
  7.079E+06 7.081E+06 2.202E+00 1.525E-01 3.588E+00 5.272E-01 4.267E+00 6.469E+00 1.941E+06 10.6243 1.00000
  7.943E+06 7.945E+06 2.214E+00 1.738E-01 4.063E+00 5.982E-01 4.835E+00 7.049E+00 2.069E+06 10.8545 1.00000
  8.913E+06 8.914E+06 2.226E+00 1.979E-01 4.599E+00 6.791E-01 5.476E+00 7.702E+00 2.201E+06 11.0847 1.00000
  1.000E+07 1.000E+07 2.239E+00 2.254E-01 5.202E+00 7.713E-01 6.199E+00 8.437E+00 2.336E+06 11.3149 1.00000
  1.122E+07 1.122E+07 2.251E+00 2.566E-01 5.882E+00 8.763E-01 7.015E+00 9.265E+00 2.474E+06 11.5451 1.00000
  1.259E+07 1.259E+07 2.263E+00 2.919E-01 6.646E+00 9.961E-01 7.934E+00 1.020E+01 2.615E+06 11.7753 1.00000
  1.413E+07 1.413E+07 2.274E+00 3.321E-01 7.507E+00 1.133E+00 8.972E+00 1.125E+01 2.759E+06 12.0056 1.00000
  1.585E+07 1.585E+07 2.286E+00 3.777E-01 8.475E+00 1.288E+00 1.014E+01 1.243E+01 2.905E+06 12.2358 1.00000
  1.778E+07 1.778E+07 2.298E+00 4.293E-01 9.564E+00 1.466E+00 1.146E+01 1.376E+01 3.053E+06 12.4660 1.00000
  1.995E+07 1.995E+07 2.309E+00 4.879E-01 1.079E+01 1.668E+00 1.294E+01 1.525E+01 3.203E+06 12.6963 1.00000
  2.239E+07 2.239E+07 2.321E+00 5.543E-01 1.216E+01 1.899E+00 1.462E+01 1.694E+01 3.354E+06 12.9265 1.00000
  2.512E+07 2.512E+07 2.332E+00 6.295E-01 1.371E+01 2.163E+00 1.650E+01 1.884E+01 3.508E+06 13.1567 1.00000
  2.818E+07 2.819E+07 2.344E+00 7.146E-01 1.545E+01 2.463E+00 1.863E+01 2.097E+01 3.662E+06 13.3870 1.00000
  3.162E+07 3.162E+07 2.355E+00 8.111E-01 1.740E+01 2.806E+00 2.102E+01 2.338E+01 3.818E+06 13.6172 1.00000
  3.548E+07 3.548E+07 2.367E+00 9.202E-01 1.960E+01 3.198E+00 2.372E+01 2.608E+01 3.974E+06 13.8475 1.00000
  3.981E+07 3.981E+07 2.378E+00 1.044E+00 2.207E+01 3.644E+00 2.675E+01 2.913E+01 4.131E+06 14.0777 1.00000
  4.467E+07 4.467E+07 2.389E+00 1.183E+00 2.484E+01 4.154E+00 3.017E+01 3.256E+01 4.289E+06 14.3080 1.00000
  5.012E+07 5.012E+07 2.401E+00 1.341E+00 2.795E+01 4.736E+00 3.403E+01 3.643E+01 4.448E+06 14.5382 1.00000
  5.623E+07 5.624E+07 2.412E+00 1.520E+00 3.144E+01 5.401E+00 3.836E+01 4.078E+01 4.607E+06 14.7685 1.00000
  6.310E+07 6.310E+07 2.423E+00 1.722E+00 3.537E+01 6.159E+00 4.325E+01 4.567E+01 4.766E+06 14.9987 1.00000
  7.079E+07 7.080E+07 2.434E+00 1.950E+00 3.977E+01 7.025E+00 4.875E+01 5.118E+01 4.926E+06 15.2290 1.00000
  7.943E+07 7.943E+07 2.446E+00 2.207E+00 4.472E+01 8.014E+00 5.494E+01 5.739E+01 5.085E+06 15.4592 1.00000
  8.913E+07 8.913E+07 2.457E+00 2.498E+00 5.027E+01 9.143E+00 6.192E+01 6.437E+01 5.245E+06 15.6895 1.00000
  1.000E+08 1.000E+08 2.468E+00 2.826E+00 5.651E+01 1.043E+01 6.977E+01 7.224E+01 5.405E+06 15.9197 1.00000
  1.122E+08 1.122E+08 2.480E+00 3.196E+00 6.351E+01 1.190E+01 7.861E+01 8.109E+01 5.564E+06 16.1500 1.00000
  1.259E+08 1.259E+08 2.491E+00 3.614E+00 7.137E+01 1.359E+01 8.857E+01 9.106E+01 5.724E+06 16.3802 1.00000
  1.413E+08 1.413E+08 2.503E+00 4.085E+00 8.019E+01 1.551E+01 9.978E+01 1.023E+02 5.883E+06 16.6105 1.00000
  1.585E+08 1.585E+08 2.514E+00 4.617E+00 9.009E+01 1.770E+01 1.124E+02 1.149E+02 6.043E+06 16.8408 1.00000
  1.778E+08 1.778E+08 2.526E+00 5.215E+00 1.012E+02 2.021E+01 1.266E+02 1.291E+02 6.202E+06 17.0710 1.00000
  1.995E+08 1.995E+08 2.537E+00 5.890E+00 1.137E+02 2.307E+01 1.426E+02 1.452E+02 6.360E+06 17.3013 1.00000
  2.239E+08 2.239E+08 2.549E+00 6.651E+00 1.277E+02 2.634E+01 1.607E+02 1.632E+02 6.519E+06 17.5315 1.00000
  2.512E+08 2.512E+08 2.560E+00 7.507E+00 1.434E+02 3.007E+01 1.810E+02 1.835E+02 6.677E+06 17.7618 1.00000
  2.818E+08 2.818E+08 2.572E+00 8.471E+00 1.610E+02 3.434E+01 2.038E+02 2.064E+02 6.835E+06 17.9920 1.00000
  3.162E+08 3.162E+08 2.584E+00 9.557E+00 1.808E+02 3.922E+01 2.296E+02 2.321E+02 6.992E+06 18.2223 1.00000
  3.548E+08 3.548E+08 2.596E+00 1.078E+01 2.030E+02 4.479E+01 2.586E+02 2.612E+02 7.149E+06 18.4526 1.00000
  3.981E+08 3.981E+08 2.607E+00 1.216E+01 2.279E+02 5.116E+01 2.912E+02 2.938E+02 7.306E+06 18.6828 1.00000
  4.467E+08 4.467E+08 2.619E+00 1.370E+01 2.559E+02 5.844E+01 3.280E+02 3.306E+02 7.462E+06 18.9131 1.00000
  5.012E+08 5.012E+08 2.631E+00 1.544E+01 2.872E+02 6.676E+01 3.694E+02 3.721E+02 7.617E+06 19.1433 1.00000
  5.623E+08 5.623E+08 2.643E+00 1.740E+01 3.224E+02 7.626E+01 4.161E+02 4.187E+02 7.773E+06 19.3736 1.00000
  6.310E+08 6.310E+08 2.655E+00 1.961E+01 3.619E+02 8.713E+01 4.687E+02 4.713E+02 7.927E+06 19.6038 1.00000
  7.079E+08 7.079E+08 2.667E+00 2.208E+01 4.063E+02 9.955E+01 5.279E+02 5.306E+02 8.082E+06 19.8341 1.00000
  7.943E+08 7.943E+08 2.680E+00 2.487E+01 4.560E+02 1.137E+02 5.946E+02 5.973E+02 8.235E+06 20.0644 1.00000
  8.913E+08 8.913E+08 2.692E+00 2.800E+01 5.118E+02 1.300E+02 6.698E+02 6.725E+02 8.388E+06 20.2946 1.00000
  1.000E+09 1.000E+09 2.704E+00 3.152E+01 5.744E+02 1.485E+02 7.545E+02 7.572E+02 8.541E+06 20.5249 1.00000
  1.122E+09 1.122E+09 2.717E+00 3.547E+01 6.447E+02 1.697E+02 8.499E+02 8.526E+02 8.693E+06 20.7551 1.00000
  1.259E+09 1.259E+09 2.729E+00 3.991E+01 7.236E+02 1.940E+02 9.575E+02 9.602E+02 8.845E+06 20.9854 1.00000
  1.413E+09 1.413E+09 2.742E+00 4.491E+01 8.120E+02 2.217E+02 1.079E+03 1.081E+03 8.996E+06 21.2156 1.00000
  1.585E+09 1.585E+09 2.754E+00 5.051E+01 9.113E+02 2.534E+02 1.215E+03 1.218E+03 9.146E+06 21.4459 1.00000
  1.778E+09 1.778E+09 2.767E+00 5.681E+01 1.023E+03 2.897E+02 1.369E+03 1.372E+03 9.296E+06 21.6762 1.00000
  1.995E+09 1.995E+09 2.780E+00 6.389E+01 1.148E+03 3.311E+02 1.543E+03 1.545E+03 9.445E+06 21.9064 1.00000
  2.239E+09 2.239E+09 2.792E+00 7.184E+01 1.288E+03 3.786E+02 1.738E+03 1.741E+03 9.594E+06 22.1367 1.00000
  2.512E+09 2.512E+09 2.805E+00 8.076E+01 1.445E+03 4.328E+02 1.959E+03 1.962E+03 9.742E+06 22.3669 1.00000
  2.818E+09 2.818E+09 2.818E+00 9.078E+01 1.622E+03 4.948E+02 2.207E+03 2.210E+03 9.890E+06 22.5972 1.00000
  3.162E+09 3.162E+09 2.831E+00 1.020E+02 1.820E+03 5.658E+02 2.488E+03 2.491E+03 1.004E+07 22.8275 1.00000
  3.548E+09 3.548E+09 2.844E+00 1.147E+02 2.042E+03 6.469E+02 2.804E+03 2.807E+03 1.018E+07 23.0577 1.00000
  3.981E+09 3.981E+09 2.857E+00 1.289E+02 2.292E+03 7.398E+02 3.160E+03 3.163E+03 1.033E+07 23.2880 1.00000
  4.467E+09 4.467E+09 2.871E+00 1.448E+02 2.571E+03 8.460E+02 3.562E+03 3.565E+03 1.047E+07 23.5182 1.00000
  5.012E+09 5.012E+09 2.884E+00 1.627E+02 2.885E+03 9.675E+02 4.015E+03 4.018E+03 1.062E+07 23.7485 1.00000
  5.623E+09 5.623E+09 2.897E+00 1.827E+02 3.238E+03 1.106E+03 4.527E+03 4.530E+03 1.076E+07 23.9787 1.00000
  6.310E+09 6.310E+09 2.911E+00 2.053E+02 3.633E+03 1.266E+03 5.104E+03 5.106E+03 1.090E+07 24.2090 1.00000
  7.079E+09 7.079E+09 2.924E+00 2.305E+02 4.076E+03 1.448E+03 5.754E+03 5.757E+03 1.105E+07 24.4393 1.00000
  7.943E+09 7.943E+09 2.938E+00 2.589E+02 4.574E+03 1.656E+03 6.489E+03 6.491E+03 1.119E+07 24.6695 1.00000
  8.913E+09 8.913E+09 2.952E+00 2.908E+02 5.132E+03 1.894E+03 7.317E+03 7.320E+03 1.133E+07 24.8998 1.00000
  1.000E+10 1.000E+10 2.965E+00 3.265E+02 5.758E+03 2.167E+03 8.252E+03 8.255E+03 1.147E+07 25.1300 1.00000
  1.122E+10 1.122E+10 2.979E+00 3.666E+02 6.461E+03 2.479E+03 9.307E+03 9.310E+03 1.161E+07 25.3603 1.00000
  1.259E+10 1.259E+10 2.993E+00 4.117E+02 7.250E+03 2.836E+03 1.050E+04 1.050E+04 1.175E+07 25.5906 1.00000
  1.413E+10 1.413E+10 3.007E+00 4.622E+02 8.135E+03 3.245E+03 1.184E+04 1.184E+04 1.188E+07 25.8208 1.00000
  1.585E+10 1.585E+10 3.021E+00 5.189E+02 9.127E+03 3.713E+03 1.336E+04 1.336E+04 1.202E+07 26.0511 1.00000
  1.778E+10 1.778E+10 3.035E+00 5.826E+02 1.024E+04 4.249E+03 1.507E+04 1.508E+04 1.216E+07 26.2813 1.00000
  1.995E+10 1.995E+10 3.050E+00 6.540E+02 1.149E+04 4.862E+03 1.701E+04 1.701E+04 1.229E+07 26.5116 1.00000
  2.239E+10 2.239E+10 3.064E+00 7.342E+02 1.289E+04 5.564E+03 1.919E+04 1.919E+04 1.243E+07 26.7419 1.00000
  2.512E+10 2.512E+10 3.078E+00 8.241E+02 1.447E+04 6.368E+03 2.166E+04 2.166E+04 1.256E+07 26.9721 1.00000
  2.818E+10 2.818E+10 3.093E+00 9.250E+02 1.623E+04 7.288E+03 2.444E+04 2.445E+04 1.270E+07 27.2024 1.00000
  3.162E+10 3.162E+10 3.107E+00 1.038E+03 1.821E+04 8.342E+03 2.759E+04 2.759E+04 1.283E+07 27.4326 1.00000
  3.548E+10 3.548E+10 3.122E+00 1.165E+03 2.043E+04 9.549E+03 3.115E+04 3.115E+04 1.296E+07 27.6629 1.00000
  3.981E+10 3.981E+10 3.137E+00 1.308E+03 2.293E+04 1.093E+04 3.516E+04 3.517E+04 1.309E+07 27.8931 1.00000
  4.467E+10 4.467E+10 3.152E+00 1.468E+03 2.572E+04 1.251E+04 3.970E+04 3.971E+04 1.322E+07 28.1234 1.00000
  5.012E+10 5.012E+10 3.166E+00 1.648E+03 2.886E+04 1.433E+04 4.483E+04 4.484E+04 1.335E+07 28.3537 1.00000
  5.623E+10 5.623E+10 3.181E+00 1.849E+03 3.238E+04 1.640E+04 5.063E+04 5.064E+04 1.348E+07 28.5839 1.00000
  6.310E+10 6.310E+10 3.197E+00 2.075E+03 3.633E+04 1.878E+04 5.719E+04 5.719E+04 1.361E+07 28.8142 1.00000
  7.079E+10 7.079E+10 3.212E+00 2.329E+03 4.077E+04 2.150E+04 6.460E+04 6.460E+04 1.374E+07 29.0444 1.00000
  7.943E+10 7.943E+10 3.227E+00 2.613E+03 4.574E+04 2.462E+04 7.297E+04 7.298E+04 1.386E+07 29.2747 1.00000
  8.913E+10 8.913E+10 3.242E+00 2.933E+03 5.132E+04 2.819E+04 8.245E+04 8.245E+04 1.399E+07 29.5050 1.00000
  1.000E+11 1.000E+11 3.258E+00 3.291E+03 5.758E+04 3.229E+04 9.316E+04 9.316E+04 1.411E+07 29.7352 1.00000
  1.122E+11 1.122E+11 3.273E+00 3.693E+03 6.460E+04 3.698E+04 1.053E+05 1.053E+05 1.423E+07 29.9655 1.00000
  1.259E+11 1.259E+11 3.289E+00 4.144E+03 7.249E+04 4.235E+04 1.190E+05 1.190E+05 1.436E+07 30.1957 1.00000
  1.413E+11 1.413E+11 3.304E+00 4.651E+03 8.133E+04 4.850E+04 1.345E+05 1.345E+05 1.448E+07 30.4260 1.00000
  1.585E+11 1.585E+11 3.320E+00 5.219E+03 9.125E+04 5.556E+04 1.520E+05 1.520E+05 1.460E+07 30.6562 1.00000
  1.778E+11 1.778E+11 3.336E+00 5.856E+03 1.024E+05 6.364E+04 1.719E+05 1.719E+05 1.472E+07 30.8865 1.00000
  1.995E+11 1.995E+11 3.352E+00 6.571E+03 1.149E+05 7.290E+04 1.943E+05 1.943E+05 1.484E+07 31.1168 1.00000
  2.239E+11 2.239E+11 3.368E+00 7.373E+03 1.289E+05 8.352E+04 2.198E+05 2.198E+05 1.496E+07 31.3470 1.00000
  2.512E+11 2.512E+11 3.384E+00 8.274E+03 1.446E+05 9.568E+04 2.486E+05 2.486E+05 1.507E+07 31.5773 1.00000
  2.818E+11 2.818E+11 3.400E+00 9.284E+03 1.622E+05 1.096E+05 2.812E+05 2.812E+05 1.519E+07 31.8075 1.00000
  3.162E+11 3.162E+11 3.417E+00 1.042E+04 1.820E+05 1.256E+05 3.181E+05 3.181E+05 1.530E+07 32.0378 1.00000
  3.548E+11 3.548E+11 3.433E+00 1.169E+04 2.042E+05 1.439E+05 3.599E+05 3.599E+05 1.542E+07 32.2681 1.00000
  3.981E+11 3.981E+11 3.449E+00 1.312E+04 2.292E+05 1.649E+05 4.072E+05 4.072E+05 1.553E+07 32.4983 1.00000
  4.467E+11 4.467E+11 3.466E+00 1.472E+04 2.571E+05 1.890E+05 4.608E+05 4.608E+05 1.564E+07 32.7286 1.00000
  5.012E+11 5.012E+11 3.483E+00 1.651E+04 2.885E+05 2.166E+05 5.216E+05 5.216E+05 1.576E+07 32.9588 1.00000
  5.623E+11 5.623E+11 3.499E+00 1.853E+04 3.237E+05 2.482E+05 5.904E+05 5.904E+05 1.587E+07 33.1891 1.00000
  6.310E+11 6.310E+11 3.516E+00 2.079E+04 3.631E+05 2.845E+05 6.684E+05 6.684E+05 1.598E+07 33.4193 1.00000
  7.079E+11 7.079E+11 3.533E+00 2.333E+04 4.074E+05 3.261E+05 7.569E+05 7.569E+05 1.608E+07 33.6496 1.00000
  7.943E+11 7.943E+11 3.550E+00 2.617E+04 4.571E+05 3.738E+05 8.571E+05 8.571E+05 1.619E+07 33.8799 1.00000
  8.913E+11 8.913E+11 3.567E+00 2.937E+04 5.129E+05 4.285E+05 9.707E+05 9.708E+05 1.630E+07 34.1101 1.00000
  1.000E+12 1.000E+12 3.585E+00 3.295E+04 5.755E+05 4.912E+05 1.100E+06 1.100E+06 1.640E+07 34.3404 1.00000
  1.122E+12 1.122E+12 3.602E+00 3.697E+04 6.456E+05 5.631E+05 1.246E+06 1.246E+06 1.651E+07 34.5706 1.00000
  1.259E+12 1.259E+12 3.619E+00 4.149E+04 7.244E+05 6.456E+05 1.412E+06 1.412E+06 1.661E+07 34.8009 1.00000
  1.413E+12 1.413E+12 3.637E+00 4.655E+04 8.128E+05 7.402E+05 1.600E+06 1.600E+06 1.671E+07 35.0312 1.00000
  1.585E+12 1.585E+12 3.654E+00 5.223E+04 9.119E+05 8.488E+05 1.813E+06 1.813E+06 1.682E+07 35.2614 1.00000
  1.778E+12 1.778E+12 3.672E+00 5.860E+04 1.023E+06 9.732E+05 2.055E+06 2.055E+06 1.692E+07 35.4917 1.00000
  1.995E+12 1.995E+12 3.690E+00 6.575E+04 1.148E+06 1.116E+06 2.330E+06 2.330E+06 1.702E+07 35.7219 1.00000
  2.239E+12 2.239E+12 3.708E+00 7.378E+04 1.288E+06 1.280E+06 2.642E+06 2.642E+06 1.711E+07 35.9522 1.00000
  2.512E+12 2.512E+12 3.726E+00 8.278E+04 1.445E+06 1.468E+06 2.996E+06 2.996E+06 1.721E+07 36.1824 1.00000
  2.818E+12 2.818E+12 3.744E+00 9.288E+04 1.621E+06 1.683E+06 3.398E+06 3.398E+06 1.731E+07 36.4127 1.00000
  3.162E+12 3.162E+12 3.762E+00 1.042E+05 1.819E+06 1.931E+06 3.854E+06 3.854E+06 1.740E+07 36.6430 1.00000
  3.548E+12 3.548E+12 3.780E+00 1.169E+05 2.041E+06 2.215E+06 4.372E+06 4.372E+06 1.750E+07 36.8732 1.00000
  3.981E+12 3.981E+12 3.799E+00 1.312E+05 2.290E+06 2.540E+06 4.961E+06 4.961E+06 1.759E+07 37.1035 1.00000
  4.467E+12 4.467E+12 3.817E+00 1.472E+05 2.569E+06 2.914E+06 5.630E+06 5.630E+06 1.768E+07 37.3337 1.00000
  5.012E+12 5.012E+12 3.836E+00 1.652E+05 2.882E+06 3.343E+06 6.390E+06 6.390E+06 1.777E+07 37.5640 1.00000
  5.623E+12 5.623E+12 3.855E+00 1.853E+05 3.234E+06 3.835E+06 7.254E+06 7.254E+06 1.786E+07 37.7943 1.00000
  6.310E+12 6.310E+12 3.874E+00 2.079E+05 3.628E+06 4.400E+06 8.236E+06 8.236E+06 1.795E+07 38.0245 1.00000
  7.079E+12 7.079E+12 3.892E+00 2.333E+05 4.071E+06 5.048E+06 9.353E+06 9.353E+06 1.804E+07 38.2548 1.00000
  7.943E+12 7.943E+12 3.911E+00 2.618E+05 4.567E+06 5.792E+06 1.062E+07 1.062E+07 1.813E+07 38.4850 1.00000
  8.913E+12 8.913E+12 3.931E+00 2.937E+05 5.125E+06 6.647E+06 1.206E+07 1.206E+07 1.821E+07 38.7153 1.00000
  1.000E+13 1.000E+13 3.950E+00 3.296E+05 5.750E+06 7.627E+06 1.371E+07 1.371E+07 1.830E+07 38.9456 1.00000
  1.122E+13 1.122E+13 3.969E+00 3.698E+05 6.451E+06 8.753E+06 1.557E+07 1.557E+07 1.838E+07 39.1758 1.00000
  1.259E+13 1.259E+13 3.989E+00 4.149E+05 7.238E+06 1.004E+07 1.770E+07 1.770E+07 1.846E+07 39.4061 1.00000
  1.413E+13 1.413E+13 4.008E+00 4.655E+05 8.120E+06 1.153E+07 2.011E+07 2.011E+07 1.854E+07 39.6363 1.00000
  1.585E+13 1.585E+13 4.028E+00 5.223E+05 9.111E+06 1.323E+07 2.286E+07 2.286E+07 1.863E+07 39.8666 1.00000
  1.778E+13 1.778E+13 4.047E+00 5.861E+05 1.022E+07 1.519E+07 2.599E+07 2.599E+07 1.870E+07 40.0968 1.00000
  1.995E+13 1.995E+13 4.067E+00 6.576E+05 1.147E+07 1.743E+07 2.956E+07 2.956E+07 1.878E+07 40.3271 1.00000
  2.239E+13 2.239E+13 4.087E+00 7.378E+05 1.287E+07 2.001E+07 3.362E+07 3.362E+07 1.886E+07 40.5574 1.00000
  2.512E+13 2.512E+13 4.107E+00 8.279E+05 1.444E+07 2.297E+07 3.824E+07 3.824E+07 1.894E+07 40.7876 1.00000
  2.818E+13 2.818E+13 4.128E+00 9.289E+05 1.620E+07 2.637E+07 4.350E+07 4.350E+07 1.901E+07 41.0179 1.00000
  3.162E+13 3.162E+13 4.148E+00 1.042E+06 1.817E+07 3.028E+07 4.949E+07 4.949E+07 1.909E+07 41.2481 1.00000
  3.548E+13 3.548E+13 4.168E+00 1.169E+06 2.039E+07 3.476E+07 5.632E+07 5.632E+07 1.916E+07 41.4784 1.00000
  3.981E+13 3.981E+13 4.189E+00 1.312E+06 2.288E+07 3.991E+07 6.410E+07 6.410E+07 1.923E+07 41.7087 1.00000
  4.467E+13 4.467E+13 4.209E+00 1.472E+06 2.566E+07 4.583E+07 7.297E+07 7.297E+07 1.930E+07 41.9389 1.00000
  5.012E+13 5.012E+13 4.230E+00 1.652E+06 2.879E+07 5.262E+07 8.307E+07 8.307E+07 1.937E+07 42.1692 1.00000
  5.623E+13 5.623E+13 4.251E+00 1.853E+06 3.231E+07 6.043E+07 9.459E+07 9.459E+07 1.944E+07 42.3994 1.00000
  6.310E+13 6.310E+13 4.272E+00 2.080E+06 3.625E+07 6.940E+07 1.077E+08 1.077E+08 1.951E+07 42.6297 1.00000
  7.079E+13 7.079E+13 4.293E+00 2.333E+06 4.067E+07 7.970E+07 1.227E+08 1.227E+08 1.958E+07 42.8599 1.00000
  7.943E+13 7.943E+13 4.314E+00 2.618E+06 4.563E+07 9.154E+07 1.398E+08 1.398E+08 1.964E+07 43.0902 1.00000
  8.913E+13 8.913E+13 4.335E+00 2.937E+06 5.119E+07 1.051E+08 1.593E+08 1.593E+08 1.971E+07 43.3205 1.00000
