 Incident particle is a Tau with M = 1776.82000 MeV
 Index = 0: Ethane
      Absorber with <Z/A> = 0.59846
 Sternheimer coef:  a     k=m_s   x_0    x_1    I[eV]   Cbar  delta0
                 0.0963  3.6095  1.5090  3.8726   45.4  9.0965 0.00

 *** Table generated with PUMAS v1.00 ***

      T         p     Ionization  brems     pair     photonuc  Radloss    dE/dx   CSDA Range  delta   beta
    [MeV]    [MeV/c]  -----------------------[MeV cm^2/g]------------------------  [g/cm^2]
  1.000E+05 1.018E+05 3.119E+00 1.056E-04 1.648E-03 8.529E-03 1.028E-02 3.129E+00 1.598E+04  0.4365 0.99985
  1.122E+05 1.140E+05 3.151E+00 1.220E-04 1.997E-03 9.646E-03 1.177E-02 3.163E+00 1.986E+04  0.5460 0.99988
  1.259E+05 1.277E+05 3.183E+00 1.408E-04 2.411E-03 1.085E-02 1.340E-02 3.196E+00 2.416E+04  0.6627 0.99990
  1.413E+05 1.430E+05 3.214E+00 1.624E-04 2.899E-03 1.221E-02 1.527E-02 3.229E+00 2.895E+04  0.7864 0.99992
  1.585E+05 1.603E+05 3.244E+00 1.873E-04 3.473E-03 1.373E-02 1.739E-02 3.262E+00 3.426E+04  0.9169 0.99994
  1.778E+05 1.796E+05 3.274E+00 2.159E-04 4.149E-03 1.543E-02 1.980E-02 3.294E+00 4.016E+04  1.0538 0.99995
  1.995E+05 2.013E+05 3.304E+00 2.488E-04 4.940E-03 1.738E-02 2.257E-02 3.326E+00 4.671E+04  1.1970 0.99996
  2.239E+05 2.256E+05 3.333E+00 2.865E-04 5.867E-03 1.951E-02 2.566E-02 3.358E+00 5.400E+04  1.3462 0.99997
  2.512E+05 2.530E+05 3.361E+00 3.299E-04 6.949E-03 2.190E-02 2.918E-02 3.390E+00 6.209E+04  1.5011 0.99998
  2.818E+05 2.836E+05 3.389E+00 3.796E-04 8.211E-03 2.459E-02 3.318E-02 3.422E+00 7.109E+04  1.6615 0.99998
  3.162E+05 3.180E+05 3.417E+00 4.367E-04 9.680E-03 2.764E-02 3.776E-02 3.455E+00 8.109E+04  1.8271 0.99998
  3.548E+05 3.566E+05 3.444E+00 5.022E-04 1.139E-02 3.107E-02 4.296E-02 3.487E+00 9.221E+04  1.9977 0.99999
  3.981E+05 3.999E+05 3.471E+00 5.774E-04 1.337E-02 3.490E-02 4.885E-02 3.520E+00 1.046E+05  2.1730 0.99999
  4.467E+05 4.485E+05 3.497E+00 6.635E-04 1.566E-02 3.920E-02 5.553E-02 3.552E+00 1.183E+05  2.3528 0.99999
  5.012E+05 5.030E+05 3.523E+00 7.622E-04 1.831E-02 4.405E-02 6.313E-02 3.586E+00 1.336E+05  2.5369 0.99999
  5.623E+05 5.641E+05 3.548E+00 8.754E-04 2.138E-02 4.931E-02 7.156E-02 3.620E+00 1.506E+05  2.7251 1.00000
  6.310E+05 6.327E+05 3.573E+00 1.005E-03 2.492E-02 5.524E-02 8.116E-02 3.654E+00 1.694E+05  2.9170 1.00000
  7.079E+05 7.097E+05 3.598E+00 1.153E-03 2.899E-02 6.194E-02 9.208E-02 3.690E+00 1.904E+05  3.1125 1.00000
  7.943E+05 7.961E+05 3.622E+00 1.324E-03 3.369E-02 6.951E-02 1.045E-01 3.727E+00 2.137E+05  3.3114 1.00000
  8.913E+05 8.930E+05 3.646E+00 1.518E-03 3.908E-02 7.807E-02 1.187E-01 3.765E+00 2.396E+05  3.5135 1.00000
  1.000E+06 1.002E+06 3.669E+00 1.741E-03 4.527E-02 8.776E-02 1.348E-01 3.804E+00 2.683E+05  3.7186 1.00000
  1.122E+06 1.124E+06 3.693E+00 1.996E-03 5.238E-02 9.874E-02 1.531E-01 3.846E+00 3.002E+05  3.9264 1.00000
  1.259E+06 1.261E+06 3.715E+00 2.288E-03 6.052E-02 1.112E-01 1.740E-01 3.889E+00 3.356E+05  4.1367 1.00000
  1.413E+06 1.414E+06 3.738E+00 2.623E-03 6.983E-02 1.253E-01 1.977E-01 3.936E+00 3.749E+05  4.3495 1.00000
  1.585E+06 1.587E+06 3.760E+00 3.005E-03 8.049E-02 1.413E-01 2.248E-01 3.985E+00 4.184E+05  4.5644 1.00000
  1.778E+06 1.780E+06 3.782E+00 3.442E-03 9.266E-02 1.594E-01 2.555E-01 4.037E+00 4.666E+05  4.7813 1.00000
  1.995E+06 1.997E+06 3.803E+00 3.942E-03 1.065E-01 1.801E-01 2.906E-01 4.094E+00 5.200E+05  5.0001 1.00000
  2.239E+06 2.240E+06 3.824E+00 4.513E-03 1.224E-01 2.035E-01 3.304E-01 4.155E+00 5.790E+05  5.2206 1.00000
  2.512E+06 2.514E+06 3.845E+00 5.167E-03 1.404E-01 2.301E-01 3.757E-01 4.221E+00 6.442E+05  5.4426 1.00000
  2.818E+06 2.820E+06 3.866E+00 5.913E-03 1.609E-01 2.604E-01 4.272E-01 4.293E+00 7.162E+05  5.6659 1.00000
  3.162E+06 3.164E+06 3.886E+00 6.766E-03 1.843E-01 2.948E-01 4.859E-01 4.372E+00 7.956E+05  5.8904 1.00000
  3.548E+06 3.550E+06 3.906E+00 7.740E-03 2.108E-01 3.340E-01 5.525E-01 4.459E+00 8.830E+05  6.1160 1.00000
  3.981E+06 3.983E+06 3.926E+00 8.853E-03 2.409E-01 3.785E-01 6.283E-01 4.554E+00 9.791E+05  6.3426 1.00000
  4.467E+06 4.469E+06 3.945E+00 1.012E-02 2.751E-01 4.293E-01 7.145E-01 4.660E+00 1.085E+06  6.5699 1.00000
  5.012E+06 5.014E+06 3.965E+00 1.157E-02 3.138E-01 4.870E-01 8.124E-01 4.777E+00 1.200E+06  6.7980 1.00000
  5.623E+06 5.625E+06 3.984E+00 1.323E-02 3.577E-01 5.528E-01 9.237E-01 4.907E+00 1.326E+06  7.0266 1.00000
  6.310E+06 6.311E+06 4.002E+00 1.512E-02 4.074E-01 6.277E-01 1.050E+00 5.053E+00 1.464E+06  7.2557 1.00000
  7.079E+06 7.081E+06 4.021E+00 1.727E-02 4.636E-01 7.131E-01 1.194E+00 5.215E+00 1.614E+06  7.4851 1.00000
  7.943E+06 7.945E+06 4.039E+00 1.972E-02 5.272E-01 8.104E-01 1.357E+00 5.396E+00 1.777E+06  7.7149 1.00000
  8.913E+06 8.914E+06 4.057E+00 2.252E-02 5.991E-01 9.212E-01 1.543E+00 5.600E+00 1.953E+06  7.9448 1.00000
  1.000E+07 1.000E+07 4.075E+00 2.571E-02 6.803E-01 1.048E+00 1.754E+00 5.829E+00 2.144E+06  8.1749 1.00000
  1.122E+07 1.122E+07 4.093E+00 2.934E-02 7.719E-01 1.192E+00 1.993E+00 6.086E+00 2.349E+06  8.4051 1.00000
  1.259E+07 1.259E+07 4.110E+00 3.348E-02 8.754E-01 1.356E+00 2.265E+00 6.375E+00 2.569E+06  8.6353 1.00000
  1.413E+07 1.413E+07 4.128E+00 3.819E-02 9.921E-01 1.543E+00 2.574E+00 6.701E+00 2.804E+06  8.8656 1.00000
  1.585E+07 1.585E+07 4.145E+00 4.355E-02 1.124E+00 1.757E+00 2.924E+00 7.069E+00 3.054E+06  9.0958 1.00000
  1.778E+07 1.778E+07 4.162E+00 4.965E-02 1.272E+00 2.001E+00 3.322E+00 7.485E+00 3.320E+06  9.3260 1.00000
  1.995E+07 1.995E+07 4.179E+00 5.658E-02 1.439E+00 2.279E+00 3.775E+00 7.954E+00 3.601E+06  9.5563 1.00000
  2.239E+07 2.239E+07 4.196E+00 6.447E-02 1.628E+00 2.596E+00 4.288E+00 8.484E+00 3.898E+06  9.7865 1.00000
  2.512E+07 2.512E+07 4.213E+00 7.344E-02 1.840E+00 2.958E+00 4.871E+00 9.084E+00 4.209E+06 10.0167 1.00000
  2.818E+07 2.819E+07 4.230E+00 8.363E-02 2.078E+00 3.371E+00 5.533E+00 9.763E+00 4.535E+06 10.2470 1.00000
  3.162E+07 3.162E+07 4.247E+00 9.521E-02 2.347E+00 3.842E+00 6.284E+00 1.053E+01 4.874E+06 10.4772 1.00000
  3.548E+07 3.548E+07 4.264E+00 1.084E-01 2.649E+00 4.380E+00 7.137E+00 1.140E+01 5.227E+06 10.7075 1.00000
  3.981E+07 3.981E+07 4.280E+00 1.233E-01 2.989E+00 4.994E+00 8.106E+00 1.239E+01 5.591E+06 10.9377 1.00000
  4.467E+07 4.467E+07 4.297E+00 1.402E-01 3.371E+00 5.694E+00 9.206E+00 1.350E+01 5.967E+06 11.1680 1.00000
  5.012E+07 5.012E+07 4.314E+00 1.595E-01 3.801E+00 6.494E+00 1.045E+01 1.477E+01 6.354E+06 11.3982 1.00000
  5.623E+07 5.624E+07 4.330E+00 1.813E-01 4.284E+00 7.407E+00 1.187E+01 1.620E+01 6.750E+06 11.6285 1.00000
  6.310E+07 6.310E+07 4.347E+00 2.060E-01 4.828E+00 8.449E+00 1.348E+01 1.783E+01 7.154E+06 11.8587 1.00000
  7.079E+07 7.080E+07 4.363E+00 2.340E-01 5.438E+00 9.640E+00 1.531E+01 1.967E+01 7.565E+06 12.0890 1.00000
  7.943E+07 7.943E+07 4.380E+00 2.658E-01 6.124E+00 1.100E+01 1.739E+01 2.177E+01 7.983E+06 12.3192 1.00000
  8.913E+07 8.913E+07 4.397E+00 3.018E-01 6.894E+00 1.255E+01 1.975E+01 2.414E+01 8.407E+06 12.5495 1.00000
  1.000E+08 1.000E+08 4.413E+00 3.425E-01 7.759E+00 1.432E+01 2.242E+01 2.684E+01 8.834E+06 12.7797 1.00000
  1.122E+08 1.122E+08 4.430E+00 3.887E-01 8.731E+00 1.635E+01 2.547E+01 2.990E+01 9.266E+06 13.0100 1.00000
  1.259E+08 1.259E+08 4.447E+00 4.409E-01 9.823E+00 1.866E+01 2.892E+01 3.337E+01 9.700E+06 13.2402 1.00000
  1.413E+08 1.413E+08 4.464E+00 5.000E-01 1.105E+01 2.130E+01 3.285E+01 3.731E+01 1.014E+07 13.4705 1.00000
  1.585E+08 1.585E+08 4.481E+00 5.669E-01 1.242E+01 2.431E+01 3.731E+01 4.179E+01 1.057E+07 13.7008 1.00000
  1.778E+08 1.778E+08 4.498E+00 6.425E-01 1.397E+01 2.776E+01 4.237E+01 4.687E+01 1.101E+07 13.9310 1.00000
  1.995E+08 1.995E+08 4.515E+00 7.280E-01 1.570E+01 3.169E+01 4.813E+01 5.264E+01 1.145E+07 14.1613 1.00000
  2.239E+08 2.239E+08 4.532E+00 8.246E-01 1.765E+01 3.619E+01 5.467E+01 5.920E+01 1.189E+07 14.3915 1.00000
  2.512E+08 2.512E+08 4.549E+00 9.338E-01 1.984E+01 4.133E+01 6.210E+01 6.665E+01 1.232E+07 14.6218 1.00000
  2.818E+08 2.818E+08 4.566E+00 1.057E+00 2.229E+01 4.719E+01 7.054E+01 7.511E+01 1.275E+07 14.8520 1.00000
  3.162E+08 3.162E+08 4.583E+00 1.196E+00 2.505E+01 5.390E+01 8.014E+01 8.473E+01 1.319E+07 15.0823 1.00000
  3.548E+08 3.548E+08 4.601E+00 1.354E+00 2.814E+01 6.156E+01 9.105E+01 9.565E+01 1.362E+07 15.3126 1.00000
  3.981E+08 3.981E+08 4.618E+00 1.531E+00 3.161E+01 7.032E+01 1.035E+02 1.081E+02 1.404E+07 15.5428 1.00000
  4.467E+08 4.467E+08 4.636E+00 1.731E+00 3.550E+01 8.032E+01 1.176E+02 1.222E+02 1.447E+07 15.7731 1.00000
  5.012E+08 5.012E+08 4.653E+00 1.957E+00 3.987E+01 9.176E+01 1.336E+02 1.382E+02 1.489E+07 16.0033 1.00000
  5.623E+08 5.623E+08 4.671E+00 2.212E+00 4.478E+01 1.048E+02 1.518E+02 1.565E+02 1.530E+07 16.2336 1.00000
  6.310E+08 6.310E+08 4.689E+00 2.499E+00 5.029E+01 1.198E+02 1.726E+02 1.772E+02 1.572E+07 16.4638 1.00000
  7.079E+08 7.079E+08 4.706E+00 2.823E+00 5.646E+01 1.368E+02 1.961E+02 2.008E+02 1.612E+07 16.6941 1.00000
  7.943E+08 7.943E+08 4.724E+00 3.188E+00 6.340E+01 1.564E+02 2.229E+02 2.277E+02 1.653E+07 16.9244 1.00000
  8.913E+08 8.913E+08 4.742E+00 3.599E+00 7.118E+01 1.787E+02 2.534E+02 2.582E+02 1.693E+07 17.1546 1.00000
  1.000E+09 1.000E+09 4.761E+00 4.062E+00 7.991E+01 2.042E+02 2.881E+02 2.929E+02 1.733E+07 17.3849 1.00000
  1.122E+09 1.122E+09 4.779E+00 4.584E+00 8.970E+01 2.333E+02 3.276E+02 3.324E+02 1.772E+07 17.6151 1.00000
  1.259E+09 1.259E+09 4.797E+00 5.171E+00 1.007E+02 2.667E+02 3.726E+02 3.774E+02 1.811E+07 17.8454 1.00000
  1.413E+09 1.413E+09 4.816E+00 5.833E+00 1.130E+02 3.048E+02 4.237E+02 4.285E+02 1.849E+07 18.0756 1.00000
  1.585E+09 1.585E+09 4.834E+00 6.577E+00 1.269E+02 3.484E+02 4.819E+02 4.867E+02 1.887E+07 18.3059 1.00000
  1.778E+09 1.778E+09 4.853E+00 7.415E+00 1.424E+02 3.983E+02 5.481E+02 5.529E+02 1.924E+07 18.5362 1.00000
  1.995E+09 1.995E+09 4.872E+00 8.358E+00 1.598E+02 4.553E+02 6.235E+02 6.283E+02 1.961E+07 18.7664 1.00000
  2.239E+09 2.239E+09 4.890E+00 9.419E+00 1.794E+02 5.205E+02 7.093E+02 7.142E+02 1.997E+07 18.9967 1.00000
  2.512E+09 2.512E+09 4.909E+00 1.061E+01 2.013E+02 5.950E+02 8.070E+02 8.119E+02 2.033E+07 19.2269 1.00000
  2.818E+09 2.818E+09 4.928E+00 1.195E+01 2.260E+02 6.803E+02 9.182E+02 9.231E+02 2.069E+07 19.4572 1.00000
  3.162E+09 3.162E+09 4.948E+00 1.346E+01 2.536E+02 7.778E+02 1.045E+03 1.050E+03 2.104E+07 19.6875 1.00000
  3.548E+09 3.548E+09 4.967E+00 1.516E+01 2.846E+02 8.894E+02 1.189E+03 1.194E+03 2.138E+07 19.9177 1.00000
  3.981E+09 3.981E+09 4.986E+00 1.707E+01 3.194E+02 1.017E+03 1.353E+03 1.358E+03 2.172E+07 20.1480 1.00000
  4.467E+09 4.467E+09 5.006E+00 1.921E+01 3.584E+02 1.163E+03 1.541E+03 1.546E+03 2.206E+07 20.3782 1.00000
  5.012E+09 5.012E+09 5.025E+00 2.162E+01 4.022E+02 1.330E+03 1.754E+03 1.759E+03 2.239E+07 20.6085 1.00000
  5.623E+09 5.623E+09 5.045E+00 2.433E+01 4.513E+02 1.521E+03 1.997E+03 2.002E+03 2.272E+07 20.8387 1.00000
  6.310E+09 6.310E+09 5.065E+00 2.737E+01 5.064E+02 1.740E+03 2.274E+03 2.279E+03 2.304E+07 21.0690 1.00000
  7.079E+09 7.079E+09 5.085E+00 3.079E+01 5.683E+02 1.990E+03 2.589E+03 2.594E+03 2.336E+07 21.2993 1.00000
  7.943E+09 7.943E+09 5.105E+00 3.463E+01 6.377E+02 2.276E+03 2.949E+03 2.954E+03 2.367E+07 21.5295 1.00000
  8.913E+09 8.913E+09 5.125E+00 3.895E+01 7.155E+02 2.604E+03 3.359E+03 3.364E+03 2.398E+07 21.7598 1.00000
  1.000E+10 1.000E+10 5.145E+00 4.379E+01 8.029E+02 2.979E+03 3.826E+03 3.831E+03 2.428E+07 21.9900 1.00000
  1.122E+10 1.122E+10 5.166E+00 4.924E+01 9.009E+02 3.408E+03 4.358E+03 4.364E+03 2.458E+07 22.2203 1.00000
  1.259E+10 1.259E+10 5.186E+00 5.535E+01 1.011E+03 3.899E+03 4.966E+03 4.971E+03 2.487E+07 22.4506 1.00000
  1.413E+10 1.413E+10 5.207E+00 6.221E+01 1.134E+03 4.462E+03 5.658E+03 5.663E+03 2.516E+07 22.6808 1.00000
  1.585E+10 1.585E+10 5.227E+00 6.992E+01 1.273E+03 5.105E+03 6.448E+03 6.453E+03 2.545E+07 22.9111 1.00000
  1.778E+10 1.778E+10 5.248E+00 7.858E+01 1.428E+03 5.842E+03 7.348E+03 7.354E+03 2.573E+07 23.1413 1.00000
  1.995E+10 1.995E+10 5.269E+00 8.829E+01 1.602E+03 6.685E+03 8.376E+03 8.381E+03 2.601E+07 23.3716 1.00000
  2.239E+10 2.239E+10 5.290E+00 9.920E+01 1.798E+03 7.650E+03 9.547E+03 9.553E+03 2.628E+07 23.6019 1.00000
  2.512E+10 2.512E+10 5.311E+00 1.114E+02 2.017E+03 8.755E+03 1.088E+04 1.089E+04 2.655E+07 23.8321 1.00000
  2.818E+10 2.818E+10 5.333E+00 1.252E+02 2.264E+03 1.002E+04 1.241E+04 1.241E+04 2.681E+07 24.0624 1.00000
  3.162E+10 3.162E+10 5.354E+00 1.406E+02 2.540E+03 1.147E+04 1.415E+04 1.416E+04 2.707E+07 24.2926 1.00000
  3.548E+10 3.548E+10 5.376E+00 1.580E+02 2.850E+03 1.313E+04 1.614E+04 1.614E+04 2.733E+07 24.5229 1.00000
  3.981E+10 3.981E+10 5.397E+00 1.774E+02 3.198E+03 1.503E+04 1.840E+04 1.841E+04 2.758E+07 24.7531 1.00000
  4.467E+10 4.467E+10 5.419E+00 1.992E+02 3.588E+03 1.720E+04 2.099E+04 2.100E+04 2.783E+07 24.9834 1.00000
  5.012E+10 5.012E+10 5.441E+00 2.237E+02 4.025E+03 1.970E+04 2.394E+04 2.395E+04 2.807E+07 25.2137 1.00000
  5.623E+10 5.623E+10 5.463E+00 2.512E+02 4.517E+03 2.255E+04 2.732E+04 2.732E+04 2.831E+07 25.4439 1.00000
  6.310E+10 6.310E+10 5.485E+00 2.821E+02 5.068E+03 2.582E+04 3.117E+04 3.117E+04 2.855E+07 25.6742 1.00000
  7.079E+10 7.079E+10 5.508E+00 3.167E+02 5.686E+03 2.956E+04 3.556E+04 3.557E+04 2.878E+07 25.9044 1.00000
  7.943E+10 7.943E+10 5.530E+00 3.556E+02 6.380E+03 3.385E+04 4.059E+04 4.059E+04 2.901E+07 26.1347 1.00000
  8.913E+10 8.913E+10 5.553E+00 3.992E+02 7.158E+03 3.876E+04 4.632E+04 4.633E+04 2.923E+07 26.3650 1.00000
  1.000E+11 1.000E+11 5.575E+00 4.481E+02 8.031E+03 4.439E+04 5.287E+04 5.288E+04 2.945E+07 26.5952 1.00000
  1.122E+11 1.122E+11 5.598E+00 5.030E+02 9.011E+03 5.084E+04 6.035E+04 6.036E+04 2.967E+07 26.8255 1.00000
  1.259E+11 1.259E+11 5.621E+00 5.647E+02 1.011E+04 5.822E+04 6.890E+04 6.891E+04 2.988E+07 27.0557 1.00000
  1.413E+11 1.413E+11 5.644E+00 6.339E+02 1.134E+04 6.669E+04 7.867E+04 7.867E+04 3.009E+07 27.2860 1.00000
  1.585E+11 1.585E+11 5.667E+00 7.115E+02 1.273E+04 7.639E+04 8.983E+04 8.983E+04 3.030E+07 27.5162 1.00000
  1.778E+11 1.778E+11 5.691E+00 7.986E+02 1.428E+04 8.750E+04 1.026E+05 1.026E+05 3.050E+07 27.7465 1.00000
  1.995E+11 1.995E+11 5.714E+00 8.963E+02 1.602E+04 1.002E+05 1.172E+05 1.172E+05 3.070E+07 27.9768 1.00000
  2.239E+11 2.239E+11 5.738E+00 1.006E+03 1.798E+04 1.148E+05 1.338E+05 1.338E+05 3.089E+07 28.2070 1.00000
  2.512E+11 2.512E+11 5.761E+00 1.129E+03 2.017E+04 1.316E+05 1.529E+05 1.529E+05 3.108E+07 28.4373 1.00000
  2.818E+11 2.818E+11 5.785E+00 1.267E+03 2.263E+04 1.507E+05 1.746E+05 1.746E+05 3.127E+07 28.6675 1.00000
  3.162E+11 3.162E+11 5.809E+00 1.422E+03 2.539E+04 1.727E+05 1.995E+05 1.995E+05 3.145E+07 28.8978 1.00000
  3.548E+11 3.548E+11 5.833E+00 1.596E+03 2.849E+04 1.979E+05 2.280E+05 2.280E+05 3.164E+07 29.1281 1.00000
  3.981E+11 3.981E+11 5.857E+00 1.791E+03 3.196E+04 2.268E+05 2.605E+05 2.605E+05 3.181E+07 29.3583 1.00000
  4.467E+11 4.467E+11 5.882E+00 2.010E+03 3.586E+04 2.598E+05 2.977E+05 2.977E+05 3.199E+07 29.5886 1.00000
  5.012E+11 5.012E+11 5.906E+00 2.255E+03 4.024E+04 2.978E+05 3.403E+05 3.403E+05 3.216E+07 29.8188 1.00000
  5.623E+11 5.623E+11 5.931E+00 2.531E+03 4.515E+04 3.413E+05 3.890E+05 3.890E+05 3.233E+07 30.0491 1.00000
  6.310E+11 6.310E+11 5.956E+00 2.840E+03 5.065E+04 3.912E+05 4.447E+05 4.447E+05 3.249E+07 30.2793 1.00000
  7.079E+11 7.079E+11 5.981E+00 3.187E+03 5.683E+04 4.484E+05 5.084E+05 5.084E+05 3.266E+07 30.5096 1.00000
  7.943E+11 7.943E+11 6.006E+00 3.576E+03 6.376E+04 5.139E+05 5.813E+05 5.813E+05 3.282E+07 30.7399 1.00000
  8.913E+11 8.913E+11 6.031E+00 4.013E+03 7.154E+04 5.891E+05 6.647E+05 6.647E+05 3.297E+07 30.9701 1.00000
  1.000E+12 1.000E+12 6.056E+00 4.503E+03 8.027E+04 6.753E+05 7.601E+05 7.601E+05 3.313E+07 31.2004 1.00000
  1.122E+12 1.122E+12 6.082E+00 5.053E+03 9.006E+04 7.742E+05 8.693E+05 8.694E+05 3.328E+07 31.4306 1.00000
  1.259E+12 1.259E+12 6.108E+00 5.670E+03 1.010E+05 8.876E+05 9.944E+05 9.944E+05 3.342E+07 31.6609 1.00000
  1.413E+12 1.413E+12 6.133E+00 6.362E+03 1.134E+05 1.018E+06 1.137E+06 1.137E+06 3.357E+07 31.8912 1.00000
  1.585E+12 1.585E+12 6.159E+00 7.139E+03 1.272E+05 1.167E+06 1.301E+06 1.301E+06 3.371E+07 32.1214 1.00000
  1.778E+12 1.778E+12 6.185E+00 8.011E+03 1.427E+05 1.338E+06 1.489E+06 1.489E+06 3.385E+07 32.3517 1.00000
  1.995E+12 1.995E+12 6.212E+00 8.989E+03 1.601E+05 1.534E+06 1.704E+06 1.704E+06 3.399E+07 32.5819 1.00000
  2.239E+12 2.239E+12 6.238E+00 1.009E+04 1.797E+05 1.760E+06 1.949E+06 1.949E+06 3.412E+07 32.8122 1.00000
  2.512E+12 2.512E+12 6.264E+00 1.132E+04 2.016E+05 2.018E+06 2.231E+06 2.231E+06 3.425E+07 33.0424 1.00000
  2.818E+12 2.818E+12 6.291E+00 1.270E+04 2.261E+05 2.314E+06 2.553E+06 2.553E+06 3.438E+07 33.2727 1.00000
  3.162E+12 3.162E+12 6.318E+00 1.425E+04 2.537E+05 2.655E+06 2.922E+06 2.923E+06 3.451E+07 33.5030 1.00000
  3.548E+12 3.548E+12 6.345E+00 1.599E+04 2.847E+05 3.045E+06 3.345E+06 3.345E+06 3.463E+07 33.7332 1.00000
  3.981E+12 3.981E+12 6.372E+00 1.794E+04 3.194E+05 3.493E+06 3.830E+06 3.830E+06 3.475E+07 33.9635 1.00000
  4.467E+12 4.467E+12 6.399E+00 2.013E+04 3.584E+05 4.006E+06 4.385E+06 4.385E+06 3.487E+07 34.1937 1.00000
  5.012E+12 5.012E+12 6.427E+00 2.258E+04 4.021E+05 4.596E+06 5.021E+06 5.021E+06 3.499E+07 34.4240 1.00000
  5.623E+12 5.623E+12 6.454E+00 2.534E+04 4.511E+05 5.273E+06 5.749E+06 5.749E+06 3.510E+07 34.6543 1.00000
  6.310E+12 6.310E+12 6.482E+00 2.843E+04 5.061E+05 6.049E+06 6.584E+06 6.584E+06 3.521E+07 34.8845 1.00000
  7.079E+12 7.079E+12 6.510E+00 3.190E+04 5.679E+05 6.941E+06 7.540E+06 7.540E+06 3.532E+07 35.1148 1.00000
  7.943E+12 7.943E+12 6.538E+00 3.580E+04 6.371E+05 7.964E+06 8.637E+06 8.637E+06 3.543E+07 35.3450 1.00000
  8.913E+12 8.913E+12 6.566E+00 4.016E+04 7.148E+05 9.138E+06 9.893E+06 9.893E+06 3.553E+07 35.5753 1.00000
  1.000E+13 1.000E+13 6.594E+00 4.507E+04 8.020E+05 1.049E+07 1.133E+07 1.133E+07 3.564E+07 35.8056 1.00000
  1.122E+13 1.122E+13 6.623E+00 5.057E+04 8.998E+05 1.203E+07 1.298E+07 1.298E+07 3.574E+07 36.0358 1.00000
  1.259E+13 1.259E+13 6.651E+00 5.674E+04 1.010E+06 1.381E+07 1.488E+07 1.488E+07 3.584E+07 36.2661 1.00000
  1.413E+13 1.413E+13 6.680E+00 6.366E+04 1.133E+06 1.585E+07 1.705E+07 1.705E+07 3.593E+07 36.4963 1.00000
  1.585E+13 1.585E+13 6.709E+00 7.143E+04 1.271E+06 1.819E+07 1.953E+07 1.953E+07 3.603E+07 36.7266 1.00000
  1.778E+13 1.778E+13 6.738E+00 8.014E+04 1.426E+06 2.088E+07 2.239E+07 2.239E+07 3.612E+07 36.9568 1.00000
  1.995E+13 1.995E+13 6.767E+00 8.992E+04 1.600E+06 2.397E+07 2.566E+07 2.566E+07 3.621E+07 37.1871 1.00000
  2.239E+13 2.239E+13 6.797E+00 1.009E+05 1.795E+06 2.751E+07 2.941E+07 2.941E+07 3.630E+07 37.4174 1.00000
  2.512E+13 2.512E+13 6.826E+00 1.132E+05 2.014E+06 3.158E+07 3.371E+07 3.371E+07 3.639E+07 37.6476 1.00000
  2.818E+13 2.818E+13 6.856E+00 1.270E+05 2.259E+06 3.626E+07 3.864E+07 3.864E+07 3.647E+07 37.8779 1.00000
  3.162E+13 3.162E+13 6.886E+00 1.425E+05 2.535E+06 4.163E+07 4.430E+07 4.430E+07 3.656E+07 38.1081 1.00000
  3.548E+13 3.548E+13 6.916E+00 1.599E+05 2.844E+06 4.779E+07 5.080E+07 5.080E+07 3.664E+07 38.3384 1.00000
  3.981E+13 3.981E+13 6.946E+00 1.794E+05 3.191E+06 5.487E+07 5.824E+07 5.824E+07 3.672E+07 38.5687 1.00000
  4.467E+13 4.467E+13 6.976E+00 2.013E+05 3.580E+06 6.301E+07 6.679E+07 6.679E+07 3.679E+07 38.7989 1.00000
  5.012E+13 5.012E+13 7.007E+00 2.259E+05 4.017E+06 7.235E+07 7.659E+07 7.659E+07 3.687E+07 39.0292 1.00000
  5.623E+13 5.623E+13 7.037E+00 2.534E+05 4.506E+06 8.309E+07 8.785E+07 8.785E+07 3.695E+07 39.2594 1.00000
  6.310E+13 6.310E+13 7.068E+00 2.844E+05 5.056E+06 9.541E+07 1.008E+08 1.008E+08 3.702E+07 39.4897 1.00000
  7.079E+13 7.079E+13 7.099E+00 3.191E+05 5.673E+06 1.096E+08 1.156E+08 1.156E+08 3.709E+07 39.7199 1.00000
  7.943E+13 7.943E+13 7.131E+00 3.580E+05 6.364E+06 1.259E+08 1.326E+08 1.326E+08 3.716E+07 39.9502 1.00000
  8.913E+13 8.913E+13 7.162E+00 4.017E+05 7.140E+06 1.445E+08 1.521E+08 1.521E+08 3.723E+07 40.1805 1.00000
