 Incident particle is a Tau with M = 1776.82000 MeV
 Index = 0: Ethanol
      Absorber with <Z/A> = 0.56428
 Sternheimer coef:  a     k=m_s   x_0    x_1    I[eV]   Cbar  delta0
                 0.0988  3.4834  0.2218  2.7052   62.9  3.3699 0.00

 *** Table generated with PUMAS v1.00 ***

      T         p     Ionization  brems     pair     photonuc  Radloss    dE/dx   CSDA Range  delta   beta
    [MeV]    [MeV/c]  -----------------------[MeV cm^2/g]------------------------  [g/cm^2]
  1.000E+05 1.018E+05 2.505E+00 1.235E-04 1.924E-03 8.439E-03 1.049E-02 2.516E+00 1.987E+04  4.8075 0.99985
  1.122E+05 1.140E+05 2.527E+00 1.426E-04 2.326E-03 9.538E-03 1.201E-02 2.539E+00 2.470E+04  5.0202 0.99988
  1.259E+05 1.277E+05 2.548E+00 1.647E-04 2.802E-03 1.072E-02 1.369E-02 2.562E+00 3.007E+04  5.2350 0.99990
  1.413E+05 1.430E+05 2.569E+00 1.900E-04 3.363E-03 1.206E-02 1.561E-02 2.585E+00 3.604E+04  5.4517 0.99992
  1.585E+05 1.603E+05 2.590E+00 2.191E-04 4.023E-03 1.355E-02 1.779E-02 2.608E+00 4.268E+04  5.6703 0.99994
  1.778E+05 1.796E+05 2.612E+00 2.527E-04 4.798E-03 1.522E-02 2.027E-02 2.632E+00 5.006E+04  5.8905 0.99995
  1.995E+05 2.013E+05 2.633E+00 2.912E-04 5.706E-03 1.713E-02 2.313E-02 2.656E+00 5.827E+04  6.1121 0.99996
  2.239E+05 2.256E+05 2.654E+00 3.354E-04 6.769E-03 1.922E-02 2.632E-02 2.680E+00 6.739E+04  6.3352 0.99997
  2.512E+05 2.530E+05 2.674E+00 3.862E-04 8.009E-03 2.156E-02 2.995E-02 2.704E+00 7.754E+04  6.5594 0.99998
  2.818E+05 2.836E+05 2.695E+00 4.444E-04 9.454E-03 2.419E-02 3.409E-02 2.729E+00 8.882E+04  6.7846 0.99998
  3.162E+05 3.180E+05 2.716E+00 5.113E-04 1.113E-02 2.718E-02 3.882E-02 2.755E+00 1.014E+05  7.0108 0.99998
  3.548E+05 3.566E+05 2.737E+00 5.880E-04 1.309E-02 3.053E-02 4.420E-02 2.781E+00 1.153E+05  7.2378 0.99999
  3.981E+05 3.999E+05 2.757E+00 6.759E-04 1.535E-02 3.428E-02 5.030E-02 2.808E+00 1.308E+05  7.4654 0.99999
  4.467E+05 4.485E+05 2.778E+00 7.768E-04 1.797E-02 3.848E-02 5.722E-02 2.835E+00 1.480E+05  7.6936 0.99999
  5.012E+05 5.030E+05 2.798E+00 8.923E-04 2.100E-02 4.321E-02 6.510E-02 2.864E+00 1.671E+05  7.9223 0.99999
  5.623E+05 5.641E+05 2.819E+00 1.025E-03 2.450E-02 4.834E-02 7.386E-02 2.893E+00 1.884E+05  8.1514 1.00000
  6.310E+05 6.327E+05 2.839E+00 1.176E-03 2.853E-02 5.413E-02 8.383E-02 2.923E+00 2.120E+05  8.3807 1.00000
  7.079E+05 7.097E+05 2.860E+00 1.350E-03 3.318E-02 6.066E-02 9.519E-02 2.955E+00 2.382E+05  8.6102 1.00000
  7.943E+05 7.961E+05 2.880E+00 1.549E-03 3.852E-02 6.804E-02 1.081E-01 2.988E+00 2.673E+05  8.8399 1.00000
  8.913E+05 8.930E+05 2.900E+00 1.776E-03 4.466E-02 7.639E-02 1.228E-01 3.023E+00 2.995E+05  9.0697 1.00000
  1.000E+06 1.002E+06 2.920E+00 2.037E-03 5.171E-02 8.583E-02 1.396E-01 3.059E+00 3.353E+05  9.2995 1.00000
  1.122E+06 1.124E+06 2.940E+00 2.334E-03 5.979E-02 9.653E-02 1.586E-01 3.098E+00 3.749E+05  9.5294 1.00000
  1.259E+06 1.261E+06 2.960E+00 2.675E-03 6.904E-02 1.086E-01 1.804E-01 3.140E+00 4.188E+05  9.7593 1.00000
  1.413E+06 1.414E+06 2.979E+00 3.065E-03 7.962E-02 1.224E-01 2.051E-01 3.184E+00 4.674E+05  9.9892 1.00000
  1.585E+06 1.587E+06 2.999E+00 3.510E-03 9.171E-02 1.380E-01 2.332E-01 3.232E+00 5.211E+05 10.2192 1.00000
  1.778E+06 1.780E+06 3.018E+00 4.020E-03 1.055E-01 1.556E-01 2.652E-01 3.283E+00 5.805E+05 10.4492 1.00000
  1.995E+06 1.997E+06 3.038E+00 4.602E-03 1.213E-01 1.757E-01 3.016E-01 3.339E+00 6.460E+05 10.6793 1.00000
  2.239E+06 2.240E+06 3.057E+00 5.267E-03 1.392E-01 1.985E-01 3.430E-01 3.400E+00 7.183E+05 10.9094 1.00000
  2.512E+06 2.514E+06 3.076E+00 6.026E-03 1.596E-01 2.244E-01 3.901E-01 3.466E+00 7.979E+05 11.1394 1.00000
  2.818E+06 2.820E+06 3.094E+00 6.894E-03 1.829E-01 2.539E-01 4.436E-01 3.538E+00 8.854E+05 11.3695 1.00000
  3.162E+06 3.164E+06 3.113E+00 7.884E-03 2.093E-01 2.874E-01 5.045E-01 3.618E+00 9.815E+05 11.5997 1.00000
  3.548E+06 3.550E+06 3.132E+00 9.015E-03 2.393E-01 3.254E-01 5.738E-01 3.705E+00 1.087E+06 11.8298 1.00000
  3.981E+06 3.983E+06 3.150E+00 1.031E-02 2.734E-01 3.688E-01 6.525E-01 3.802E+00 1.202E+06 12.0600 1.00000
  4.467E+06 4.469E+06 3.168E+00 1.178E-02 3.120E-01 4.181E-01 7.419E-01 3.910E+00 1.328E+06 12.2901 1.00000
  5.012E+06 5.014E+06 3.186E+00 1.346E-02 3.557E-01 4.743E-01 8.435E-01 4.029E+00 1.466E+06 12.5203 1.00000
  5.623E+06 5.625E+06 3.204E+00 1.537E-02 4.053E-01 5.383E-01 9.589E-01 4.163E+00 1.615E+06 12.7505 1.00000
  6.310E+06 6.311E+06 3.221E+00 1.756E-02 4.613E-01 6.112E-01 1.090E+00 4.311E+00 1.777E+06 12.9807 1.00000
  7.079E+06 7.081E+06 3.239E+00 2.005E-02 5.248E-01 6.942E-01 1.239E+00 4.478E+00 1.952E+06 13.2109 1.00000
  7.943E+06 7.945E+06 3.256E+00 2.288E-02 5.965E-01 7.888E-01 1.408E+00 4.664E+00 2.141E+06 13.4411 1.00000
  8.913E+06 8.914E+06 3.273E+00 2.611E-02 6.775E-01 8.966E-01 1.600E+00 4.873E+00 2.345E+06 13.6713 1.00000
  1.000E+07 1.000E+07 3.290E+00 2.979E-02 7.690E-01 1.019E+00 1.818E+00 5.108E+00 2.563E+06 13.9015 1.00000
  1.122E+07 1.122E+07 3.306E+00 3.398E-02 8.722E-01 1.160E+00 2.066E+00 5.372E+00 2.796E+06 14.1317 1.00000
  1.259E+07 1.259E+07 3.323E+00 3.874E-02 9.887E-01 1.319E+00 2.347E+00 5.670E+00 3.044E+06 14.3619 1.00000
  1.413E+07 1.413E+07 3.339E+00 4.417E-02 1.120E+00 1.501E+00 2.666E+00 6.005E+00 3.307E+06 14.5922 1.00000
  1.585E+07 1.585E+07 3.356E+00 5.034E-02 1.268E+00 1.709E+00 3.028E+00 6.383E+00 3.586E+06 14.8224 1.00000
  1.778E+07 1.778E+07 3.372E+00 5.735E-02 1.435E+00 1.946E+00 3.439E+00 6.810E+00 3.879E+06 15.0526 1.00000
  1.995E+07 1.995E+07 3.388E+00 6.533E-02 1.623E+00 2.216E+00 3.905E+00 7.293E+00 4.187E+06 15.2829 1.00000
  2.239E+07 2.239E+07 3.404E+00 7.439E-02 1.835E+00 2.525E+00 4.434E+00 7.838E+00 4.509E+06 15.5131 1.00000
  2.512E+07 2.512E+07 3.420E+00 8.468E-02 2.073E+00 2.877E+00 5.034E+00 8.454E+00 4.845E+06 15.7433 1.00000
  2.818E+07 2.819E+07 3.436E+00 9.638E-02 2.341E+00 3.278E+00 5.716E+00 9.152E+00 5.194E+06 15.9736 1.00000
  3.162E+07 3.162E+07 3.452E+00 1.097E-01 2.643E+00 3.736E+00 6.489E+00 9.941E+00 5.555E+06 16.2038 1.00000
  3.548E+07 3.548E+07 3.467E+00 1.247E-01 2.983E+00 4.259E+00 7.366E+00 1.083E+01 5.927E+06 16.4341 1.00000
  3.981E+07 3.981E+07 3.483E+00 1.418E-01 3.365E+00 4.856E+00 8.362E+00 1.185E+01 6.310E+06 16.6643 1.00000
  4.467E+07 4.467E+07 3.499E+00 1.612E-01 3.794E+00 5.537E+00 9.492E+00 1.299E+01 6.702E+06 16.8946 1.00000
  5.012E+07 5.012E+07 3.514E+00 1.832E-01 4.277E+00 6.314E+00 1.077E+01 1.429E+01 7.102E+06 17.1248 1.00000
  5.623E+07 5.624E+07 3.530E+00 2.081E-01 4.819E+00 7.202E+00 1.223E+01 1.576E+01 7.510E+06 17.3551 1.00000
  6.310E+07 6.310E+07 3.546E+00 2.364E-01 5.429E+00 8.215E+00 1.388E+01 1.743E+01 7.925E+06 17.5853 1.00000
  7.079E+07 7.080E+07 3.561E+00 2.684E-01 6.114E+00 9.372E+00 1.575E+01 1.932E+01 8.345E+06 17.8156 1.00000
  7.943E+07 7.943E+07 3.577E+00 3.047E-01 6.883E+00 1.069E+01 1.788E+01 2.146E+01 8.770E+06 18.0458 1.00000
  8.913E+07 8.913E+07 3.593E+00 3.458E-01 7.748E+00 1.220E+01 2.030E+01 2.389E+01 9.198E+06 18.2761 1.00000
  1.000E+08 1.000E+08 3.609E+00 3.922E-01 8.719E+00 1.393E+01 2.304E+01 2.664E+01 9.630E+06 18.5063 1.00000
  1.122E+08 1.122E+08 3.624E+00 4.448E-01 9.809E+00 1.589E+01 2.615E+01 2.977E+01 1.006E+07 18.7366 1.00000
  1.259E+08 1.259E+08 3.640E+00 5.043E-01 1.103E+01 1.814E+01 2.968E+01 3.332E+01 1.050E+07 18.9668 1.00000
  1.413E+08 1.413E+08 3.656E+00 5.716E-01 1.241E+01 2.071E+01 3.369E+01 3.734E+01 1.094E+07 19.1971 1.00000
  1.585E+08 1.585E+08 3.672E+00 6.477E-01 1.395E+01 2.364E+01 3.824E+01 4.191E+01 1.137E+07 19.4274 1.00000
  1.778E+08 1.778E+08 3.688E+00 7.338E-01 1.569E+01 2.699E+01 4.341E+01 4.709E+01 1.181E+07 19.6576 1.00000
  1.995E+08 1.995E+08 3.704E+00 8.310E-01 1.763E+01 3.081E+01 4.928E+01 5.298E+01 1.224E+07 19.8879 1.00000
  2.239E+08 2.239E+08 3.720E+00 9.408E-01 1.982E+01 3.518E+01 5.594E+01 5.966E+01 1.268E+07 20.1181 1.00000
  2.512E+08 2.512E+08 3.736E+00 1.065E+00 2.227E+01 4.018E+01 6.351E+01 6.725E+01 1.311E+07 20.3484 1.00000
  2.818E+08 2.818E+08 3.752E+00 1.205E+00 2.502E+01 4.588E+01 7.211E+01 7.586E+01 1.354E+07 20.5786 1.00000
  3.162E+08 3.162E+08 3.769E+00 1.363E+00 2.811E+01 5.240E+01 8.187E+01 8.564E+01 1.397E+07 20.8089 1.00000
  3.548E+08 3.548E+08 3.785E+00 1.541E+00 3.158E+01 5.985E+01 9.297E+01 9.675E+01 1.439E+07 21.0392 1.00000
  3.981E+08 3.981E+08 3.802E+00 1.742E+00 3.547E+01 6.836E+01 1.056E+02 1.094E+02 1.481E+07 21.2694 1.00000
  4.467E+08 4.467E+08 3.818E+00 1.969E+00 3.984E+01 7.809E+01 1.199E+02 1.237E+02 1.523E+07 21.4997 1.00000
  5.012E+08 5.012E+08 3.835E+00 2.225E+00 4.474E+01 8.920E+01 1.362E+02 1.400E+02 1.565E+07 21.7299 1.00000
  5.623E+08 5.623E+08 3.851E+00 2.514E+00 5.024E+01 1.019E+02 1.547E+02 1.585E+02 1.606E+07 21.9602 1.00000
  6.310E+08 6.310E+08 3.868E+00 2.839E+00 5.642E+01 1.164E+02 1.757E+02 1.796E+02 1.646E+07 22.1904 1.00000
  7.079E+08 7.079E+08 3.885E+00 3.205E+00 6.334E+01 1.330E+02 1.996E+02 2.035E+02 1.687E+07 22.4207 1.00000
  7.943E+08 7.943E+08 3.902E+00 3.618E+00 7.112E+01 1.520E+02 2.267E+02 2.306E+02 1.727E+07 22.6510 1.00000
  8.913E+08 8.913E+08 3.919E+00 4.083E+00 7.984E+01 1.737E+02 2.576E+02 2.615E+02 1.766E+07 22.8812 1.00000
  1.000E+09 1.000E+09 3.936E+00 4.607E+00 8.963E+01 1.985E+02 2.927E+02 2.967E+02 1.805E+07 23.1115 1.00000
  1.122E+09 1.122E+09 3.953E+00 5.197E+00 1.006E+02 2.268E+02 3.327E+02 3.366E+02 1.844E+07 23.3417 1.00000
  1.259E+09 1.259E+09 3.971E+00 5.861E+00 1.129E+02 2.593E+02 3.781E+02 3.820E+02 1.882E+07 23.5720 1.00000
  1.413E+09 1.413E+09 3.988E+00 6.608E+00 1.268E+02 2.963E+02 4.297E+02 4.337E+02 1.920E+07 23.8022 1.00000
  1.585E+09 1.585E+09 4.005E+00 7.449E+00 1.423E+02 3.387E+02 4.884E+02 4.925E+02 1.958E+07 24.0325 1.00000
  1.778E+09 1.778E+09 4.023E+00 8.395E+00 1.597E+02 3.872E+02 5.553E+02 5.593E+02 1.995E+07 24.2628 1.00000
  1.995E+09 1.995E+09 4.041E+00 9.459E+00 1.793E+02 4.426E+02 6.313E+02 6.353E+02 2.031E+07 24.4930 1.00000
  2.239E+09 2.239E+09 4.058E+00 1.066E+01 2.012E+02 5.059E+02 7.178E+02 7.219E+02 2.067E+07 24.7233 1.00000
  2.512E+09 2.512E+09 4.076E+00 1.200E+01 2.258E+02 5.784E+02 8.162E+02 8.203E+02 2.103E+07 24.9535 1.00000
  2.818E+09 2.818E+09 4.094E+00 1.352E+01 2.534E+02 6.613E+02 9.283E+02 9.324E+02 2.138E+07 25.1838 1.00000
  3.162E+09 3.162E+09 4.112E+00 1.522E+01 2.844E+02 7.562E+02 1.056E+03 1.060E+03 2.172E+07 25.4141 1.00000
  3.548E+09 3.548E+09 4.130E+00 1.713E+01 3.191E+02 8.646E+02 1.201E+03 1.205E+03 2.207E+07 25.6443 1.00000
  3.981E+09 3.981E+09 4.149E+00 1.928E+01 3.581E+02 9.887E+02 1.366E+03 1.370E+03 2.240E+07 25.8746 1.00000
  4.467E+09 4.467E+09 4.167E+00 2.169E+01 4.019E+02 1.131E+03 1.554E+03 1.558E+03 2.274E+07 26.1048 1.00000
  5.012E+09 5.012E+09 4.186E+00 2.441E+01 4.510E+02 1.293E+03 1.768E+03 1.773E+03 2.307E+07 26.3351 1.00000
  5.623E+09 5.623E+09 4.204E+00 2.746E+01 5.061E+02 1.479E+03 2.012E+03 2.017E+03 2.339E+07 26.5653 1.00000
  6.310E+09 6.310E+09 4.223E+00 3.089E+01 5.679E+02 1.691E+03 2.290E+03 2.294E+03 2.371E+07 26.7956 1.00000
  7.079E+09 7.079E+09 4.242E+00 3.474E+01 6.373E+02 1.935E+03 2.607E+03 2.611E+03 2.402E+07 27.0259 1.00000
  7.943E+09 7.943E+09 4.260E+00 3.906E+01 7.151E+02 2.213E+03 2.967E+03 2.971E+03 2.433E+07 27.2561 1.00000
  8.913E+09 8.913E+09 4.279E+00 4.392E+01 8.024E+02 2.532E+03 3.378E+03 3.382E+03 2.464E+07 27.4864 1.00000
  1.000E+10 1.000E+10 4.299E+00 4.937E+01 9.004E+02 2.896E+03 3.846E+03 3.850E+03 2.494E+07 27.7166 1.00000
  1.122E+10 1.122E+10 4.318E+00 5.550E+01 1.010E+03 3.313E+03 4.379E+03 4.383E+03 2.524E+07 27.9469 1.00000
  1.259E+10 1.259E+10 4.337E+00 6.238E+01 1.134E+03 3.791E+03 4.987E+03 4.991E+03 2.553E+07 28.1772 1.00000
  1.413E+10 1.413E+10 4.357E+00 7.010E+01 1.272E+03 4.337E+03 5.679E+03 5.684E+03 2.582E+07 28.4074 1.00000
  1.585E+10 1.585E+10 4.376E+00 7.877E+01 1.427E+03 4.963E+03 6.469E+03 6.473E+03 2.611E+07 28.6377 1.00000
  1.778E+10 1.778E+10 4.396E+00 8.851E+01 1.601E+03 5.679E+03 7.369E+03 7.373E+03 2.639E+07 28.8679 1.00000
  1.995E+10 1.995E+10 4.415E+00 9.944E+01 1.797E+03 6.498E+03 8.395E+03 8.399E+03 2.666E+07 29.0982 1.00000
  2.239E+10 2.239E+10 4.435E+00 1.117E+02 2.016E+03 7.437E+03 9.565E+03 9.569E+03 2.694E+07 29.3285 1.00000
  2.512E+10 2.512E+10 4.455E+00 1.255E+02 2.262E+03 8.511E+03 1.090E+04 1.090E+04 2.720E+07 29.5587 1.00000
  2.818E+10 2.818E+10 4.475E+00 1.409E+02 2.538E+03 9.741E+03 1.242E+04 1.243E+04 2.747E+07 29.7890 1.00000
  3.162E+10 3.162E+10 4.496E+00 1.583E+02 2.848E+03 1.115E+04 1.416E+04 1.416E+04 2.773E+07 30.0192 1.00000
  3.548E+10 3.548E+10 4.516E+00 1.778E+02 3.196E+03 1.276E+04 1.614E+04 1.614E+04 2.798E+07 30.2495 1.00000
  3.981E+10 3.981E+10 4.536E+00 1.997E+02 3.586E+03 1.461E+04 1.839E+04 1.840E+04 2.824E+07 30.4797 1.00000
  4.467E+10 4.467E+10 4.557E+00 2.242E+02 4.023E+03 1.672E+04 2.097E+04 2.098E+04 2.848E+07 30.7100 1.00000
  5.012E+10 5.012E+10 4.578E+00 2.517E+02 4.514E+03 1.915E+04 2.391E+04 2.392E+04 2.873E+07 30.9403 1.00000
  5.623E+10 5.623E+10 4.598E+00 2.826E+02 5.065E+03 2.192E+04 2.727E+04 2.727E+04 2.897E+07 31.1705 1.00000
  6.310E+10 6.310E+10 4.619E+00 3.173E+02 5.683E+03 2.510E+04 3.110E+04 3.110E+04 2.920E+07 31.4008 1.00000
  7.079E+10 7.079E+10 4.640E+00 3.563E+02 6.376E+03 2.874E+04 3.547E+04 3.547E+04 2.944E+07 31.6310 1.00000
  7.943E+10 7.943E+10 4.661E+00 4.000E+02 7.154E+03 3.291E+04 4.046E+04 4.046E+04 2.966E+07 31.8613 1.00000
  8.913E+10 8.913E+10 4.683E+00 4.490E+02 8.027E+03 3.768E+04 4.616E+04 4.616E+04 2.989E+07 32.0916 1.00000
  1.000E+11 1.000E+11 4.704E+00 5.040E+02 9.006E+03 4.315E+04 5.266E+04 5.267E+04 3.011E+07 32.3218 1.00000
  1.122E+11 1.122E+11 4.726E+00 5.658E+02 1.010E+04 4.942E+04 6.009E+04 6.010E+04 3.033E+07 32.5521 1.00000
  1.259E+11 1.259E+11 4.747E+00 6.350E+02 1.134E+04 5.660E+04 6.857E+04 6.858E+04 3.054E+07 32.7823 1.00000
  1.413E+11 1.413E+11 4.769E+00 7.128E+02 1.272E+04 6.483E+04 7.826E+04 7.827E+04 3.075E+07 33.0126 1.00000
  1.585E+11 1.585E+11 4.791E+00 8.000E+02 1.427E+04 7.426E+04 8.933E+04 8.933E+04 3.096E+07 33.2428 1.00000
  1.778E+11 1.778E+11 4.813E+00 8.979E+02 1.601E+04 8.506E+04 1.020E+05 1.020E+05 3.116E+07 33.4731 1.00000
  1.995E+11 1.995E+11 4.835E+00 1.008E+03 1.797E+04 9.744E+04 1.164E+05 1.164E+05 3.136E+07 33.7034 1.00000
  2.239E+11 2.239E+11 4.857E+00 1.131E+03 2.016E+04 1.116E+05 1.329E+05 1.329E+05 3.156E+07 33.9336 1.00000
  2.512E+11 2.512E+11 4.880E+00 1.269E+03 2.262E+04 1.279E+05 1.518E+05 1.518E+05 3.175E+07 34.1639 1.00000
  2.818E+11 2.818E+11 4.902E+00 1.425E+03 2.538E+04 1.465E+05 1.733E+05 1.733E+05 3.194E+07 34.3941 1.00000
  3.162E+11 3.162E+11 4.925E+00 1.599E+03 2.847E+04 1.679E+05 1.980E+05 1.980E+05 3.213E+07 34.6244 1.00000
  3.548E+11 3.548E+11 4.947E+00 1.794E+03 3.195E+04 1.924E+05 2.261E+05 2.261E+05 3.231E+07 34.8547 1.00000
  3.981E+11 3.981E+11 4.970E+00 2.013E+03 3.584E+04 2.204E+05 2.583E+05 2.583E+05 3.249E+07 35.0849 1.00000
  4.467E+11 4.467E+11 4.993E+00 2.259E+03 4.021E+04 2.526E+05 2.951E+05 2.951E+05 3.266E+07 35.3152 1.00000
  5.012E+11 5.012E+11 5.016E+00 2.535E+03 4.512E+04 2.895E+05 3.371E+05 3.372E+05 3.284E+07 35.5454 1.00000
  5.623E+11 5.623E+11 5.040E+00 2.845E+03 5.062E+04 3.318E+05 3.852E+05 3.853E+05 3.301E+07 35.7757 1.00000
  6.310E+11 6.310E+11 5.063E+00 3.193E+03 5.680E+04 3.803E+05 4.403E+05 4.403E+05 3.317E+07 36.0059 1.00000
  7.079E+11 7.079E+11 5.087E+00 3.583E+03 6.373E+04 4.359E+05 5.032E+05 5.032E+05 3.334E+07 36.2362 1.00000
  7.943E+11 7.943E+11 5.110E+00 4.020E+03 7.150E+04 4.996E+05 5.751E+05 5.751E+05 3.350E+07 36.4665 1.00000
  8.913E+11 8.913E+11 5.134E+00 4.511E+03 8.022E+04 5.727E+05 6.574E+05 6.574E+05 3.366E+07 36.6967 1.00000
  1.000E+12 1.000E+12 5.158E+00 5.062E+03 9.001E+04 6.565E+05 7.516E+05 7.516E+05 3.381E+07 36.9270 1.00000
  1.122E+12 1.122E+12 5.182E+00 5.680E+03 1.010E+05 7.527E+05 8.593E+05 8.593E+05 3.396E+07 37.1572 1.00000
  1.259E+12 1.259E+12 5.206E+00 6.373E+03 1.133E+05 8.629E+05 9.826E+05 9.826E+05 3.411E+07 37.3875 1.00000
  1.413E+12 1.413E+12 5.230E+00 7.152E+03 1.271E+05 9.894E+05 1.124E+06 1.124E+06 3.426E+07 37.6178 1.00000
  1.585E+12 1.585E+12 5.255E+00 8.025E+03 1.426E+05 1.134E+06 1.285E+06 1.285E+06 3.440E+07 37.8480 1.00000
  1.778E+12 1.778E+12 5.279E+00 9.004E+03 1.600E+05 1.301E+06 1.470E+06 1.470E+06 3.454E+07 38.0783 1.00000
  1.995E+12 1.995E+12 5.304E+00 1.010E+04 1.795E+05 1.492E+06 1.681E+06 1.681E+06 3.468E+07 38.3085 1.00000
  2.239E+12 2.239E+12 5.329E+00 1.134E+04 2.014E+05 1.711E+06 1.923E+06 1.923E+06 3.482E+07 38.5388 1.00000
  2.512E+12 2.512E+12 5.354E+00 1.272E+04 2.260E+05 1.962E+06 2.200E+06 2.200E+06 3.495E+07 38.7690 1.00000
  2.818E+12 2.818E+12 5.379E+00 1.427E+04 2.536E+05 2.250E+06 2.518E+06 2.518E+06 3.508E+07 38.9993 1.00000
  3.162E+12 3.162E+12 5.404E+00 1.601E+04 2.845E+05 2.581E+06 2.881E+06 2.881E+06 3.521E+07 39.2296 1.00000
  3.548E+12 3.548E+12 5.430E+00 1.797E+04 3.192E+05 2.960E+06 3.297E+06 3.297E+06 3.534E+07 39.4598 1.00000
  3.981E+12 3.981E+12 5.455E+00 2.016E+04 3.582E+05 3.395E+06 3.773E+06 3.773E+06 3.546E+07 39.6901 1.00000
  4.467E+12 4.467E+12 5.481E+00 2.262E+04 4.018E+05 3.895E+06 4.319E+06 4.319E+06 3.558E+07 39.9203 1.00000
  5.012E+12 5.012E+12 5.507E+00 2.538E+04 4.508E+05 4.468E+06 4.944E+06 4.944E+06 3.570E+07 40.1506 1.00000
  5.623E+12 5.623E+12 5.533E+00 2.848E+04 5.058E+05 5.126E+06 5.660E+06 5.660E+06 3.581E+07 40.3809 1.00000
  6.310E+12 6.310E+12 5.559E+00 3.196E+04 5.675E+05 5.881E+06 6.480E+06 6.480E+06 3.593E+07 40.6111 1.00000
  7.079E+12 7.079E+12 5.585E+00 3.586E+04 6.368E+05 6.747E+06 7.420E+06 7.420E+06 3.604E+07 40.8414 1.00000
  7.943E+12 7.943E+12 5.612E+00 4.023E+04 7.144E+05 7.742E+06 8.496E+06 8.496E+06 3.615E+07 41.0716 1.00000
  8.913E+12 8.913E+12 5.638E+00 4.514E+04 8.015E+05 8.883E+06 9.730E+06 9.730E+06 3.625E+07 41.3019 1.00000
  1.000E+13 1.000E+13 5.665E+00 5.065E+04 8.993E+05 1.019E+07 1.114E+07 1.114E+07 3.636E+07 41.5322 1.00000
  1.122E+13 1.122E+13 5.692E+00 5.683E+04 1.009E+06 1.170E+07 1.276E+07 1.276E+07 3.646E+07 41.7624 1.00000
  1.259E+13 1.259E+13 5.719E+00 6.377E+04 1.132E+06 1.343E+07 1.462E+07 1.462E+07 3.656E+07 41.9927 1.00000
  1.413E+13 1.413E+13 5.746E+00 7.155E+04 1.270E+06 1.541E+07 1.675E+07 1.675E+07 3.666E+07 42.2229 1.00000
  1.585E+13 1.585E+13 5.773E+00 8.028E+04 1.425E+06 1.768E+07 1.919E+07 1.919E+07 3.676E+07 42.4532 1.00000
  1.778E+13 1.778E+13 5.800E+00 9.008E+04 1.599E+06 2.030E+07 2.199E+07 2.199E+07 3.685E+07 42.6834 1.00000
  1.995E+13 1.995E+13 5.828E+00 1.011E+05 1.794E+06 2.330E+07 2.519E+07 2.519E+07 3.694E+07 42.9137 1.00000
  2.239E+13 2.239E+13 5.856E+00 1.134E+05 2.013E+06 2.675E+07 2.887E+07 2.887E+07 3.703E+07 43.1440 1.00000
  2.512E+13 2.512E+13 5.884E+00 1.272E+05 2.258E+06 3.070E+07 3.309E+07 3.309E+07 3.712E+07 43.3742 1.00000
  2.818E+13 2.818E+13 5.912E+00 1.428E+05 2.533E+06 3.525E+07 3.792E+07 3.792E+07 3.721E+07 43.6045 1.00000
  3.162E+13 3.162E+13 5.940E+00 1.602E+05 2.842E+06 4.047E+07 4.347E+07 4.347E+07 3.729E+07 43.8347 1.00000
  3.548E+13 3.548E+13 5.968E+00 1.797E+05 3.189E+06 4.646E+07 4.983E+07 4.983E+07 3.738E+07 44.0650 1.00000
  3.981E+13 3.981E+13 5.997E+00 2.017E+05 3.578E+06 5.334E+07 5.712E+07 5.712E+07 3.746E+07 44.2953 1.00000
  4.467E+13 4.467E+13 6.025E+00 2.263E+05 4.014E+06 6.125E+07 6.549E+07 6.549E+07 3.754E+07 44.5255 1.00000
  5.012E+13 5.012E+13 6.054E+00 2.539E+05 4.504E+06 7.034E+07 7.509E+07 7.509E+07 3.762E+07 44.7558 1.00000
  5.623E+13 5.623E+13 6.083E+00 2.849E+05 5.053E+06 8.077E+07 8.611E+07 8.611E+07 3.769E+07 44.9860 1.00000
  6.310E+13 6.310E+13 6.112E+00 3.196E+05 5.669E+06 9.276E+07 9.874E+07 9.874E+07 3.777E+07 45.2163 1.00000
  7.079E+13 7.079E+13 6.141E+00 3.586E+05 6.361E+06 1.065E+08 1.132E+08 1.132E+08 3.784E+07 45.4465 1.00000
  7.943E+13 7.943E+13 6.171E+00 4.024E+05 7.136E+06 1.223E+08 1.299E+08 1.299E+08 3.791E+07 45.6768 1.00000
  8.913E+13 8.913E+13 6.200E+00 4.515E+05 8.007E+06 1.405E+08 1.490E+08 1.490E+08 3.798E+07 45.9071 1.00000
