 Incident particle is a Tau with M = 1776.82000 MeV
 Index = 0: EthylCellulose
      Absorber with <Z/A> = 0.54398
 Sternheimer coef:  a     k=m_s   x_0    x_1    I[eV]   Cbar  delta0
                 0.1108  3.4098  0.1683  2.6527   69.3  3.2415 0.00

 *** Table generated with PUMAS v1.00 ***

      T         p     Ionization  brems     pair     photonuc  Radloss    dE/dx   CSDA Range  delta   beta
    [MeV]    [MeV/c]  -----------------------[MeV cm^2/g]------------------------  [g/cm^2]
  1.000E+05 1.018E+05 2.389E+00 1.257E-04 1.954E-03 8.407E-03 1.049E-02 2.399E+00 2.084E+04  4.9299 0.99985
  1.122E+05 1.140E+05 2.409E+00 1.451E-04 2.362E-03 9.499E-03 1.201E-02 2.421E+00 2.590E+04  5.1432 0.99988
  1.259E+05 1.277E+05 2.430E+00 1.676E-04 2.844E-03 1.068E-02 1.369E-02 2.444E+00 3.153E+04  5.3585 0.99990
  1.413E+05 1.430E+05 2.450E+00 1.933E-04 3.412E-03 1.200E-02 1.561E-02 2.466E+00 3.779E+04  5.5758 0.99992
  1.585E+05 1.603E+05 2.471E+00 2.230E-04 4.080E-03 1.349E-02 1.779E-02 2.488E+00 4.475E+04  5.7948 0.99994
  1.778E+05 1.796E+05 2.491E+00 2.571E-04 4.865E-03 1.514E-02 2.027E-02 2.511E+00 5.248E+04  6.0155 0.99995
  1.995E+05 2.013E+05 2.511E+00 2.963E-04 5.784E-03 1.704E-02 2.312E-02 2.534E+00 6.108E+04  6.2376 0.99996
  2.239E+05 2.256E+05 2.531E+00 3.413E-04 6.859E-03 1.911E-02 2.631E-02 2.558E+00 7.065E+04  6.4611 0.99997
  2.512E+05 2.530E+05 2.552E+00 3.929E-04 8.114E-03 2.143E-02 2.994E-02 2.581E+00 8.128E+04  6.6857 0.99998
  2.818E+05 2.836E+05 2.572E+00 4.522E-04 9.576E-03 2.405E-02 3.408E-02 2.606E+00 9.309E+04  6.9113 0.99998
  3.162E+05 3.180E+05 2.592E+00 5.203E-04 1.128E-02 2.701E-02 3.880E-02 2.630E+00 1.062E+05  7.1378 0.99998
  3.548E+05 3.566E+05 2.611E+00 5.983E-04 1.325E-02 3.033E-02 4.418E-02 2.656E+00 1.208E+05  7.3651 0.99999
  3.981E+05 3.999E+05 2.631E+00 6.878E-04 1.554E-02 3.404E-02 5.027E-02 2.682E+00 1.371E+05  7.5930 0.99999
  4.467E+05 4.485E+05 2.651E+00 7.904E-04 1.819E-02 3.821E-02 5.719E-02 2.708E+00 1.551E+05  7.8215 0.99999
  5.012E+05 5.030E+05 2.671E+00 9.079E-04 2.125E-02 4.290E-02 6.506E-02 2.736E+00 1.751E+05  8.0503 0.99999
  5.623E+05 5.641E+05 2.691E+00 1.043E-03 2.479E-02 4.798E-02 7.381E-02 2.764E+00 1.973E+05  8.2795 1.00000
  6.310E+05 6.327E+05 2.710E+00 1.197E-03 2.887E-02 5.372E-02 8.378E-02 2.794E+00 2.220E+05  8.5090 1.00000
  7.079E+05 7.097E+05 2.730E+00 1.373E-03 3.356E-02 6.019E-02 9.512E-02 2.825E+00 2.494E+05  8.7386 1.00000
  7.943E+05 7.961E+05 2.749E+00 1.575E-03 3.896E-02 6.750E-02 1.080E-01 2.857E+00 2.798E+05  8.9683 1.00000
  8.913E+05 8.930E+05 2.769E+00 1.807E-03 4.517E-02 7.577E-02 1.227E-01 2.891E+00 3.136E+05  9.1981 1.00000
  1.000E+06 1.002E+06 2.788E+00 2.072E-03 5.229E-02 8.512E-02 1.395E-01 2.927E+00 3.509E+05  9.4279 1.00000
  1.122E+06 1.124E+06 2.807E+00 2.374E-03 6.045E-02 9.571E-02 1.585E-01 2.966E+00 3.924E+05  9.6578 1.00000
  1.259E+06 1.261E+06 2.826E+00 2.721E-03 6.980E-02 1.077E-01 1.802E-01 3.006E+00 4.382E+05  9.8877 1.00000
  1.413E+06 1.414E+06 2.845E+00 3.117E-03 8.049E-02 1.213E-01 2.049E-01 3.050E+00 4.889E+05 10.1176 1.00000
  1.585E+06 1.587E+06 2.864E+00 3.569E-03 9.271E-02 1.367E-01 2.330E-01 3.097E+00 5.450E+05 10.3476 1.00000
  1.778E+06 1.780E+06 2.883E+00 4.087E-03 1.067E-01 1.542E-01 2.650E-01 3.148E+00 6.070E+05 10.5776 1.00000
  1.995E+06 1.997E+06 2.901E+00 4.678E-03 1.226E-01 1.741E-01 3.013E-01 3.203E+00 6.753E+05 10.8077 1.00000
  2.239E+06 2.240E+06 2.920E+00 5.354E-03 1.407E-01 1.966E-01 3.427E-01 3.262E+00 7.506E+05 11.0378 1.00000
  2.512E+06 2.514E+06 2.938E+00 6.125E-03 1.613E-01 2.223E-01 3.897E-01 3.328E+00 8.335E+05 11.2678 1.00000
  2.818E+06 2.820E+06 2.956E+00 7.006E-03 1.848E-01 2.514E-01 4.432E-01 3.399E+00 9.247E+05 11.4979 1.00000
  3.162E+06 3.164E+06 2.974E+00 8.012E-03 2.115E-01 2.846E-01 5.041E-01 3.478E+00 1.025E+06 11.7281 1.00000
  3.548E+06 3.550E+06 2.992E+00 9.160E-03 2.417E-01 3.223E-01 5.732E-01 3.565E+00 1.134E+06 11.9582 1.00000
  3.981E+06 3.983E+06 3.010E+00 1.047E-02 2.761E-01 3.652E-01 6.518E-01 3.661E+00 1.254E+06 12.1884 1.00000
  4.467E+06 4.469E+06 3.027E+00 1.196E-02 3.151E-01 4.140E-01 7.411E-01 3.768E+00 1.385E+06 12.4185 1.00000
  5.012E+06 5.014E+06 3.044E+00 1.367E-02 3.592E-01 4.696E-01 8.425E-01 3.887E+00 1.527E+06 12.6487 1.00000
  5.623E+06 5.625E+06 3.061E+00 1.561E-02 4.092E-01 5.329E-01 9.578E-01 4.019E+00 1.682E+06 12.8789 1.00000
  6.310E+06 6.311E+06 3.078E+00 1.783E-02 4.658E-01 6.050E-01 1.089E+00 4.167E+00 1.850E+06 13.1091 1.00000
  7.079E+06 7.081E+06 3.095E+00 2.035E-02 5.298E-01 6.871E-01 1.237E+00 4.332E+00 2.031E+06 13.3393 1.00000
  7.943E+06 7.945E+06 3.112E+00 2.323E-02 6.022E-01 7.807E-01 1.406E+00 4.518E+00 2.226E+06 13.5695 1.00000
  8.913E+06 8.914E+06 3.128E+00 2.650E-02 6.839E-01 8.874E-01 1.598E+00 4.726E+00 2.436E+06 13.7997 1.00000
  1.000E+07 1.000E+07 3.144E+00 3.023E-02 7.762E-01 1.009E+00 1.815E+00 4.960E+00 2.661E+06 14.0299 1.00000
  1.122E+07 1.122E+07 3.161E+00 3.448E-02 8.804E-01 1.148E+00 2.062E+00 5.223E+00 2.901E+06 14.2601 1.00000
  1.259E+07 1.259E+07 3.177E+00 3.931E-02 9.979E-01 1.306E+00 2.343E+00 5.519E+00 3.156E+06 14.4903 1.00000
  1.413E+07 1.413E+07 3.192E+00 4.481E-02 1.130E+00 1.486E+00 2.661E+00 5.853E+00 3.426E+06 14.7206 1.00000
  1.585E+07 1.585E+07 3.208E+00 5.106E-02 1.280E+00 1.691E+00 3.022E+00 6.230E+00 3.712E+06 14.9508 1.00000
  1.778E+07 1.778E+07 3.224E+00 5.816E-02 1.448E+00 1.926E+00 3.432E+00 6.656E+00 4.012E+06 15.1810 1.00000
  1.995E+07 1.995E+07 3.239E+00 6.624E-02 1.638E+00 2.193E+00 3.897E+00 7.136E+00 4.327E+06 15.4113 1.00000
  2.239E+07 2.239E+07 3.255E+00 7.542E-02 1.851E+00 2.498E+00 4.425E+00 7.680E+00 4.656E+06 15.6415 1.00000
  2.512E+07 2.512E+07 3.270E+00 8.585E-02 2.092E+00 2.846E+00 5.024E+00 8.294E+00 4.999E+06 15.8717 1.00000
  2.818E+07 2.819E+07 3.285E+00 9.769E-02 2.362E+00 3.244E+00 5.703E+00 8.989E+00 5.354E+06 16.1020 1.00000
  3.162E+07 3.162E+07 3.301E+00 1.111E-01 2.667E+00 3.697E+00 6.474E+00 9.775E+00 5.721E+06 16.3322 1.00000
  3.548E+07 3.548E+07 3.316E+00 1.264E-01 3.009E+00 4.214E+00 7.349E+00 1.067E+01 6.099E+06 16.5625 1.00000
  3.981E+07 3.981E+07 3.331E+00 1.437E-01 3.394E+00 4.804E+00 8.342E+00 1.167E+01 6.488E+06 16.7927 1.00000
  4.467E+07 4.467E+07 3.346E+00 1.633E-01 3.827E+00 5.478E+00 9.469E+00 1.281E+01 6.885E+06 17.0230 1.00000
  5.012E+07 5.012E+07 3.361E+00 1.856E-01 4.314E+00 6.248E+00 1.075E+01 1.411E+01 7.291E+06 17.2532 1.00000
  5.623E+07 5.624E+07 3.376E+00 2.108E-01 4.860E+00 7.126E+00 1.220E+01 1.557E+01 7.704E+06 17.4835 1.00000
  6.310E+07 6.310E+07 3.391E+00 2.394E-01 5.475E+00 8.128E+00 1.384E+01 1.723E+01 8.124E+06 17.7137 1.00000
  7.079E+07 7.080E+07 3.406E+00 2.718E-01 6.166E+00 9.273E+00 1.571E+01 1.912E+01 8.548E+06 17.9440 1.00000
  7.943E+07 7.943E+07 3.422E+00 3.085E-01 6.942E+00 1.058E+01 1.783E+01 2.125E+01 8.978E+06 18.1742 1.00000
  8.913E+07 8.913E+07 3.437E+00 3.501E-01 7.813E+00 1.207E+01 2.024E+01 2.367E+01 9.410E+06 18.4045 1.00000
  1.000E+08 1.000E+08 3.452E+00 3.971E-01 8.792E+00 1.378E+01 2.297E+01 2.642E+01 9.846E+06 18.6347 1.00000
  1.122E+08 1.122E+08 3.467E+00 4.502E-01 9.892E+00 1.572E+01 2.607E+01 2.953E+01 1.028E+07 18.8650 1.00000
  1.259E+08 1.259E+08 3.482E+00 5.104E-01 1.113E+01 1.795E+01 2.958E+01 3.307E+01 1.072E+07 19.0952 1.00000
  1.413E+08 1.413E+08 3.498E+00 5.785E-01 1.251E+01 2.049E+01 3.358E+01 3.707E+01 1.116E+07 19.3255 1.00000
  1.585E+08 1.585E+08 3.513E+00 6.554E-01 1.407E+01 2.339E+01 3.811E+01 4.162E+01 1.160E+07 19.5558 1.00000
  1.778E+08 1.778E+08 3.528E+00 7.424E-01 1.582E+01 2.670E+01 4.326E+01 4.679E+01 1.204E+07 19.7860 1.00000
  1.995E+08 1.995E+08 3.544E+00 8.406E-01 1.778E+01 3.048E+01 4.910E+01 5.265E+01 1.248E+07 20.0163 1.00000
  2.239E+08 2.239E+08 3.559E+00 9.516E-01 1.998E+01 3.481E+01 5.574E+01 5.930E+01 1.291E+07 20.2465 1.00000
  2.512E+08 2.512E+08 3.575E+00 1.077E+00 2.245E+01 3.975E+01 6.328E+01 6.685E+01 1.335E+07 20.4768 1.00000
  2.818E+08 2.818E+08 3.591E+00 1.218E+00 2.523E+01 4.539E+01 7.184E+01 7.543E+01 1.378E+07 20.7070 1.00000
  3.162E+08 3.162E+08 3.606E+00 1.378E+00 2.834E+01 5.184E+01 8.156E+01 8.517E+01 1.421E+07 20.9373 1.00000
  3.548E+08 3.548E+08 3.622E+00 1.558E+00 3.184E+01 5.921E+01 9.261E+01 9.623E+01 1.464E+07 21.1676 1.00000
  3.981E+08 3.981E+08 3.638E+00 1.762E+00 3.576E+01 6.763E+01 1.052E+02 1.088E+02 1.506E+07 21.3978 1.00000
  4.467E+08 4.467E+08 3.654E+00 1.991E+00 4.016E+01 7.725E+01 1.194E+02 1.231E+02 1.548E+07 21.6281 1.00000
  5.012E+08 5.012E+08 3.670E+00 2.249E+00 4.511E+01 8.825E+01 1.356E+02 1.393E+02 1.590E+07 21.8583 1.00000
  5.623E+08 5.623E+08 3.686E+00 2.541E+00 5.065E+01 1.008E+02 1.540E+02 1.577E+02 1.631E+07 22.0886 1.00000
  6.310E+08 6.310E+08 3.702E+00 2.869E+00 5.688E+01 1.152E+02 1.749E+02 1.786E+02 1.672E+07 22.3188 1.00000
  7.079E+08 7.079E+08 3.718E+00 3.239E+00 6.386E+01 1.316E+02 1.987E+02 2.024E+02 1.713E+07 22.5491 1.00000
  7.943E+08 7.943E+08 3.735E+00 3.656E+00 7.170E+01 1.504E+02 2.257E+02 2.295E+02 1.753E+07 22.7794 1.00000
  8.913E+08 8.913E+08 3.751E+00 4.126E+00 8.049E+01 1.718E+02 2.565E+02 2.602E+02 1.793E+07 23.0096 1.00000
  1.000E+09 1.000E+09 3.768E+00 4.655E+00 9.036E+01 1.964E+02 2.914E+02 2.952E+02 1.832E+07 23.2399 1.00000
  1.122E+09 1.122E+09 3.784E+00 5.250E+00 1.014E+02 2.244E+02 3.311E+02 3.349E+02 1.871E+07 23.4701 1.00000
  1.259E+09 1.259E+09 3.801E+00 5.920E+00 1.139E+02 2.565E+02 3.763E+02 3.801E+02 1.909E+07 23.7004 1.00000
  1.413E+09 1.413E+09 3.818E+00 6.675E+00 1.278E+02 2.932E+02 4.276E+02 4.315E+02 1.947E+07 23.9306 1.00000
  1.585E+09 1.585E+09 3.834E+00 7.524E+00 1.435E+02 3.351E+02 4.861E+02 4.899E+02 1.985E+07 24.1609 1.00000
  1.778E+09 1.778E+09 3.851E+00 8.478E+00 1.610E+02 3.830E+02 5.525E+02 5.564E+02 2.022E+07 24.3912 1.00000
  1.995E+09 1.995E+09 3.868E+00 9.552E+00 1.807E+02 4.379E+02 6.281E+02 6.320E+02 2.059E+07 24.6214 1.00000
  2.239E+09 2.239E+09 3.886E+00 1.076E+01 2.028E+02 5.006E+02 7.141E+02 7.180E+02 2.095E+07 24.8517 1.00000
  2.512E+09 2.512E+09 3.903E+00 1.212E+01 2.276E+02 5.723E+02 8.120E+02 8.159E+02 2.131E+07 25.0819 1.00000
  2.818E+09 2.818E+09 3.920E+00 1.365E+01 2.555E+02 6.543E+02 9.234E+02 9.273E+02 2.166E+07 25.3122 1.00000
  3.162E+09 3.162E+09 3.937E+00 1.536E+01 2.867E+02 7.481E+02 1.050E+03 1.054E+03 2.201E+07 25.5425 1.00000
  3.548E+09 3.548E+09 3.955E+00 1.729E+01 3.217E+02 8.554E+02 1.194E+03 1.198E+03 2.235E+07 25.7727 1.00000
  3.981E+09 3.981E+09 3.973E+00 1.946E+01 3.610E+02 9.782E+02 1.359E+03 1.363E+03 2.269E+07 26.0030 1.00000
  4.467E+09 4.467E+09 3.990E+00 2.190E+01 4.051E+02 1.119E+03 1.546E+03 1.550E+03 2.303E+07 26.2332 1.00000
  5.012E+09 5.012E+09 4.008E+00 2.464E+01 4.546E+02 1.279E+03 1.759E+03 1.763E+03 2.336E+07 26.4635 1.00000
  5.623E+09 5.623E+09 4.026E+00 2.772E+01 5.102E+02 1.463E+03 2.001E+03 2.005E+03 2.368E+07 26.6937 1.00000
  6.310E+09 6.310E+09 4.044E+00 3.117E+01 5.725E+02 1.673E+03 2.277E+03 2.281E+03 2.401E+07 26.9240 1.00000
  7.079E+09 7.079E+09 4.062E+00 3.506E+01 6.424E+02 1.914E+03 2.592E+03 2.596E+03 2.432E+07 27.1543 1.00000
  7.943E+09 7.943E+09 4.080E+00 3.942E+01 7.209E+02 2.189E+03 2.950E+03 2.954E+03 2.464E+07 27.3845 1.00000
  8.913E+09 8.913E+09 4.099E+00 4.432E+01 8.089E+02 2.505E+03 3.358E+03 3.362E+03 2.494E+07 27.6148 1.00000
  1.000E+10 1.000E+10 4.117E+00 4.982E+01 9.076E+02 2.865E+03 3.823E+03 3.827E+03 2.525E+07 27.8450 1.00000
  1.122E+10 1.122E+10 4.136E+00 5.600E+01 1.018E+03 3.278E+03 4.352E+03 4.356E+03 2.555E+07 28.0753 1.00000
  1.259E+10 1.259E+10 4.154E+00 6.294E+01 1.143E+03 3.750E+03 4.956E+03 4.960E+03 2.584E+07 28.3056 1.00000
  1.413E+10 1.413E+10 4.173E+00 7.073E+01 1.282E+03 4.291E+03 5.644E+03 5.648E+03 2.613E+07 28.5358 1.00000
  1.585E+10 1.585E+10 4.192E+00 7.948E+01 1.439E+03 4.910E+03 6.428E+03 6.432E+03 2.642E+07 28.7661 1.00000
  1.778E+10 1.778E+10 4.211E+00 8.930E+01 1.614E+03 5.618E+03 7.322E+03 7.326E+03 2.670E+07 28.9963 1.00000
  1.995E+10 1.995E+10 4.230E+00 1.003E+02 1.811E+03 6.429E+03 8.341E+03 8.345E+03 2.698E+07 29.2266 1.00000
  2.239E+10 2.239E+10 4.249E+00 1.127E+02 2.032E+03 7.358E+03 9.503E+03 9.507E+03 2.725E+07 29.4569 1.00000
  2.512E+10 2.512E+10 4.268E+00 1.266E+02 2.280E+03 8.421E+03 1.083E+04 1.083E+04 2.752E+07 29.6871 1.00000
  2.818E+10 2.818E+10 4.288E+00 1.422E+02 2.559E+03 9.638E+03 1.234E+04 1.234E+04 2.779E+07 29.9174 1.00000
  3.162E+10 3.162E+10 4.307E+00 1.597E+02 2.871E+03 1.103E+04 1.406E+04 1.407E+04 2.805E+07 30.1476 1.00000
  3.548E+10 3.548E+10 4.327E+00 1.794E+02 3.221E+03 1.263E+04 1.603E+04 1.603E+04 2.831E+07 30.3779 1.00000
  3.981E+10 3.981E+10 4.346E+00 2.014E+02 3.614E+03 1.445E+04 1.827E+04 1.827E+04 2.856E+07 30.6081 1.00000
  4.467E+10 4.467E+10 4.366E+00 2.262E+02 4.055E+03 1.655E+04 2.083E+04 2.083E+04 2.881E+07 30.8384 1.00000
  5.012E+10 5.012E+10 4.386E+00 2.539E+02 4.550E+03 1.894E+04 2.375E+04 2.375E+04 2.906E+07 31.0687 1.00000
  5.623E+10 5.623E+10 4.406E+00 2.851E+02 5.105E+03 2.169E+04 2.708E+04 2.708E+04 2.930E+07 31.2989 1.00000
  6.310E+10 6.310E+10 4.426E+00 3.201E+02 5.728E+03 2.483E+04 3.088E+04 3.088E+04 2.954E+07 31.5292 1.00000
  7.079E+10 7.079E+10 4.447E+00 3.594E+02 6.427E+03 2.843E+04 3.522E+04 3.522E+04 2.977E+07 31.7594 1.00000
  7.943E+10 7.943E+10 4.467E+00 4.034E+02 7.211E+03 3.256E+04 4.017E+04 4.017E+04 3.000E+07 31.9897 1.00000
  8.913E+10 8.913E+10 4.487E+00 4.529E+02 8.091E+03 3.728E+04 4.582E+04 4.583E+04 3.023E+07 32.2200 1.00000
  1.000E+11 1.000E+11 4.508E+00 5.084E+02 9.078E+03 4.269E+04 5.228E+04 5.228E+04 3.045E+07 32.4502 1.00000
  1.122E+11 1.122E+11 4.529E+00 5.707E+02 1.019E+04 4.889E+04 5.965E+04 5.965E+04 3.067E+07 32.6805 1.00000
  1.259E+11 1.259E+11 4.550E+00 6.405E+02 1.143E+04 5.600E+04 6.807E+04 6.807E+04 3.088E+07 32.9107 1.00000
  1.413E+11 1.413E+11 4.571E+00 7.189E+02 1.282E+04 6.414E+04 7.768E+04 7.768E+04 3.110E+07 33.1410 1.00000
  1.585E+11 1.585E+11 4.592E+00 8.069E+02 1.439E+04 7.346E+04 8.866E+04 8.866E+04 3.130E+07 33.3712 1.00000
  1.778E+11 1.778E+11 4.613E+00 9.057E+02 1.614E+04 8.415E+04 1.012E+05 1.012E+05 3.151E+07 33.6015 1.00000
  1.995E+11 1.995E+11 4.634E+00 1.016E+03 1.811E+04 9.640E+04 1.155E+05 1.155E+05 3.171E+07 33.8318 1.00000
  2.239E+11 2.239E+11 4.656E+00 1.141E+03 2.032E+04 1.104E+05 1.319E+05 1.319E+05 3.191E+07 34.0620 1.00000
  2.512E+11 2.512E+11 4.677E+00 1.280E+03 2.280E+04 1.265E+05 1.506E+05 1.506E+05 3.210E+07 34.2923 1.00000
  2.818E+11 2.818E+11 4.699E+00 1.437E+03 2.558E+04 1.450E+05 1.720E+05 1.720E+05 3.229E+07 34.5225 1.00000
  3.162E+11 3.162E+11 4.721E+00 1.612E+03 2.870E+04 1.661E+05 1.964E+05 1.964E+05 3.248E+07 34.7528 1.00000
  3.548E+11 3.548E+11 4.743E+00 1.809E+03 3.220E+04 1.903E+05 2.243E+05 2.243E+05 3.266E+07 34.9831 1.00000
  3.981E+11 3.981E+11 4.765E+00 2.031E+03 3.613E+04 2.181E+05 2.562E+05 2.562E+05 3.284E+07 35.2133 1.00000
  4.467E+11 4.467E+11 4.787E+00 2.279E+03 4.054E+04 2.499E+05 2.927E+05 2.927E+05 3.302E+07 35.4436 1.00000
  5.012E+11 5.012E+11 4.809E+00 2.557E+03 4.548E+04 2.864E+05 3.344E+05 3.344E+05 3.320E+07 35.6738 1.00000
  5.623E+11 5.623E+11 4.831E+00 2.869E+03 5.103E+04 3.282E+05 3.821E+05 3.821E+05 3.337E+07 35.9041 1.00000
  6.310E+11 6.310E+11 4.854E+00 3.220E+03 5.726E+04 3.762E+05 4.367E+05 4.367E+05 3.354E+07 36.1343 1.00000
  7.079E+11 7.079E+11 4.877E+00 3.613E+03 6.424E+04 4.312E+05 4.991E+05 4.991E+05 3.370E+07 36.3646 1.00000
  7.943E+11 7.943E+11 4.899E+00 4.054E+03 7.208E+04 4.943E+05 5.704E+05 5.704E+05 3.386E+07 36.5949 1.00000
  8.913E+11 8.913E+11 4.922E+00 4.550E+03 8.087E+04 5.666E+05 6.520E+05 6.520E+05 3.402E+07 36.8251 1.00000
  1.000E+12 1.000E+12 4.945E+00 5.105E+03 9.073E+04 6.495E+05 7.454E+05 7.454E+05 3.418E+07 37.0554 1.00000
  1.122E+12 1.122E+12 4.969E+00 5.728E+03 1.018E+05 7.446E+05 8.522E+05 8.522E+05 3.433E+07 37.2856 1.00000
  1.259E+12 1.259E+12 4.992E+00 6.428E+03 1.142E+05 8.537E+05 9.743E+05 9.744E+05 3.448E+07 37.5159 1.00000
  1.413E+12 1.413E+12 5.015E+00 7.213E+03 1.281E+05 9.788E+05 1.114E+06 1.114E+06 3.463E+07 37.7462 1.00000
  1.585E+12 1.585E+12 5.039E+00 8.093E+03 1.438E+05 1.122E+06 1.274E+06 1.274E+06 3.478E+07 37.9764 1.00000
  1.778E+12 1.778E+12 5.063E+00 9.081E+03 1.613E+05 1.287E+06 1.457E+06 1.457E+06 3.492E+07 38.2067 1.00000
  1.995E+12 1.995E+12 5.086E+00 1.019E+04 1.810E+05 1.476E+06 1.667E+06 1.667E+06 3.506E+07 38.4369 1.00000
  2.239E+12 2.239E+12 5.110E+00 1.143E+04 2.031E+05 1.692E+06 1.907E+06 1.907E+06 3.520E+07 38.6672 1.00000
  2.512E+12 2.512E+12 5.134E+00 1.283E+04 2.278E+05 1.941E+06 2.181E+06 2.181E+06 3.533E+07 38.8974 1.00000
  2.818E+12 2.818E+12 5.159E+00 1.439E+04 2.556E+05 2.226E+06 2.496E+06 2.496E+06 3.546E+07 39.1277 1.00000
  3.162E+12 3.162E+12 5.183E+00 1.615E+04 2.868E+05 2.553E+06 2.856E+06 2.856E+06 3.559E+07 39.3580 1.00000
  3.548E+12 3.548E+12 5.208E+00 1.812E+04 3.218E+05 2.928E+06 3.268E+06 3.268E+06 3.572E+07 39.5882 1.00000
  3.981E+12 3.981E+12 5.232E+00 2.033E+04 3.610E+05 3.359E+06 3.740E+06 3.740E+06 3.584E+07 39.8185 1.00000
  4.467E+12 4.467E+12 5.257E+00 2.282E+04 4.051E+05 3.853E+06 4.281E+06 4.281E+06 3.596E+07 40.0487 1.00000
  5.012E+12 5.012E+12 5.282E+00 2.560E+04 4.545E+05 4.420E+06 4.900E+06 4.900E+06 3.608E+07 40.2790 1.00000
  5.623E+12 5.623E+12 5.307E+00 2.872E+04 5.099E+05 5.071E+06 5.610E+06 5.610E+06 3.620E+07 40.5093 1.00000
  6.310E+12 6.310E+12 5.332E+00 3.223E+04 5.721E+05 5.818E+06 6.422E+06 6.422E+06 3.631E+07 40.7395 1.00000
  7.079E+12 7.079E+12 5.357E+00 3.616E+04 6.419E+05 6.675E+06 7.353E+06 7.353E+06 3.643E+07 40.9698 1.00000
  7.943E+12 7.943E+12 5.383E+00 4.058E+04 7.202E+05 7.659E+06 8.420E+06 8.420E+06 3.654E+07 41.2000 1.00000
  8.913E+12 8.913E+12 5.408E+00 4.553E+04 8.080E+05 8.789E+06 9.642E+06 9.642E+06 3.664E+07 41.4303 1.00000
  1.000E+13 1.000E+13 5.434E+00 5.108E+04 9.065E+05 1.009E+07 1.104E+07 1.104E+07 3.675E+07 41.6606 1.00000
  1.122E+13 1.122E+13 5.460E+00 5.732E+04 1.017E+06 1.157E+07 1.265E+07 1.265E+07 3.685E+07 41.8908 1.00000
  1.259E+13 1.259E+13 5.486E+00 6.431E+04 1.141E+06 1.328E+07 1.449E+07 1.449E+07 3.695E+07 42.1211 1.00000
  1.413E+13 1.413E+13 5.512E+00 7.216E+04 1.280E+06 1.524E+07 1.660E+07 1.660E+07 3.705E+07 42.3513 1.00000
  1.585E+13 1.585E+13 5.538E+00 8.096E+04 1.436E+06 1.750E+07 1.901E+07 1.901E+07 3.715E+07 42.5816 1.00000
  1.778E+13 1.778E+13 5.565E+00 9.084E+04 1.612E+06 2.008E+07 2.178E+07 2.178E+07 3.725E+07 42.8118 1.00000
  1.995E+13 1.995E+13 5.591E+00 1.019E+05 1.808E+06 2.305E+07 2.496E+07 2.496E+07 3.734E+07 43.0421 1.00000
  2.239E+13 2.239E+13 5.618E+00 1.144E+05 2.029E+06 2.646E+07 2.860E+07 2.860E+07 3.743E+07 43.2724 1.00000
  2.512E+13 2.512E+13 5.645E+00 1.283E+05 2.276E+06 3.038E+07 3.278E+07 3.278E+07 3.752E+07 43.5026 1.00000
  2.818E+13 2.818E+13 5.672E+00 1.440E+05 2.554E+06 3.487E+07 3.757E+07 3.757E+07 3.761E+07 43.7329 1.00000
  3.162E+13 3.162E+13 5.699E+00 1.615E+05 2.865E+06 4.003E+07 4.306E+07 4.306E+07 3.769E+07 43.9631 1.00000
  3.548E+13 3.548E+13 5.726E+00 1.813E+05 3.215E+06 4.596E+07 4.936E+07 4.936E+07 3.778E+07 44.1934 1.00000
  3.981E+13 3.981E+13 5.754E+00 2.034E+05 3.607E+06 5.278E+07 5.659E+07 5.659E+07 3.786E+07 44.4237 1.00000
  4.467E+13 4.467E+13 5.782E+00 2.282E+05 4.047E+06 6.060E+07 6.487E+07 6.487E+07 3.794E+07 44.6539 1.00000
  5.012E+13 5.012E+13 5.809E+00 2.560E+05 4.540E+06 6.959E+07 7.438E+07 7.438E+07 3.802E+07 44.8842 1.00000
  5.623E+13 5.623E+13 5.837E+00 2.873E+05 5.094E+06 7.991E+07 8.529E+07 8.529E+07 3.810E+07 45.1144 1.00000
  6.310E+13 6.310E+13 5.865E+00 3.223E+05 5.715E+06 9.177E+07 9.780E+07 9.780E+07 3.817E+07 45.3447 1.00000
  7.079E+13 7.079E+13 5.893E+00 3.617E+05 6.412E+06 1.054E+08 1.122E+08 1.122E+08 3.824E+07 45.5749 1.00000
  7.943E+13 7.943E+13 5.922E+00 4.058E+05 7.194E+06 1.210E+08 1.286E+08 1.286E+08 3.832E+07 45.8052 1.00000
  8.913E+13 8.913E+13 5.950E+00 4.553E+05 8.071E+06 1.390E+08 1.475E+08 1.475E+08 3.839E+07 46.0355 1.00000
