 Incident particle is a Tau with M = 1776.82000 MeV
 Index = 0: Ethylene
      Absorber with <Z/A> = 0.57023
 Sternheimer coef:  a     k=m_s   x_0    x_1    I[eV]   Cbar  delta0
                 0.1064  3.5387  1.5528  3.9327   50.7  9.4380 0.00

 *** Table generated with PUMAS v1.00 ***

      T         p     Ionization  brems     pair     photonuc  Radloss    dE/dx   CSDA Range  delta   beta
    [MeV]    [MeV/c]  -----------------------[MeV cm^2/g]------------------------  [g/cm^2]
  1.000E+05 1.018E+05 2.962E+00 1.098E-04 1.708E-03 8.481E-03 1.030E-02 2.973E+00 1.682E+04  0.3208 0.99985
  1.122E+05 1.140E+05 2.994E+00 1.268E-04 2.069E-03 9.588E-03 1.178E-02 3.006E+00 2.090E+04  0.4180 0.99988
  1.259E+05 1.277E+05 3.025E+00 1.464E-04 2.495E-03 1.078E-02 1.342E-02 3.039E+00 2.543E+04  0.5227 0.99990
  1.413E+05 1.430E+05 3.056E+00 1.689E-04 2.998E-03 1.213E-02 1.529E-02 3.071E+00 3.046E+04  0.6348 0.99992
  1.585E+05 1.603E+05 3.086E+00 1.947E-04 3.590E-03 1.363E-02 1.742E-02 3.103E+00 3.604E+04  0.7539 0.99994
  1.778E+05 1.796E+05 3.116E+00 2.245E-04 4.285E-03 1.532E-02 1.983E-02 3.135E+00 4.224E+04  0.8799 0.99995
  1.995E+05 2.013E+05 3.145E+00 2.586E-04 5.100E-03 1.724E-02 2.260E-02 3.167E+00 4.913E+04  1.0125 0.99996
  2.239E+05 2.256E+05 3.173E+00 2.979E-04 6.054E-03 1.935E-02 2.570E-02 3.199E+00 5.678E+04  1.1513 0.99997
  2.512E+05 2.530E+05 3.201E+00 3.430E-04 7.167E-03 2.171E-02 2.922E-02 3.230E+00 6.527E+04  1.2963 0.99998
  2.818E+05 2.836E+05 3.229E+00 3.947E-04 8.465E-03 2.438E-02 3.324E-02 3.262E+00 7.472E+04  1.4471 0.99998
  3.162E+05 3.180E+05 3.256E+00 4.541E-04 9.976E-03 2.739E-02 3.782E-02 3.294E+00 8.521E+04  1.6035 0.99998
  3.548E+05 3.566E+05 3.283E+00 5.221E-04 1.173E-02 3.078E-02 4.303E-02 3.326E+00 9.687E+04  1.7653 0.99999
  3.981E+05 3.999E+05 3.309E+00 6.002E-04 1.377E-02 3.456E-02 4.893E-02 3.358E+00 1.098E+05  1.9321 0.99999
  4.467E+05 4.485E+05 3.334E+00 6.897E-04 1.612E-02 3.881E-02 5.562E-02 3.390E+00 1.242E+05  2.1039 0.99999
  5.012E+05 5.030E+05 3.360E+00 7.923E-04 1.885E-02 4.359E-02 6.323E-02 3.423E+00 1.402E+05  2.2802 0.99999
  5.623E+05 5.641E+05 3.385E+00 9.099E-04 2.200E-02 4.878E-02 7.169E-02 3.456E+00 1.580E+05  2.4610 1.00000
  6.310E+05 6.327E+05 3.409E+00 1.045E-03 2.563E-02 5.463E-02 8.131E-02 3.490E+00 1.778E+05  2.6460 1.00000
  7.079E+05 7.097E+05 3.433E+00 1.199E-03 2.982E-02 6.124E-02 9.226E-02 3.525E+00 1.997E+05  2.8350 1.00000
  7.943E+05 7.961E+05 3.457E+00 1.375E-03 3.464E-02 6.871E-02 1.047E-01 3.561E+00 2.241E+05  3.0277 1.00000
  8.913E+05 8.930E+05 3.480E+00 1.578E-03 4.017E-02 7.715E-02 1.189E-01 3.599E+00 2.512E+05  3.2239 1.00000
  1.000E+06 1.002E+06 3.503E+00 1.809E-03 4.653E-02 8.671E-02 1.350E-01 3.638E+00 2.812E+05  3.4234 1.00000
  1.122E+06 1.124E+06 3.525E+00 2.074E-03 5.382E-02 9.753E-02 1.534E-01 3.679E+00 3.146E+05  3.6261 1.00000
  1.259E+06 1.261E+06 3.548E+00 2.377E-03 6.217E-02 1.098E-01 1.743E-01 3.722E+00 3.516E+05  3.8317 1.00000
  1.413E+06 1.414E+06 3.569E+00 2.723E-03 7.173E-02 1.237E-01 1.981E-01 3.767E+00 3.926E+05  4.0400 1.00000
  1.585E+06 1.587E+06 3.591E+00 3.120E-03 8.265E-02 1.395E-01 2.252E-01 3.816E+00 4.380E+05  4.2509 1.00000
  1.778E+06 1.780E+06 3.612E+00 3.573E-03 9.513E-02 1.574E-01 2.561E-01 3.868E+00 4.884E+05  4.4641 1.00000
  1.995E+06 1.997E+06 3.633E+00 4.091E-03 1.094E-01 1.777E-01 2.911E-01 3.924E+00 5.441E+05  4.6794 1.00000
  2.239E+06 2.240E+06 3.653E+00 4.684E-03 1.256E-01 2.008E-01 3.310E-01 3.984E+00 6.057E+05  4.8968 1.00000
  2.512E+06 2.514E+06 3.673E+00 5.361E-03 1.441E-01 2.270E-01 3.764E-01 4.050E+00 6.737E+05  5.1159 1.00000
  2.818E+06 2.820E+06 3.693E+00 6.134E-03 1.651E-01 2.568E-01 4.281E-01 4.121E+00 7.487E+05  5.3367 1.00000
  3.162E+06 3.164E+06 3.713E+00 7.017E-03 1.890E-01 2.907E-01 4.868E-01 4.199E+00 8.314E+05  5.5590 1.00000
  3.548E+06 3.550E+06 3.732E+00 8.026E-03 2.162E-01 3.293E-01 5.535E-01 4.285E+00 9.223E+05  5.7827 1.00000
  3.981E+06 3.983E+06 3.751E+00 9.177E-03 2.470E-01 3.732E-01 6.294E-01 4.380E+00 1.022E+06  6.0075 1.00000
  4.467E+06 4.469E+06 3.769E+00 1.049E-02 2.820E-01 4.232E-01 7.157E-01 4.485E+00 1.132E+06  6.2334 1.00000
  5.012E+06 5.014E+06 3.788E+00 1.199E-02 3.217E-01 4.801E-01 8.137E-01 4.602E+00 1.252E+06  6.4602 1.00000
  5.623E+06 5.625E+06 3.806E+00 1.370E-02 3.666E-01 5.449E-01 9.251E-01 4.731E+00 1.383E+06  6.6878 1.00000
  6.310E+06 6.311E+06 3.824E+00 1.565E-02 4.174E-01 6.187E-01 1.052E+00 4.876E+00 1.526E+06  6.9161 1.00000
  7.079E+06 7.081E+06 3.842E+00 1.788E-02 4.750E-01 7.027E-01 1.196E+00 5.037E+00 1.681E+06  7.1449 1.00000
  7.943E+06 7.945E+06 3.859E+00 2.041E-02 5.400E-01 7.986E-01 1.359E+00 5.218E+00 1.850E+06  7.3742 1.00000
  8.913E+06 8.914E+06 3.876E+00 2.330E-02 6.135E-01 9.077E-01 1.545E+00 5.421E+00 2.032E+06  7.6038 1.00000
  1.000E+07 1.000E+07 3.893E+00 2.660E-02 6.966E-01 1.032E+00 1.755E+00 5.649E+00 2.229E+06  7.8336 1.00000
  1.122E+07 1.122E+07 3.910E+00 3.035E-02 7.903E-01 1.174E+00 1.995E+00 5.905E+00 2.440E+06  8.0637 1.00000
  1.259E+07 1.259E+07 3.927E+00 3.461E-02 8.961E-01 1.336E+00 2.267E+00 6.194E+00 2.666E+06  8.2938 1.00000
  1.413E+07 1.413E+07 3.944E+00 3.947E-02 1.015E+00 1.520E+00 2.575E+00 6.519E+00 2.908E+06  8.5241 1.00000
  1.585E+07 1.585E+07 3.960E+00 4.500E-02 1.150E+00 1.731E+00 2.926E+00 6.886E+00 3.165E+06  8.7543 1.00000
  1.778E+07 1.778E+07 3.977E+00 5.129E-02 1.302E+00 1.971E+00 3.324E+00 7.300E+00 3.438E+06  8.9845 1.00000
  1.995E+07 1.995E+07 3.993E+00 5.844E-02 1.473E+00 2.245E+00 3.776E+00 7.768E+00 3.727E+06  9.2148 1.00000
  2.239E+07 2.239E+07 4.009E+00 6.658E-02 1.665E+00 2.557E+00 4.289E+00 8.298E+00 4.030E+06  9.4450 1.00000
  2.512E+07 2.512E+07 4.025E+00 7.582E-02 1.882E+00 2.913E+00 4.871E+00 8.896E+00 4.348E+06  9.6752 1.00000
  2.818E+07 2.819E+07 4.041E+00 8.632E-02 2.126E+00 3.320E+00 5.532E+00 9.573E+00 4.681E+06  9.9055 1.00000
  3.162E+07 3.162E+07 4.057E+00 9.824E-02 2.400E+00 3.784E+00 6.282E+00 1.034E+01 5.026E+06 10.1357 1.00000
  3.548E+07 3.548E+07 4.073E+00 1.118E-01 2.709E+00 4.314E+00 7.134E+00 1.121E+01 5.385E+06 10.3660 1.00000
  3.981E+07 3.981E+07 4.089E+00 1.272E-01 3.056E+00 4.918E+00 8.102E+00 1.219E+01 5.756E+06 10.5962 1.00000
  4.467E+07 4.467E+07 4.105E+00 1.446E-01 3.447E+00 5.608E+00 9.200E+00 1.330E+01 6.138E+06 10.8265 1.00000
  5.012E+07 5.012E+07 4.121E+00 1.644E-01 3.886E+00 6.396E+00 1.045E+01 1.457E+01 6.530E+06 11.0567 1.00000
  5.623E+07 5.624E+07 4.136E+00 1.868E-01 4.380E+00 7.295E+00 1.186E+01 1.600E+01 6.931E+06 11.2870 1.00000
  6.310E+07 6.310E+07 4.152E+00 2.122E-01 4.935E+00 8.321E+00 1.347E+01 1.762E+01 7.340E+06 11.5172 1.00000
  7.079E+07 7.080E+07 4.168E+00 2.411E-01 5.558E+00 9.493E+00 1.529E+01 1.946E+01 7.756E+06 11.7475 1.00000
  7.943E+07 7.943E+07 4.184E+00 2.737E-01 6.259E+00 1.083E+01 1.736E+01 2.155E+01 8.178E+06 11.9777 1.00000
  8.913E+07 8.913E+07 4.200E+00 3.107E-01 7.045E+00 1.236E+01 1.972E+01 2.392E+01 8.606E+06 12.2080 1.00000
  1.000E+08 1.000E+08 4.216E+00 3.526E-01 7.929E+00 1.410E+01 2.239E+01 2.660E+01 9.038E+06 12.4382 1.00000
  1.122E+08 1.122E+08 4.232E+00 4.000E-01 8.922E+00 1.610E+01 2.542E+01 2.965E+01 9.473E+06 12.6685 1.00000
  1.259E+08 1.259E+08 4.248E+00 4.537E-01 1.004E+01 1.837E+01 2.886E+01 3.311E+01 9.910E+06 12.8987 1.00000
  1.413E+08 1.413E+08 4.264E+00 5.144E-01 1.129E+01 2.097E+01 3.278E+01 3.704E+01 1.035E+07 13.1290 1.00000
  1.585E+08 1.585E+08 4.280E+00 5.831E-01 1.269E+01 2.394E+01 3.722E+01 4.150E+01 1.079E+07 13.3593 1.00000
  1.778E+08 1.778E+08 4.296E+00 6.607E-01 1.427E+01 2.734E+01 4.227E+01 4.656E+01 1.123E+07 13.5895 1.00000
  1.995E+08 1.995E+08 4.312E+00 7.485E-01 1.604E+01 3.121E+01 4.800E+01 5.232E+01 1.167E+07 13.8198 1.00000
  2.239E+08 2.239E+08 4.328E+00 8.476E-01 1.803E+01 3.564E+01 5.452E+01 5.885E+01 1.211E+07 14.0500 1.00000
  2.512E+08 2.512E+08 4.345E+00 9.597E-01 2.027E+01 4.070E+01 6.192E+01 6.627E+01 1.255E+07 14.2803 1.00000
  2.818E+08 2.818E+08 4.361E+00 1.086E+00 2.277E+01 4.647E+01 7.033E+01 7.469E+01 1.299E+07 14.5105 1.00000
  3.162E+08 3.162E+08 4.378E+00 1.229E+00 2.559E+01 5.308E+01 7.989E+01 8.427E+01 1.342E+07 14.7408 1.00000
  3.548E+08 3.548E+08 4.394E+00 1.390E+00 2.874E+01 6.062E+01 9.076E+01 9.515E+01 1.385E+07 14.9711 1.00000
  3.981E+08 3.981E+08 4.411E+00 1.572E+00 3.229E+01 6.924E+01 1.031E+02 1.075E+02 1.428E+07 15.2013 1.00000
  4.467E+08 4.467E+08 4.427E+00 1.778E+00 3.627E+01 7.910E+01 1.171E+02 1.216E+02 1.471E+07 15.4316 1.00000
  5.012E+08 5.012E+08 4.444E+00 2.009E+00 4.073E+01 9.036E+01 1.331E+02 1.375E+02 1.513E+07 15.6618 1.00000
  5.623E+08 5.623E+08 4.461E+00 2.270E+00 4.574E+01 1.032E+02 1.512E+02 1.557E+02 1.555E+07 15.8921 1.00000
  6.310E+08 6.310E+08 4.478E+00 2.564E+00 5.136E+01 1.179E+02 1.719E+02 1.763E+02 1.596E+07 16.1223 1.00000
  7.079E+08 7.079E+08 4.495E+00 2.896E+00 5.767E+01 1.348E+02 1.953E+02 1.998E+02 1.637E+07 16.3526 1.00000
  7.943E+08 7.943E+08 4.512E+00 3.270E+00 6.475E+01 1.540E+02 2.220E+02 2.265E+02 1.678E+07 16.5829 1.00000
  8.913E+08 8.913E+08 4.529E+00 3.692E+00 7.270E+01 1.759E+02 2.523E+02 2.569E+02 1.718E+07 16.8131 1.00000
  1.000E+09 1.000E+09 4.547E+00 4.166E+00 8.161E+01 2.011E+02 2.868E+02 2.914E+02 1.758E+07 17.0434 1.00000
  1.122E+09 1.122E+09 4.564E+00 4.700E+00 9.162E+01 2.298E+02 3.261E+02 3.307E+02 1.797E+07 17.2736 1.00000
  1.259E+09 1.259E+09 4.581E+00 5.302E+00 1.028E+02 2.626E+02 3.708E+02 3.753E+02 1.836E+07 17.5039 1.00000
  1.413E+09 1.413E+09 4.599E+00 5.980E+00 1.154E+02 3.002E+02 4.216E+02 4.262E+02 1.875E+07 17.7341 1.00000
  1.585E+09 1.585E+09 4.617E+00 6.742E+00 1.296E+02 3.431E+02 4.794E+02 4.840E+02 1.913E+07 17.9644 1.00000
  1.778E+09 1.778E+09 4.634E+00 7.600E+00 1.454E+02 3.922E+02 5.452E+02 5.498E+02 1.950E+07 18.1947 1.00000
  1.995E+09 1.995E+09 4.652E+00 8.565E+00 1.632E+02 4.483E+02 6.201E+02 6.248E+02 1.988E+07 18.4249 1.00000
  2.239E+09 2.239E+09 4.670E+00 9.651E+00 1.832E+02 5.125E+02 7.054E+02 7.100E+02 2.024E+07 18.6552 1.00000
  2.512E+09 2.512E+09 4.688E+00 1.087E+01 2.056E+02 5.859E+02 8.024E+02 8.071E+02 2.060E+07 18.8854 1.00000
  2.818E+09 2.818E+09 4.706E+00 1.225E+01 2.308E+02 6.699E+02 9.129E+02 9.176E+02 2.096E+07 19.1157 1.00000
  3.162E+09 3.162E+09 4.725E+00 1.379E+01 2.590E+02 7.660E+02 1.039E+03 1.043E+03 2.131E+07 19.3460 1.00000
  3.548E+09 3.548E+09 4.743E+00 1.553E+01 2.906E+02 8.758E+02 1.182E+03 1.187E+03 2.166E+07 19.5762 1.00000
  3.981E+09 3.981E+09 4.762E+00 1.748E+01 3.261E+02 1.002E+03 1.345E+03 1.350E+03 2.200E+07 19.8065 1.00000
  4.467E+09 4.467E+09 4.780E+00 1.967E+01 3.660E+02 1.145E+03 1.531E+03 1.536E+03 2.234E+07 20.0367 1.00000
  5.012E+09 5.012E+09 4.799E+00 2.214E+01 4.107E+02 1.310E+03 1.743E+03 1.747E+03 2.267E+07 20.2670 1.00000
  5.623E+09 5.623E+09 4.818E+00 2.491E+01 4.609E+02 1.498E+03 1.984E+03 1.989E+03 2.300E+07 20.4972 1.00000
  6.310E+09 6.310E+09 4.836E+00 2.802E+01 5.172E+02 1.713E+03 2.259E+03 2.263E+03 2.333E+07 20.7275 1.00000
  7.079E+09 7.079E+09 4.855E+00 3.152E+01 5.803E+02 1.960E+03 2.572E+03 2.576E+03 2.365E+07 20.9578 1.00000
  7.943E+09 7.943E+09 4.874E+00 3.544E+01 6.512E+02 2.242E+03 2.928E+03 2.933E+03 2.396E+07 21.1880 1.00000
  8.913E+09 8.913E+09 4.894E+00 3.986E+01 7.307E+02 2.564E+03 3.335E+03 3.340E+03 2.427E+07 21.4183 1.00000
  1.000E+10 1.000E+10 4.913E+00 4.481E+01 8.199E+02 2.934E+03 3.798E+03 3.803E+03 2.458E+07 21.6485 1.00000
  1.122E+10 1.122E+10 4.932E+00 5.038E+01 9.200E+02 3.356E+03 4.327E+03 4.332E+03 2.488E+07 21.8788 1.00000
  1.259E+10 1.259E+10 4.952E+00 5.663E+01 1.032E+03 3.840E+03 4.929E+03 4.934E+03 2.518E+07 22.1091 1.00000
  1.413E+10 1.413E+10 4.972E+00 6.365E+01 1.158E+03 4.393E+03 5.615E+03 5.620E+03 2.547E+07 22.3393 1.00000
  1.585E+10 1.585E+10 4.991E+00 7.153E+01 1.300E+03 5.027E+03 6.398E+03 6.403E+03 2.576E+07 22.5696 1.00000
  1.778E+10 1.778E+10 5.011E+00 8.038E+01 1.458E+03 5.752E+03 7.291E+03 7.296E+03 2.604E+07 22.7998 1.00000
  1.995E+10 1.995E+10 5.031E+00 9.031E+01 1.636E+03 6.583E+03 8.309E+03 8.314E+03 2.632E+07 23.0301 1.00000
  2.239E+10 2.239E+10 5.051E+00 1.015E+02 1.836E+03 7.533E+03 9.471E+03 9.476E+03 2.659E+07 23.2604 1.00000
  2.512E+10 2.512E+10 5.071E+00 1.140E+02 2.060E+03 8.622E+03 1.080E+04 1.080E+04 2.686E+07 23.4906 1.00000
  2.818E+10 2.818E+10 5.092E+00 1.280E+02 2.312E+03 9.868E+03 1.231E+04 1.231E+04 2.713E+07 23.7209 1.00000
  3.162E+10 3.162E+10 5.112E+00 1.438E+02 2.594E+03 1.129E+04 1.403E+04 1.404E+04 2.739E+07 23.9511 1.00000
  3.548E+10 3.548E+10 5.133E+00 1.615E+02 2.910E+03 1.293E+04 1.600E+04 1.601E+04 2.765E+07 24.1814 1.00000
  3.981E+10 3.981E+10 5.153E+00 1.814E+02 3.265E+03 1.480E+04 1.825E+04 1.825E+04 2.790E+07 24.4116 1.00000
  4.467E+10 4.467E+10 5.174E+00 2.037E+02 3.664E+03 1.694E+04 2.081E+04 2.081E+04 2.815E+07 24.6419 1.00000
  5.012E+10 5.012E+10 5.195E+00 2.288E+02 4.111E+03 1.939E+04 2.373E+04 2.374E+04 2.840E+07 24.8722 1.00000
  5.623E+10 5.623E+10 5.216E+00 2.569E+02 4.612E+03 2.220E+04 2.707E+04 2.708E+04 2.864E+07 25.1024 1.00000
  6.310E+10 6.310E+10 5.237E+00 2.884E+02 5.175E+03 2.542E+04 3.089E+04 3.089E+04 2.888E+07 25.3327 1.00000
  7.079E+10 7.079E+10 5.258E+00 3.238E+02 5.807E+03 2.911E+04 3.524E+04 3.525E+04 2.911E+07 25.5629 1.00000
  7.943E+10 7.943E+10 5.280E+00 3.635E+02 6.515E+03 3.333E+04 4.021E+04 4.022E+04 2.934E+07 25.7932 1.00000
  8.913E+10 8.913E+10 5.301E+00 4.081E+02 7.310E+03 3.817E+04 4.589E+04 4.589E+04 2.957E+07 26.0235 1.00000
  1.000E+11 1.000E+11 5.323E+00 4.581E+02 8.202E+03 4.371E+04 5.237E+04 5.238E+04 2.979E+07 26.2537 1.00000
  1.122E+11 1.122E+11 5.345E+00 5.143E+02 9.202E+03 5.006E+04 5.978E+04 5.978E+04 3.001E+07 26.4840 1.00000
  1.259E+11 1.259E+11 5.366E+00 5.773E+02 1.032E+04 5.733E+04 6.824E+04 6.824E+04 3.022E+07 26.7142 1.00000
  1.413E+11 1.413E+11 5.388E+00 6.480E+02 1.158E+04 6.567E+04 7.790E+04 7.791E+04 3.044E+07 26.9445 1.00000
  1.585E+11 1.585E+11 5.410E+00 7.273E+02 1.300E+04 7.522E+04 8.894E+04 8.895E+04 3.064E+07 27.1747 1.00000
  1.778E+11 1.778E+11 5.433E+00 8.163E+02 1.458E+04 8.616E+04 1.016E+05 1.016E+05 3.085E+07 27.4050 1.00000
  1.995E+11 1.995E+11 5.455E+00 9.162E+02 1.636E+04 9.870E+04 1.160E+05 1.160E+05 3.105E+07 27.6353 1.00000
  2.239E+11 2.239E+11 5.477E+00 1.028E+03 1.836E+04 1.131E+05 1.325E+05 1.325E+05 3.124E+07 27.8655 1.00000
  2.512E+11 2.512E+11 5.500E+00 1.154E+03 2.060E+04 1.295E+05 1.513E+05 1.513E+05 3.144E+07 28.0958 1.00000
  2.818E+11 2.818E+11 5.523E+00 1.295E+03 2.311E+04 1.484E+05 1.728E+05 1.728E+05 3.163E+07 28.3260 1.00000
  3.162E+11 3.162E+11 5.546E+00 1.454E+03 2.593E+04 1.701E+05 1.974E+05 1.974E+05 3.181E+07 28.5563 1.00000
  3.548E+11 3.548E+11 5.569E+00 1.631E+03 2.909E+04 1.949E+05 2.256E+05 2.256E+05 3.200E+07 28.7866 1.00000
  3.981E+11 3.981E+11 5.592E+00 1.831E+03 3.264E+04 2.233E+05 2.578E+05 2.578E+05 3.218E+07 29.0168 1.00000
  4.467E+11 4.467E+11 5.615E+00 2.054E+03 3.662E+04 2.559E+05 2.946E+05 2.946E+05 3.235E+07 29.2471 1.00000
  5.012E+11 5.012E+11 5.638E+00 2.305E+03 4.109E+04 2.932E+05 3.366E+05 3.366E+05 3.253E+07 29.4773 1.00000
  5.623E+11 5.623E+11 5.662E+00 2.587E+03 4.610E+04 3.361E+05 3.848E+05 3.848E+05 3.270E+07 29.7076 1.00000
  6.310E+11 6.310E+11 5.685E+00 2.903E+03 5.173E+04 3.852E+05 4.398E+05 4.398E+05 3.286E+07 29.9378 1.00000
  7.079E+11 7.079E+11 5.709E+00 3.258E+03 5.804E+04 4.415E+05 5.028E+05 5.028E+05 3.303E+07 30.1681 1.00000
  7.943E+11 7.943E+11 5.733E+00 3.655E+03 6.512E+04 5.061E+05 5.748E+05 5.749E+05 3.319E+07 30.3984 1.00000
  8.913E+11 8.913E+11 5.757E+00 4.102E+03 7.306E+04 5.801E+05 6.573E+05 6.573E+05 3.335E+07 30.6286 1.00000
  1.000E+12 1.000E+12 5.781E+00 4.603E+03 8.197E+04 6.650E+05 7.516E+05 7.516E+05 3.350E+07 30.8589 1.00000
  1.122E+12 1.122E+12 5.806E+00 5.165E+03 9.197E+04 7.624E+05 8.595E+05 8.595E+05 3.366E+07 31.0891 1.00000
  1.259E+12 1.259E+12 5.830E+00 5.795E+03 1.032E+05 8.741E+05 9.831E+05 9.831E+05 3.380E+07 31.3194 1.00000
  1.413E+12 1.413E+12 5.855E+00 6.503E+03 1.158E+05 1.002E+06 1.124E+06 1.124E+06 3.395E+07 31.5497 1.00000
  1.585E+12 1.585E+12 5.879E+00 7.297E+03 1.299E+05 1.149E+06 1.286E+06 1.286E+06 3.409E+07 31.7799 1.00000
  1.778E+12 1.778E+12 5.904E+00 8.188E+03 1.457E+05 1.318E+06 1.472E+06 1.472E+06 3.424E+07 32.0102 1.00000
  1.995E+12 1.995E+12 5.929E+00 9.187E+03 1.635E+05 1.511E+06 1.684E+06 1.684E+06 3.437E+07 32.2404 1.00000
  2.239E+12 2.239E+12 5.954E+00 1.031E+04 1.835E+05 1.733E+06 1.927E+06 1.927E+06 3.451E+07 32.4707 1.00000
  2.512E+12 2.512E+12 5.980E+00 1.157E+04 2.058E+05 1.987E+06 2.205E+06 2.205E+06 3.464E+07 32.7009 1.00000
  2.818E+12 2.818E+12 6.005E+00 1.298E+04 2.309E+05 2.279E+06 2.523E+06 2.523E+06 3.477E+07 32.9312 1.00000
  3.162E+12 3.162E+12 6.030E+00 1.456E+04 2.591E+05 2.614E+06 2.888E+06 2.888E+06 3.490E+07 33.1615 1.00000
  3.548E+12 3.548E+12 6.056E+00 1.634E+04 2.907E+05 2.998E+06 3.305E+06 3.305E+06 3.503E+07 33.3917 1.00000
  3.981E+12 3.981E+12 6.082E+00 1.833E+04 3.262E+05 3.439E+06 3.784E+06 3.784E+06 3.515E+07 33.6220 1.00000
  4.467E+12 4.467E+12 6.108E+00 2.057E+04 3.660E+05 3.945E+06 4.332E+06 4.332E+06 3.527E+07 33.8522 1.00000
  5.012E+12 5.012E+12 6.134E+00 2.308E+04 4.106E+05 4.526E+06 4.959E+06 4.959E+06 3.539E+07 34.0825 1.00000
  5.623E+12 5.623E+12 6.160E+00 2.590E+04 4.607E+05 5.192E+06 5.679E+06 5.679E+06 3.550E+07 34.3128 1.00000
  6.310E+12 6.310E+12 6.187E+00 2.906E+04 5.169E+05 5.957E+06 6.503E+06 6.503E+06 3.561E+07 34.5430 1.00000
  7.079E+12 7.079E+12 6.213E+00 3.261E+04 5.799E+05 6.835E+06 7.447E+06 7.447E+06 3.573E+07 34.7733 1.00000
  7.943E+12 7.943E+12 6.240E+00 3.659E+04 6.506E+05 7.842E+06 8.529E+06 8.529E+06 3.583E+07 35.0035 1.00000
  8.913E+12 8.913E+12 6.267E+00 4.105E+04 7.300E+05 8.999E+06 9.770E+06 9.770E+06 3.594E+07 35.2338 1.00000
  1.000E+13 1.000E+13 6.294E+00 4.606E+04 8.190E+05 1.033E+07 1.119E+07 1.119E+07 3.604E+07 35.4641 1.00000
  1.122E+13 1.122E+13 6.321E+00 5.168E+04 9.189E+05 1.185E+07 1.282E+07 1.282E+07 3.615E+07 35.6943 1.00000
  1.259E+13 1.259E+13 6.348E+00 5.799E+04 1.031E+06 1.360E+07 1.469E+07 1.469E+07 3.625E+07 35.9246 1.00000
  1.413E+13 1.413E+13 6.375E+00 6.506E+04 1.157E+06 1.561E+07 1.683E+07 1.683E+07 3.634E+07 36.1548 1.00000
  1.585E+13 1.585E+13 6.403E+00 7.300E+04 1.298E+06 1.791E+07 1.928E+07 1.928E+07 3.644E+07 36.3851 1.00000
  1.778E+13 1.778E+13 6.431E+00 8.191E+04 1.456E+06 2.056E+07 2.210E+07 2.210E+07 3.653E+07 36.6153 1.00000
  1.995E+13 1.995E+13 6.458E+00 9.191E+04 1.634E+06 2.360E+07 2.533E+07 2.533E+07 3.663E+07 36.8456 1.00000
  2.239E+13 2.239E+13 6.487E+00 1.031E+05 1.833E+06 2.709E+07 2.903E+07 2.903E+07 3.672E+07 37.0759 1.00000
  2.512E+13 2.512E+13 6.515E+00 1.157E+05 2.056E+06 3.110E+07 3.327E+07 3.327E+07 3.680E+07 37.3061 1.00000
  2.818E+13 2.818E+13 6.543E+00 1.298E+05 2.307E+06 3.570E+07 3.814E+07 3.814E+07 3.689E+07 37.5364 1.00000
  3.162E+13 3.162E+13 6.571E+00 1.457E+05 2.589E+06 4.099E+07 4.373E+07 4.373E+07 3.698E+07 37.7666 1.00000
  3.548E+13 3.548E+13 6.600E+00 1.634E+05 2.904E+06 4.706E+07 5.013E+07 5.013E+07 3.706E+07 37.9969 1.00000
  3.981E+13 3.981E+13 6.629E+00 1.834E+05 3.258E+06 5.404E+07 5.748E+07 5.748E+07 3.714E+07 38.2272 1.00000
  4.467E+13 4.467E+13 6.658E+00 2.058E+05 3.656E+06 6.205E+07 6.591E+07 6.591E+07 3.722E+07 38.4574 1.00000
  5.012E+13 5.012E+13 6.687E+00 2.309E+05 4.102E+06 7.125E+07 7.558E+07 7.558E+07 3.730E+07 38.6877 1.00000
  5.623E+13 5.623E+13 6.716E+00 2.590E+05 4.602E+06 8.182E+07 8.668E+07 8.668E+07 3.737E+07 38.9179 1.00000
  6.310E+13 6.310E+13 6.745E+00 2.906E+05 5.163E+06 9.396E+07 9.941E+07 9.941E+07 3.745E+07 39.1482 1.00000
  7.079E+13 7.079E+13 6.775E+00 3.261E+05 5.793E+06 1.079E+08 1.140E+08 1.140E+08 3.752E+07 39.3784 1.00000
  7.943E+13 7.943E+13 6.805E+00 3.659E+05 6.499E+06 1.239E+08 1.308E+08 1.308E+08 3.759E+07 39.6087 1.00000
  8.913E+13 8.913E+13 6.835E+00 4.106E+05 7.292E+06 1.423E+08 1.500E+08 1.500E+08 3.766E+07 39.8390 1.00000
