 Incident particle is a Tau with M = 1776.82000 MeV
 Index = 0: EyeLens
      Absorber with <Z/A> = 0.54869
 Sternheimer coef:  a     k=m_s   x_0    x_1    I[eV]   Cbar  delta0
                 0.0969  3.4550  0.2070  2.7446   73.3  3.3720 0.00

 *** Table generated with PUMAS v1.00 ***

      T         p     Ionization  brems     pair     photonuc  Radloss    dE/dx   CSDA Range  delta   beta
    [MeV]    [MeV/c]  -----------------------[MeV cm^2/g]------------------------  [g/cm^2]
  1.000E+05 1.018E+05 2.410E+00 1.381E-04 2.151E-03 8.383E-03 1.067E-02 2.420E+00 2.066E+04  4.8161 0.99985
  1.122E+05 1.140E+05 2.431E+00 1.595E-04 2.598E-03 9.470E-03 1.223E-02 2.443E+00 2.568E+04  5.0277 0.99988
  1.259E+05 1.277E+05 2.451E+00 1.842E-04 3.126E-03 1.064E-02 1.395E-02 2.465E+00 3.126E+04  5.2414 0.99990
  1.413E+05 1.430E+05 2.472E+00 2.125E-04 3.748E-03 1.196E-02 1.592E-02 2.488E+00 3.746E+04  5.4571 0.99992
  1.585E+05 1.603E+05 2.493E+00 2.452E-04 4.480E-03 1.344E-02 1.816E-02 2.511E+00 4.435E+04  5.6747 0.99994
  1.778E+05 1.796E+05 2.513E+00 2.827E-04 5.338E-03 1.509E-02 2.071E-02 2.534E+00 5.202E+04  5.8940 0.99995
  1.995E+05 2.013E+05 2.534E+00 3.258E-04 6.344E-03 1.697E-02 2.364E-02 2.558E+00 6.054E+04  6.1148 0.99996
  2.239E+05 2.256E+05 2.554E+00 3.753E-04 7.520E-03 1.903E-02 2.693E-02 2.581E+00 7.002E+04  6.3371 0.99997
  2.512E+05 2.530E+05 2.575E+00 4.322E-04 8.892E-03 2.134E-02 3.067E-02 2.605E+00 8.055E+04  6.5606 0.99998
  2.818E+05 2.836E+05 2.595E+00 4.974E-04 1.049E-02 2.394E-02 3.493E-02 2.630E+00 9.226E+04  6.7852 0.99998
  3.162E+05 3.180E+05 2.615E+00 5.723E-04 1.235E-02 2.689E-02 3.981E-02 2.655E+00 1.053E+05  7.0108 0.99998
  3.548E+05 3.566E+05 2.635E+00 6.581E-04 1.451E-02 3.019E-02 4.535E-02 2.681E+00 1.197E+05  7.2373 0.99999
  3.981E+05 3.999E+05 2.656E+00 7.566E-04 1.701E-02 3.388E-02 5.164E-02 2.707E+00 1.358E+05  7.4645 0.99999
  4.467E+05 4.485E+05 2.676E+00 8.694E-04 1.990E-02 3.802E-02 5.879E-02 2.734E+00 1.537E+05  7.6924 0.99999
  5.012E+05 5.030E+05 2.696E+00 9.987E-04 2.325E-02 4.268E-02 6.693E-02 2.762E+00 1.735E+05  7.9208 0.99999
  5.623E+05 5.641E+05 2.715E+00 1.147E-03 2.711E-02 4.773E-02 7.599E-02 2.791E+00 1.955E+05  8.1496 1.00000
  6.310E+05 6.327E+05 2.735E+00 1.317E-03 3.156E-02 5.343E-02 8.630E-02 2.821E+00 2.200E+05  8.3788 1.00000
  7.079E+05 7.097E+05 2.755E+00 1.511E-03 3.668E-02 5.986E-02 9.805E-02 2.853E+00 2.471E+05  8.6082 1.00000
  7.943E+05 7.961E+05 2.775E+00 1.733E-03 4.258E-02 6.712E-02 1.114E-01 2.886E+00 2.772E+05  8.8378 1.00000
  8.913E+05 8.930E+05 2.794E+00 1.987E-03 4.935E-02 7.533E-02 1.267E-01 2.921E+00 3.106E+05  9.0676 1.00000
  1.000E+06 1.002E+06 2.814E+00 2.279E-03 5.711E-02 8.462E-02 1.440E-01 2.958E+00 3.476E+05  9.2974 1.00000
  1.122E+06 1.124E+06 2.833E+00 2.612E-03 6.601E-02 9.513E-02 1.638E-01 2.997E+00 3.886E+05  9.5273 1.00000
  1.259E+06 1.261E+06 2.852E+00 2.992E-03 7.620E-02 1.070E-01 1.862E-01 3.038E+00 4.340E+05  9.7572 1.00000
  1.413E+06 1.414E+06 2.871E+00 3.428E-03 8.785E-02 1.205E-01 2.118E-01 3.083E+00 4.841E+05  9.9871 1.00000
  1.585E+06 1.587E+06 2.890E+00 3.925E-03 1.012E-01 1.359E-01 2.409E-01 3.131E+00 5.396E+05 10.2171 1.00000
  1.778E+06 1.780E+06 2.909E+00 4.494E-03 1.164E-01 1.532E-01 2.741E-01 3.183E+00 6.009E+05 10.4471 1.00000
  1.995E+06 1.997E+06 2.928E+00 5.143E-03 1.337E-01 1.730E-01 3.118E-01 3.240E+00 6.684E+05 10.6772 1.00000
  2.239E+06 2.240E+06 2.947E+00 5.885E-03 1.534E-01 1.954E-01 3.547E-01 3.301E+00 7.429E+05 10.9073 1.00000
  2.512E+06 2.514E+06 2.965E+00 6.733E-03 1.759E-01 2.208E-01 4.034E-01 3.368E+00 8.248E+05 11.1373 1.00000
  2.818E+06 2.820E+06 2.983E+00 7.700E-03 2.014E-01 2.498E-01 4.589E-01 3.442E+00 9.148E+05 11.3674 1.00000
  3.162E+06 3.164E+06 3.001E+00 8.804E-03 2.304E-01 2.827E-01 5.219E-01 3.523E+00 1.014E+06 11.5976 1.00000
  3.548E+06 3.550E+06 3.019E+00 1.006E-02 2.634E-01 3.201E-01 5.935E-01 3.613E+00 1.122E+06 11.8277 1.00000
  3.981E+06 3.983E+06 3.037E+00 1.150E-02 3.007E-01 3.627E-01 6.749E-01 3.712E+00 1.240E+06 12.0579 1.00000
  4.467E+06 4.469E+06 3.055E+00 1.314E-02 3.431E-01 4.112E-01 7.674E-01 3.822E+00 1.369E+06 12.2880 1.00000
  5.012E+06 5.014E+06 3.072E+00 1.501E-02 3.911E-01 4.663E-01 8.725E-01 3.945E+00 1.509E+06 12.5182 1.00000
  5.623E+06 5.625E+06 3.090E+00 1.714E-02 4.455E-01 5.292E-01 9.918E-01 4.081E+00 1.662E+06 12.7484 1.00000
  6.310E+06 6.311E+06 3.107E+00 1.957E-02 5.070E-01 6.008E-01 1.127E+00 4.234E+00 1.827E+06 12.9786 1.00000
  7.079E+06 7.081E+06 3.123E+00 2.234E-02 5.765E-01 6.823E-01 1.281E+00 4.405E+00 2.005E+06 13.2088 1.00000
  7.943E+06 7.945E+06 3.140E+00 2.549E-02 6.551E-01 7.752E-01 1.456E+00 4.596E+00 2.197E+06 13.4390 1.00000
  8.913E+06 8.914E+06 3.157E+00 2.908E-02 7.439E-01 8.811E-01 1.654E+00 4.811E+00 2.403E+06 13.6692 1.00000
  1.000E+07 1.000E+07 3.173E+00 3.316E-02 8.441E-01 1.002E+00 1.879E+00 5.052E+00 2.624E+06 13.8994 1.00000
  1.122E+07 1.122E+07 3.189E+00 3.781E-02 9.572E-01 1.139E+00 2.134E+00 5.324E+00 2.859E+06 14.1296 1.00000
  1.259E+07 1.259E+07 3.206E+00 4.310E-02 1.085E+00 1.296E+00 2.424E+00 5.630E+00 3.110E+06 14.3598 1.00000
  1.413E+07 1.413E+07 3.222E+00 4.912E-02 1.229E+00 1.475E+00 2.753E+00 5.974E+00 3.375E+06 14.5901 1.00000
  1.585E+07 1.585E+07 3.237E+00 5.596E-02 1.391E+00 1.679E+00 3.126E+00 6.363E+00 3.654E+06 14.8203 1.00000
  1.778E+07 1.778E+07 3.253E+00 6.374E-02 1.573E+00 1.912E+00 3.549E+00 6.802E+00 3.948E+06 15.0505 1.00000
  1.995E+07 1.995E+07 3.269E+00 7.258E-02 1.779E+00 2.177E+00 4.029E+00 7.298E+00 4.256E+06 15.2808 1.00000
  2.239E+07 2.239E+07 3.284E+00 8.262E-02 2.011E+00 2.480E+00 4.573E+00 7.858E+00 4.578E+06 15.5110 1.00000
  2.512E+07 2.512E+07 3.300E+00 9.402E-02 2.271E+00 2.826E+00 5.191E+00 8.491E+00 4.913E+06 15.7412 1.00000
  2.818E+07 2.819E+07 3.315E+00 1.070E-01 2.565E+00 3.220E+00 5.892E+00 9.207E+00 5.260E+06 15.9715 1.00000
  3.162E+07 3.162E+07 3.331E+00 1.217E-01 2.895E+00 3.670E+00 6.686E+00 1.002E+01 5.618E+06 16.2017 1.00000
  3.548E+07 3.548E+07 3.346E+00 1.383E-01 3.266E+00 4.183E+00 7.588E+00 1.093E+01 5.987E+06 16.4320 1.00000
  3.981E+07 3.981E+07 3.361E+00 1.572E-01 3.684E+00 4.769E+00 8.610E+00 1.197E+01 6.366E+06 16.6622 1.00000
  4.467E+07 4.467E+07 3.377E+00 1.787E-01 4.153E+00 5.438E+00 9.770E+00 1.315E+01 6.754E+06 16.8925 1.00000
  5.012E+07 5.012E+07 3.392E+00 2.030E-01 4.681E+00 6.202E+00 1.109E+01 1.448E+01 7.149E+06 17.1227 1.00000
  5.623E+07 5.624E+07 3.407E+00 2.305E-01 5.274E+00 7.073E+00 1.258E+01 1.598E+01 7.552E+06 17.3530 1.00000
  6.310E+07 6.310E+07 3.422E+00 2.618E-01 5.940E+00 8.069E+00 1.427E+01 1.769E+01 7.960E+06 17.5832 1.00000
  7.079E+07 7.080E+07 3.438E+00 2.971E-01 6.689E+00 9.205E+00 1.619E+01 1.963E+01 8.374E+06 17.8135 1.00000
  7.943E+07 7.943E+07 3.453E+00 3.372E-01 7.530E+00 1.050E+01 1.837E+01 2.182E+01 8.792E+06 18.0437 1.00000
  8.913E+07 8.913E+07 3.468E+00 3.825E-01 8.474E+00 1.198E+01 2.084E+01 2.431E+01 9.213E+06 18.2740 1.00000
  1.000E+08 1.000E+08 3.483E+00 4.338E-01 9.535E+00 1.368E+01 2.364E+01 2.713E+01 9.637E+06 18.5042 1.00000
  1.122E+08 1.122E+08 3.499E+00 4.918E-01 1.073E+01 1.561E+01 2.683E+01 3.033E+01 1.006E+07 18.7345 1.00000
  1.259E+08 1.259E+08 3.514E+00 5.574E-01 1.206E+01 1.781E+01 3.044E+01 3.395E+01 1.049E+07 18.9647 1.00000
  1.413E+08 1.413E+08 3.530E+00 6.316E-01 1.357E+01 2.033E+01 3.453E+01 3.806E+01 1.092E+07 19.1950 1.00000
  1.585E+08 1.585E+08 3.545E+00 7.155E-01 1.525E+01 2.321E+01 3.918E+01 4.273E+01 1.135E+07 19.4253 1.00000
  1.778E+08 1.778E+08 3.561E+00 8.102E-01 1.715E+01 2.650E+01 4.446E+01 4.802E+01 1.177E+07 19.6555 1.00000
  1.995E+08 1.995E+08 3.576E+00 9.173E-01 1.927E+01 3.026E+01 5.045E+01 5.403E+01 1.220E+07 19.8858 1.00000
  2.239E+08 2.239E+08 3.592E+00 1.038E+00 2.166E+01 3.455E+01 5.725E+01 6.084E+01 1.263E+07 20.1160 1.00000
  2.512E+08 2.512E+08 3.607E+00 1.175E+00 2.434E+01 3.945E+01 6.497E+01 6.858E+01 1.305E+07 20.3463 1.00000
  2.818E+08 2.818E+08 3.623E+00 1.329E+00 2.735E+01 4.506E+01 7.373E+01 7.736E+01 1.347E+07 20.5765 1.00000
  3.162E+08 3.162E+08 3.639E+00 1.503E+00 3.072E+01 5.146E+01 8.368E+01 8.732E+01 1.389E+07 20.8068 1.00000
  3.548E+08 3.548E+08 3.655E+00 1.699E+00 3.451E+01 5.877E+01 9.498E+01 9.864E+01 1.431E+07 21.0371 1.00000
  3.981E+08 3.981E+08 3.671E+00 1.920E+00 3.876E+01 6.713E+01 1.078E+02 1.115E+02 1.472E+07 21.2673 1.00000
  4.467E+08 4.467E+08 3.687E+00 2.170E+00 4.353E+01 7.668E+01 1.224E+02 1.261E+02 1.513E+07 21.4976 1.00000
  5.012E+08 5.012E+08 3.703E+00 2.451E+00 4.889E+01 8.760E+01 1.389E+02 1.426E+02 1.554E+07 21.7278 1.00000
  5.623E+08 5.623E+08 3.719E+00 2.768E+00 5.490E+01 1.001E+02 1.577E+02 1.615E+02 1.594E+07 21.9581 1.00000
  6.310E+08 6.310E+08 3.736E+00 3.125E+00 6.164E+01 1.143E+02 1.791E+02 1.828E+02 1.634E+07 22.1883 1.00000
  7.079E+08 7.079E+08 3.752E+00 3.528E+00 6.921E+01 1.306E+02 2.034E+02 2.071E+02 1.674E+07 22.4186 1.00000
  7.943E+08 7.943E+08 3.769E+00 3.981E+00 7.770E+01 1.493E+02 2.310E+02 2.347E+02 1.713E+07 22.6489 1.00000
  8.913E+08 8.913E+08 3.785E+00 4.492E+00 8.723E+01 1.706E+02 2.623E+02 2.661E+02 1.752E+07 22.8791 1.00000
  1.000E+09 1.000E+09 3.802E+00 5.067E+00 9.793E+01 1.949E+02 2.979E+02 3.017E+02 1.791E+07 23.1094 1.00000
  1.122E+09 1.122E+09 3.818E+00 5.714E+00 1.099E+02 2.228E+02 3.384E+02 3.422E+02 1.829E+07 23.3396 1.00000
  1.259E+09 1.259E+09 3.835E+00 6.442E+00 1.234E+02 2.546E+02 3.844E+02 3.883E+02 1.866E+07 23.5699 1.00000
  1.413E+09 1.413E+09 3.852E+00 7.262E+00 1.385E+02 2.910E+02 4.368E+02 4.406E+02 1.903E+07 23.8001 1.00000
  1.585E+09 1.585E+09 3.869E+00 8.184E+00 1.555E+02 3.326E+02 4.962E+02 5.001E+02 1.940E+07 24.0304 1.00000
  1.778E+09 1.778E+09 3.886E+00 9.222E+00 1.745E+02 3.802E+02 5.639E+02 5.678E+02 1.977E+07 24.2607 1.00000
  1.995E+09 1.995E+09 3.903E+00 1.039E+01 1.958E+02 4.346E+02 6.408E+02 6.447E+02 2.012E+07 24.4909 1.00000
  2.239E+09 2.239E+09 3.921E+00 1.170E+01 2.198E+02 4.969E+02 7.283E+02 7.323E+02 2.048E+07 24.7212 1.00000
  2.512E+09 2.512E+09 3.938E+00 1.318E+01 2.467E+02 5.680E+02 8.279E+02 8.318E+02 2.083E+07 24.9514 1.00000
  2.818E+09 2.818E+09 3.956E+00 1.483E+01 2.768E+02 6.494E+02 9.411E+02 9.450E+02 2.118E+07 25.1817 1.00000
  3.162E+09 3.162E+09 3.973E+00 1.670E+01 3.106E+02 7.426E+02 1.070E+03 1.074E+03 2.152E+07 25.4120 1.00000
  3.548E+09 3.548E+09 3.991E+00 1.880E+01 3.486E+02 8.491E+02 1.216E+03 1.220E+03 2.186E+07 25.6422 1.00000
  3.981E+09 3.981E+09 4.009E+00 2.115E+01 3.912E+02 9.709E+02 1.383E+03 1.387E+03 2.219E+07 25.8725 1.00000
  4.467E+09 4.467E+09 4.026E+00 2.380E+01 4.390E+02 1.110E+03 1.573E+03 1.577E+03 2.252E+07 26.1027 1.00000
  5.012E+09 5.012E+09 4.044E+00 2.677E+01 4.926E+02 1.270E+03 1.789E+03 1.793E+03 2.284E+07 26.3330 1.00000
  5.623E+09 5.623E+09 4.062E+00 3.011E+01 5.528E+02 1.452E+03 2.035E+03 2.039E+03 2.316E+07 26.5632 1.00000
  6.310E+09 6.310E+09 4.081E+00 3.386E+01 6.203E+02 1.661E+03 2.315E+03 2.319E+03 2.348E+07 26.7935 1.00000
  7.079E+09 7.079E+09 4.099E+00 3.808E+01 6.961E+02 1.900E+03 2.634E+03 2.638E+03 2.379E+07 27.0238 1.00000
  7.943E+09 7.943E+09 4.117E+00 4.281E+01 7.811E+02 2.173E+03 2.997E+03 3.001E+03 2.410E+07 27.2540 1.00000
  8.913E+09 8.913E+09 4.136E+00 4.813E+01 8.765E+02 2.486E+03 3.411E+03 3.415E+03 2.440E+07 27.4843 1.00000
  1.000E+10 1.000E+10 4.154E+00 5.410E+01 9.835E+02 2.844E+03 3.882E+03 3.886E+03 2.470E+07 27.7145 1.00000
  1.122E+10 1.122E+10 4.173E+00 6.081E+01 1.104E+03 3.254E+03 4.418E+03 4.422E+03 2.500E+07 27.9448 1.00000
  1.259E+10 1.259E+10 4.192E+00 6.834E+01 1.238E+03 3.723E+03 5.029E+03 5.033E+03 2.529E+07 28.1751 1.00000
  1.413E+10 1.413E+10 4.211E+00 7.679E+01 1.389E+03 4.259E+03 5.725E+03 5.730E+03 2.558E+07 28.4053 1.00000
  1.585E+10 1.585E+10 4.230E+00 8.628E+01 1.559E+03 4.873E+03 6.519E+03 6.523E+03 2.586E+07 28.6356 1.00000
  1.778E+10 1.778E+10 4.249E+00 9.694E+01 1.749E+03 5.577E+03 7.423E+03 7.427E+03 2.614E+07 28.8658 1.00000
  1.995E+10 1.995E+10 4.268E+00 1.089E+02 1.963E+03 6.382E+03 8.453E+03 8.458E+03 2.641E+07 29.0961 1.00000
  2.239E+10 2.239E+10 4.287E+00 1.223E+02 2.202E+03 7.303E+03 9.628E+03 9.632E+03 2.668E+07 29.3264 1.00000
  2.512E+10 2.512E+10 4.307E+00 1.374E+02 2.471E+03 8.358E+03 1.097E+04 1.097E+04 2.695E+07 29.5566 1.00000
  2.818E+10 2.818E+10 4.326E+00 1.543E+02 2.773E+03 9.566E+03 1.249E+04 1.250E+04 2.721E+07 29.7869 1.00000
  3.162E+10 3.162E+10 4.346E+00 1.733E+02 3.111E+03 1.095E+04 1.423E+04 1.424E+04 2.747E+07 30.0171 1.00000
  3.548E+10 3.548E+10 4.366E+00 1.946E+02 3.491E+03 1.253E+04 1.622E+04 1.622E+04 2.772E+07 30.2474 1.00000
  3.981E+10 3.981E+10 4.385E+00 2.186E+02 3.916E+03 1.435E+04 1.848E+04 1.849E+04 2.797E+07 30.4776 1.00000
  4.467E+10 4.467E+10 4.405E+00 2.454E+02 4.394E+03 1.642E+04 2.106E+04 2.107E+04 2.822E+07 30.7079 1.00000
  5.012E+10 5.012E+10 4.426E+00 2.755E+02 4.930E+03 1.880E+04 2.401E+04 2.401E+04 2.846E+07 30.9382 1.00000
  5.623E+10 5.623E+10 4.446E+00 3.094E+02 5.532E+03 2.153E+04 2.737E+04 2.737E+04 2.870E+07 31.1684 1.00000
  6.310E+10 6.310E+10 4.466E+00 3.473E+02 6.207E+03 2.465E+04 3.120E+04 3.121E+04 2.894E+07 31.3987 1.00000
  7.079E+10 7.079E+10 4.487E+00 3.899E+02 6.964E+03 2.822E+04 3.557E+04 3.558E+04 2.917E+07 31.6289 1.00000
  7.943E+10 7.943E+10 4.507E+00 4.377E+02 7.814E+03 3.231E+04 4.057E+04 4.057E+04 2.940E+07 31.8592 1.00000
  8.913E+10 8.913E+10 4.528E+00 4.913E+02 8.767E+03 3.700E+04 4.626E+04 4.627E+04 2.962E+07 32.0895 1.00000
  1.000E+11 1.000E+11 4.549E+00 5.515E+02 9.837E+03 4.238E+04 5.276E+04 5.277E+04 2.984E+07 32.3197 1.00000
  1.122E+11 1.122E+11 4.569E+00 6.191E+02 1.104E+04 4.853E+04 6.019E+04 6.019E+04 3.006E+07 32.5500 1.00000
  1.259E+11 1.259E+11 4.591E+00 6.949E+02 1.238E+04 5.558E+04 6.866E+04 6.867E+04 3.027E+07 32.7802 1.00000
  1.413E+11 1.413E+11 4.612E+00 7.799E+02 1.389E+04 6.366E+04 7.834E+04 7.834E+04 3.048E+07 33.0105 1.00000
  1.585E+11 1.585E+11 4.633E+00 8.753E+02 1.559E+04 7.292E+04 8.939E+04 8.939E+04 3.069E+07 33.2407 1.00000
  1.778E+11 1.778E+11 4.654E+00 9.824E+02 1.749E+04 8.353E+04 1.020E+05 1.020E+05 3.089E+07 33.4710 1.00000
  1.995E+11 1.995E+11 4.676E+00 1.103E+03 1.962E+04 9.569E+04 1.164E+05 1.164E+05 3.109E+07 33.7013 1.00000
  2.239E+11 2.239E+11 4.697E+00 1.237E+03 2.202E+04 1.096E+05 1.329E+05 1.329E+05 3.129E+07 33.9315 1.00000
  2.512E+11 2.512E+11 4.719E+00 1.389E+03 2.470E+04 1.256E+05 1.517E+05 1.517E+05 3.148E+07 34.1618 1.00000
  2.818E+11 2.818E+11 4.741E+00 1.558E+03 2.772E+04 1.439E+05 1.732E+05 1.732E+05 3.167E+07 34.3920 1.00000
  3.162E+11 3.162E+11 4.763E+00 1.749E+03 3.110E+04 1.649E+05 1.977E+05 1.977E+05 3.185E+07 34.6223 1.00000
  3.548E+11 3.548E+11 4.785E+00 1.963E+03 3.489E+04 1.889E+05 2.258E+05 2.258E+05 3.204E+07 34.8526 1.00000
  3.981E+11 3.981E+11 4.807E+00 2.203E+03 3.915E+04 2.165E+05 2.578E+05 2.578E+05 3.222E+07 35.0828 1.00000
  4.467E+11 4.467E+11 4.830E+00 2.472E+03 4.393E+04 2.481E+05 2.945E+05 2.945E+05 3.239E+07 35.3131 1.00000
  5.012E+11 5.012E+11 4.852E+00 2.774E+03 4.928E+04 2.843E+05 3.363E+05 3.363E+05 3.257E+07 35.5433 1.00000
  5.623E+11 5.623E+11 4.875E+00 3.112E+03 5.529E+04 3.258E+05 3.842E+05 3.842E+05 3.274E+07 35.7736 1.00000
  6.310E+11 6.310E+11 4.898E+00 3.492E+03 6.204E+04 3.734E+05 4.390E+05 4.390E+05 3.291E+07 36.0038 1.00000
  7.079E+11 7.079E+11 4.920E+00 3.919E+03 6.961E+04 4.280E+05 5.015E+05 5.015E+05 3.307E+07 36.2341 1.00000
  7.943E+11 7.943E+11 4.943E+00 4.398E+03 7.810E+04 4.906E+05 5.731E+05 5.731E+05 3.323E+07 36.4644 1.00000
  8.913E+11 8.913E+11 4.967E+00 4.935E+03 8.762E+04 5.624E+05 6.550E+05 6.550E+05 3.339E+07 36.6946 1.00000
  1.000E+12 1.000E+12 4.990E+00 5.537E+03 9.831E+04 6.447E+05 7.486E+05 7.486E+05 3.355E+07 36.9249 1.00000
  1.122E+12 1.122E+12 5.013E+00 6.213E+03 1.103E+05 7.391E+05 8.556E+05 8.556E+05 3.370E+07 37.1551 1.00000
  1.259E+12 1.259E+12 5.037E+00 6.972E+03 1.238E+05 8.474E+05 9.781E+05 9.781E+05 3.385E+07 37.3854 1.00000
  1.413E+12 1.413E+12 5.060E+00 7.823E+03 1.389E+05 9.716E+05 1.118E+06 1.118E+06 3.400E+07 37.6157 1.00000
  1.585E+12 1.585E+12 5.084E+00 8.778E+03 1.558E+05 1.114E+06 1.279E+06 1.279E+06 3.414E+07 37.8459 1.00000
  1.778E+12 1.778E+12 5.108E+00 9.849E+03 1.748E+05 1.277E+06 1.462E+06 1.462E+06 3.428E+07 38.0762 1.00000
  1.995E+12 1.995E+12 5.132E+00 1.105E+04 1.961E+05 1.465E+06 1.672E+06 1.672E+06 3.442E+07 38.3064 1.00000
  2.239E+12 2.239E+12 5.156E+00 1.240E+04 2.200E+05 1.680E+06 1.912E+06 1.912E+06 3.456E+07 38.5367 1.00000
  2.512E+12 2.512E+12 5.181E+00 1.391E+04 2.469E+05 1.926E+06 2.187E+06 2.187E+06 3.469E+07 38.7669 1.00000
  2.818E+12 2.818E+12 5.205E+00 1.561E+04 2.770E+05 2.209E+06 2.502E+06 2.502E+06 3.482E+07 38.9972 1.00000
  3.162E+12 3.162E+12 5.230E+00 1.752E+04 3.108E+05 2.534E+06 2.862E+06 2.862E+06 3.495E+07 39.2275 1.00000
  3.548E+12 3.548E+12 5.254E+00 1.966E+04 3.487E+05 2.907E+06 3.275E+06 3.275E+06 3.508E+07 39.4577 1.00000
  3.981E+12 3.981E+12 5.279E+00 2.205E+04 3.912E+05 3.334E+06 3.747E+06 3.747E+06 3.520E+07 39.6880 1.00000
  4.467E+12 4.467E+12 5.304E+00 2.475E+04 4.389E+05 3.825E+06 4.288E+06 4.288E+06 3.532E+07 39.9182 1.00000
  5.012E+12 5.012E+12 5.329E+00 2.777E+04 4.924E+05 4.388E+06 4.908E+06 4.908E+06 3.544E+07 40.1485 1.00000
  5.623E+12 5.623E+12 5.354E+00 3.115E+04 5.525E+05 5.034E+06 5.617E+06 5.617E+06 3.556E+07 40.3788 1.00000
  6.310E+12 6.310E+12 5.380E+00 3.496E+04 6.199E+05 5.775E+06 6.430E+06 6.430E+06 3.567E+07 40.6090 1.00000
  7.079E+12 7.079E+12 5.405E+00 3.922E+04 6.955E+05 6.626E+06 7.361E+06 7.361E+06 3.579E+07 40.8393 1.00000
  7.943E+12 7.943E+12 5.431E+00 4.401E+04 7.803E+05 7.603E+06 8.427E+06 8.427E+06 3.590E+07 41.0695 1.00000
  8.913E+12 8.913E+12 5.457E+00 4.938E+04 8.755E+05 8.724E+06 9.649E+06 9.649E+06 3.600E+07 41.2998 1.00000
  1.000E+13 1.000E+13 5.483E+00 5.540E+04 9.823E+05 1.001E+07 1.105E+07 1.105E+07 3.611E+07 41.5301 1.00000
  1.122E+13 1.122E+13 5.509E+00 6.216E+04 1.102E+06 1.149E+07 1.265E+07 1.265E+07 3.621E+07 41.7603 1.00000
  1.259E+13 1.259E+13 5.535E+00 6.975E+04 1.236E+06 1.318E+07 1.449E+07 1.449E+07 3.631E+07 41.9906 1.00000
  1.413E+13 1.413E+13 5.561E+00 7.826E+04 1.387E+06 1.513E+07 1.660E+07 1.660E+07 3.641E+07 42.2208 1.00000
  1.585E+13 1.585E+13 5.588E+00 8.781E+04 1.556E+06 1.737E+07 1.901E+07 1.901E+07 3.651E+07 42.4511 1.00000
  1.778E+13 1.778E+13 5.615E+00 9.853E+04 1.746E+06 1.993E+07 2.178E+07 2.178E+07 3.661E+07 42.6813 1.00000
  1.995E+13 1.995E+13 5.641E+00 1.105E+05 1.959E+06 2.288E+07 2.495E+07 2.495E+07 3.670E+07 42.9116 1.00000
  2.239E+13 2.239E+13 5.668E+00 1.240E+05 2.198E+06 2.626E+07 2.859E+07 2.859E+07 3.679E+07 43.1419 1.00000
  2.512E+13 2.512E+13 5.695E+00 1.392E+05 2.466E+06 3.015E+07 3.276E+07 3.276E+07 3.688E+07 43.3721 1.00000
  2.818E+13 2.818E+13 5.723E+00 1.562E+05 2.767E+06 3.461E+07 3.754E+07 3.754E+07 3.697E+07 43.6024 1.00000
  3.162E+13 3.162E+13 5.750E+00 1.752E+05 3.105E+06 3.974E+07 4.302E+07 4.302E+07 3.705E+07 43.8326 1.00000
  3.548E+13 3.548E+13 5.778E+00 1.966E+05 3.483E+06 4.562E+07 4.930E+07 4.930E+07 3.714E+07 44.0629 1.00000
  3.981E+13 3.981E+13 5.805E+00 2.206E+05 3.908E+06 5.239E+07 5.651E+07 5.651E+07 3.722E+07 44.2932 1.00000
  4.467E+13 4.467E+13 5.833E+00 2.475E+05 4.385E+06 6.015E+07 6.478E+07 6.478E+07 3.730E+07 44.5234 1.00000
  5.012E+13 5.012E+13 5.861E+00 2.777E+05 4.919E+06 6.907E+07 7.427E+07 7.427E+07 3.738E+07 44.7537 1.00000
  5.623E+13 5.623E+13 5.889E+00 3.116E+05 5.519E+06 7.932E+07 8.515E+07 8.515E+07 3.746E+07 44.9839 1.00000
  6.310E+13 6.310E+13 5.918E+00 3.496E+05 6.192E+06 9.109E+07 9.763E+07 9.763E+07 3.753E+07 45.2142 1.00000
  7.079E+13 7.079E+13 5.946E+00 3.923E+05 6.948E+06 1.046E+08 1.119E+08 1.119E+08 3.760E+07 45.4444 1.00000
  7.943E+13 7.943E+13 5.975E+00 4.401E+05 7.795E+06 1.201E+08 1.284E+08 1.284E+08 3.768E+07 45.6747 1.00000
  8.913E+13 8.913E+13 6.003E+00 4.938E+05 8.746E+06 1.380E+08 1.472E+08 1.472E+08 3.775E+07 45.9050 1.00000
