 Incident particle is a Tau with M = 1776.82000 MeV
 Index = 0: Ferroboride
      Absorber with <Z/A> = 0.46503
 Sternheimer coef:  a     k=m_s   x_0    x_1    I[eV]   Cbar  delta0
                 0.1291  3.0240  0.0988  3.1749  261.0  4.2057 0.00

 *** Table generated with PUMAS v1.00 ***

      T         p     Ionization  brems     pair     photonuc  Radloss    dE/dx   CSDA Range  delta   beta
    [MeV]    [MeV/c]  -----------------------[MeV cm^2/g]------------------------  [g/cm^2]
  1.000E+05 1.018E+05 1.901E+00 3.773E-04 6.181E-03 7.982E-03 1.454E-02 1.915E+00 2.611E+04  4.2603 0.99985
  1.122E+05 1.140E+05 1.920E+00 4.366E-04 7.417E-03 8.990E-03 1.684E-02 1.937E+00 3.244E+04  4.4493 0.99988
  1.259E+05 1.277E+05 1.939E+00 5.050E-04 8.873E-03 1.007E-02 1.945E-02 1.959E+00 3.947E+04  4.6412 0.99990
  1.413E+05 1.430E+05 1.958E+00 5.838E-04 1.058E-02 1.129E-02 2.245E-02 1.981E+00 4.727E+04  4.8360 0.99992
  1.585E+05 1.603E+05 1.977E+00 6.745E-04 1.259E-02 1.264E-02 2.591E-02 2.003E+00 5.593E+04  5.0336 0.99994
  1.778E+05 1.796E+05 1.996E+00 7.789E-04 1.494E-02 1.415E-02 2.987E-02 2.026E+00 6.553E+04  5.2338 0.99995
  1.995E+05 2.013E+05 2.015E+00 8.990E-04 1.769E-02 1.587E-02 3.446E-02 2.049E+00 7.618E+04  5.4364 0.99996
  2.239E+05 2.256E+05 2.033E+00 1.037E-03 2.089E-02 1.774E-02 3.967E-02 2.073E+00 8.799E+04  5.6415 0.99997
  2.512E+05 2.530E+05 2.052E+00 1.196E-03 2.462E-02 1.984E-02 4.565E-02 2.097E+00 1.011E+05  5.8488 0.99998
  2.818E+05 2.836E+05 2.070E+00 1.378E-03 2.895E-02 2.219E-02 5.251E-02 2.122E+00 1.156E+05  6.0583 0.99998
  3.162E+05 3.180E+05 2.088E+00 1.587E-03 3.397E-02 2.485E-02 6.040E-02 2.148E+00 1.317E+05  6.2698 0.99998
  3.548E+05 3.566E+05 2.106E+00 1.827E-03 3.978E-02 2.782E-02 6.943E-02 2.176E+00 1.496E+05  6.4832 0.99999
  3.981E+05 3.999E+05 2.124E+00 2.102E-03 4.651E-02 3.114E-02 7.975E-02 2.204E+00 1.693E+05  6.6985 0.99999
  4.467E+05 4.485E+05 2.142E+00 2.418E-03 5.427E-02 3.484E-02 9.153E-02 2.233E+00 1.912E+05  6.9155 0.99999
  5.012E+05 5.030E+05 2.159E+00 2.779E-03 6.322E-02 3.901E-02 1.050E-01 2.264E+00 2.155E+05  7.1341 0.99999
  5.623E+05 5.641E+05 2.177E+00 3.194E-03 7.352E-02 4.352E-02 1.202E-01 2.297E+00 2.423E+05  7.3542 1.00000
  6.310E+05 6.327E+05 2.194E+00 3.668E-03 8.537E-02 4.858E-02 1.376E-01 2.332E+00 2.719E+05  7.5757 1.00000
  7.079E+05 7.097E+05 2.211E+00 4.211E-03 9.898E-02 5.430E-02 1.575E-01 2.369E+00 3.047E+05  7.7984 1.00000
  7.943E+05 7.961E+05 2.228E+00 4.832E-03 1.146E-01 6.074E-02 1.802E-01 2.409E+00 3.409E+05  8.0224 1.00000
  8.913E+05 8.930E+05 2.245E+00 5.543E-03 1.325E-01 6.802E-02 2.060E-01 2.451E+00 3.808E+05  8.2474 1.00000
  1.000E+06 1.002E+06 2.262E+00 6.356E-03 1.529E-01 7.623E-02 2.355E-01 2.498E+00 4.247E+05  8.4733 1.00000
  1.122E+06 1.124E+06 2.279E+00 7.285E-03 1.763E-01 8.553E-02 2.691E-01 2.548E+00 4.731E+05  8.7002 1.00000
  1.259E+06 1.261E+06 2.295E+00 8.346E-03 2.030E-01 9.604E-02 3.074E-01 2.603E+00 5.263E+05  8.9278 1.00000
  1.413E+06 1.414E+06 2.312E+00 9.559E-03 2.334E-01 1.080E-01 3.509E-01 2.663E+00 5.846E+05  9.1560 1.00000
  1.585E+06 1.587E+06 2.328E+00 1.094E-02 2.681E-01 1.214E-01 4.005E-01 2.728E+00 6.486E+05  9.3848 1.00000
  1.778E+06 1.780E+06 2.344E+00 1.252E-02 3.076E-01 1.367E-01 4.569E-01 2.801E+00 7.185E+05  9.6141 1.00000
  1.995E+06 1.997E+06 2.360E+00 1.433E-02 3.525E-01 1.541E-01 5.210E-01 2.881E+00 7.949E+05  9.8437 1.00000
  2.239E+06 2.240E+06 2.376E+00 1.639E-02 4.036E-01 1.738E-01 5.938E-01 2.969E+00 8.782E+05 10.0736 1.00000
  2.512E+06 2.514E+06 2.391E+00 1.873E-02 4.615E-01 1.962E-01 6.764E-01 3.068E+00 9.687E+05 10.3036 1.00000
  2.818E+06 2.820E+06 2.407E+00 2.141E-02 5.273E-01 2.216E-01 7.703E-01 3.177E+00 1.067E+06 10.5337 1.00000
  3.162E+06 3.164E+06 2.422E+00 2.446E-02 6.018E-01 2.505E-01 8.768E-01 3.299E+00 1.173E+06 10.7639 1.00000
  3.548E+06 3.550E+06 2.437E+00 2.794E-02 6.862E-01 2.834E-01 9.975E-01 3.435E+00 1.288E+06 10.9940 1.00000
  3.981E+06 3.983E+06 2.452E+00 3.190E-02 7.818E-01 3.207E-01 1.134E+00 3.587E+00 1.411E+06 11.2242 1.00000
  4.467E+06 4.469E+06 2.467E+00 3.641E-02 8.899E-01 3.632E-01 1.290E+00 3.757E+00 1.544E+06 11.4543 1.00000
  5.012E+06 5.014E+06 2.482E+00 4.154E-02 1.012E+00 4.116E-01 1.465E+00 3.947E+00 1.685E+06 11.6845 1.00000
  5.623E+06 5.625E+06 2.497E+00 4.739E-02 1.150E+00 4.667E-01 1.664E+00 4.161E+00 1.836E+06 11.9147 1.00000
  6.310E+06 6.311E+06 2.511E+00 5.404E-02 1.306E+00 5.294E-01 1.890E+00 4.401E+00 1.996E+06 12.1449 1.00000
  7.079E+06 7.081E+06 2.525E+00 6.160E-02 1.482E+00 6.009E-01 2.145E+00 4.670E+00 2.166E+06 12.3751 1.00000
  7.943E+06 7.945E+06 2.540E+00 7.020E-02 1.681E+00 6.823E-01 2.433E+00 4.973E+00 2.346E+06 12.6053 1.00000
  8.913E+06 8.914E+06 2.554E+00 7.998E-02 1.905E+00 7.750E-01 2.760E+00 5.313E+00 2.534E+06 12.8355 1.00000
  1.000E+07 1.000E+07 2.568E+00 9.109E-02 2.157E+00 8.807E-01 3.129E+00 5.697E+00 2.732E+06 13.0657 1.00000
  1.122E+07 1.122E+07 2.581E+00 1.037E-01 2.442E+00 1.001E+00 3.547E+00 6.128E+00 2.939E+06 13.2959 1.00000
  1.259E+07 1.259E+07 2.595E+00 1.180E-01 2.762E+00 1.139E+00 4.019E+00 6.614E+00 3.154E+06 13.5261 1.00000
  1.413E+07 1.413E+07 2.609E+00 1.343E-01 3.123E+00 1.295E+00 4.552E+00 7.161E+00 3.377E+06 13.7564 1.00000
  1.585E+07 1.585E+07 2.622E+00 1.528E-01 3.529E+00 1.474E+00 5.156E+00 7.778E+00 3.609E+06 13.9866 1.00000
  1.778E+07 1.778E+07 2.635E+00 1.738E-01 3.986E+00 1.677E+00 5.838E+00 8.473E+00 3.847E+06 14.2168 1.00000
  1.995E+07 1.995E+07 2.649E+00 1.975E-01 4.501E+00 1.910E+00 6.608E+00 9.257E+00 4.092E+06 14.4471 1.00000
  2.239E+07 2.239E+07 2.662E+00 2.245E-01 5.079E+00 2.175E+00 7.479E+00 1.014E+01 4.344E+06 14.6773 1.00000
  2.512E+07 2.512E+07 2.675E+00 2.551E-01 5.730E+00 2.477E+00 8.462E+00 1.114E+01 4.601E+06 14.9075 1.00000
  2.818E+07 2.819E+07 2.688E+00 2.897E-01 6.461E+00 2.822E+00 9.573E+00 1.226E+01 4.864E+06 15.1378 1.00000
  3.162E+07 3.162E+07 2.701E+00 3.290E-01 7.284E+00 3.216E+00 1.083E+01 1.353E+01 5.131E+06 15.3680 1.00000
  3.548E+07 3.548E+07 2.714E+00 3.735E-01 8.208E+00 3.665E+00 1.225E+01 1.496E+01 5.403E+06 15.5983 1.00000
  3.981E+07 3.981E+07 2.727E+00 4.238E-01 9.246E+00 4.178E+00 1.385E+01 1.658E+01 5.678E+06 15.8285 1.00000
  4.467E+07 4.467E+07 2.740E+00 4.808E-01 1.041E+01 4.763E+00 1.566E+01 1.840E+01 5.956E+06 16.0588 1.00000
  5.012E+07 5.012E+07 2.753E+00 5.453E-01 1.172E+01 5.432E+00 1.770E+01 2.045E+01 6.238E+06 16.2890 1.00000
  5.623E+07 5.624E+07 2.766E+00 6.183E-01 1.320E+01 6.194E+00 2.001E+01 2.278E+01 6.522E+06 16.5193 1.00000
  6.310E+07 6.310E+07 2.779E+00 7.008E-01 1.485E+01 7.065E+00 2.262E+01 2.540E+01 6.807E+06 16.7495 1.00000
  7.079E+07 7.080E+07 2.792E+00 7.941E-01 1.671E+01 8.059E+00 2.556E+01 2.835E+01 7.095E+06 16.9798 1.00000
  7.943E+07 7.943E+07 2.805E+00 8.996E-01 1.880E+01 9.194E+00 2.889E+01 3.169E+01 7.383E+06 17.2100 1.00000
  8.913E+07 8.913E+07 2.817E+00 1.019E+00 2.114E+01 1.049E+01 3.265E+01 3.546E+01 7.673E+06 17.4403 1.00000
  1.000E+08 1.000E+08 2.830E+00 1.153E+00 2.377E+01 1.197E+01 3.689E+01 3.972E+01 7.963E+06 17.6705 1.00000
  1.122E+08 1.122E+08 2.843E+00 1.305E+00 2.672E+01 1.366E+01 4.169E+01 4.453E+01 8.254E+06 17.9008 1.00000
  1.259E+08 1.259E+08 2.856E+00 1.477E+00 3.004E+01 1.559E+01 4.711E+01 4.996E+01 8.544E+06 18.1310 1.00000
  1.413E+08 1.413E+08 2.870E+00 1.671E+00 3.376E+01 1.780E+01 5.323E+01 5.610E+01 8.835E+06 18.3613 1.00000
  1.585E+08 1.585E+08 2.883E+00 1.889E+00 3.794E+01 2.032E+01 6.014E+01 6.303E+01 9.125E+06 18.5916 1.00000
  1.778E+08 1.778E+08 2.896E+00 2.136E+00 4.263E+01 2.319E+01 6.796E+01 7.085E+01 9.415E+06 18.8218 1.00000
  1.995E+08 1.995E+08 2.909E+00 2.414E+00 4.789E+01 2.648E+01 7.679E+01 7.969E+01 9.704E+06 19.0521 1.00000
  2.239E+08 2.239E+08 2.922E+00 2.728E+00 5.380E+01 3.023E+01 8.676E+01 8.968E+01 9.993E+06 19.2823 1.00000
  2.512E+08 2.512E+08 2.936E+00 3.082E+00 6.043E+01 3.452E+01 9.804E+01 1.010E+02 1.028E+07 19.5126 1.00000
  2.818E+08 2.818E+08 2.949E+00 3.480E+00 6.787E+01 3.942E+01 1.108E+02 1.137E+02 1.057E+07 19.7428 1.00000
  3.162E+08 3.162E+08 2.962E+00 3.929E+00 7.623E+01 4.502E+01 1.252E+02 1.281E+02 1.085E+07 19.9731 1.00000
  3.548E+08 3.548E+08 2.976E+00 4.435E+00 8.560E+01 5.142E+01 1.415E+02 1.444E+02 1.114E+07 20.2034 1.00000
  3.981E+08 3.981E+08 2.989E+00 5.004E+00 9.612E+01 5.874E+01 1.599E+02 1.629E+02 1.142E+07 20.4336 1.00000
  4.467E+08 4.467E+08 3.003E+00 5.645E+00 1.079E+02 6.709E+01 1.807E+02 1.837E+02 1.170E+07 20.6639 1.00000
  5.012E+08 5.012E+08 3.017E+00 6.367E+00 1.212E+02 7.664E+01 2.042E+02 2.072E+02 1.198E+07 20.8941 1.00000
  5.623E+08 5.623E+08 3.030E+00 7.180E+00 1.360E+02 8.756E+01 2.308E+02 2.338E+02 1.226E+07 21.1244 1.00000
  6.310E+08 6.310E+08 3.044E+00 8.094E+00 1.527E+02 1.000E+02 2.609E+02 2.639E+02 1.254E+07 21.3546 1.00000
  7.079E+08 7.079E+08 3.058E+00 9.123E+00 1.715E+02 1.143E+02 2.949E+02 2.979E+02 1.281E+07 21.5849 1.00000
  7.943E+08 7.943E+08 3.072E+00 1.028E+01 1.925E+02 1.306E+02 3.333E+02 3.364E+02 1.308E+07 21.8152 1.00000
  8.913E+08 8.913E+08 3.086E+00 1.158E+01 2.160E+02 1.492E+02 3.768E+02 3.799E+02 1.336E+07 22.0454 1.00000
  1.000E+09 1.000E+09 3.100E+00 1.305E+01 2.425E+02 1.705E+02 4.261E+02 4.292E+02 1.363E+07 22.2757 1.00000
  1.122E+09 1.122E+09 3.114E+00 1.469E+01 2.722E+02 1.949E+02 4.817E+02 4.849E+02 1.389E+07 22.5059 1.00000
  1.259E+09 1.259E+09 3.129E+00 1.654E+01 3.055E+02 2.227E+02 5.447E+02 5.479E+02 1.416E+07 22.7362 1.00000
  1.413E+09 1.413E+09 3.143E+00 1.862E+01 3.428E+02 2.546E+02 6.160E+02 6.192E+02 1.442E+07 22.9664 1.00000
  1.585E+09 1.585E+09 3.157E+00 2.096E+01 3.848E+02 2.910E+02 6.967E+02 6.999E+02 1.469E+07 23.1967 1.00000
  1.778E+09 1.778E+09 3.172E+00 2.359E+01 4.318E+02 3.326E+02 7.880E+02 7.912E+02 1.495E+07 23.4270 1.00000
  1.995E+09 1.995E+09 3.186E+00 2.654E+01 4.846E+02 3.802E+02 8.914E+02 8.946E+02 1.520E+07 23.6572 1.00000
  2.239E+09 2.239E+09 3.201E+00 2.986E+01 5.439E+02 4.347E+02 1.008E+03 1.012E+03 1.546E+07 23.8875 1.00000
  2.512E+09 2.512E+09 3.216E+00 3.358E+01 6.103E+02 4.969E+02 1.141E+03 1.144E+03 1.572E+07 24.1177 1.00000
  2.818E+09 2.818E+09 3.231E+00 3.777E+01 6.849E+02 5.682E+02 1.291E+03 1.294E+03 1.597E+07 24.3480 1.00000
  3.162E+09 3.162E+09 3.246E+00 4.247E+01 7.686E+02 6.496E+02 1.461E+03 1.464E+03 1.622E+07 24.5783 1.00000
  3.548E+09 3.548E+09 3.260E+00 4.775E+01 8.625E+02 7.428E+02 1.653E+03 1.656E+03 1.647E+07 24.8085 1.00000
  3.981E+09 3.981E+09 3.276E+00 5.368E+01 9.678E+02 8.494E+02 1.871E+03 1.874E+03 1.671E+07 25.0388 1.00000
  4.467E+09 4.467E+09 3.291E+00 6.034E+01 1.086E+03 9.714E+02 2.118E+03 2.121E+03 1.696E+07 25.2690 1.00000
  5.012E+09 5.012E+09 3.306E+00 6.781E+01 1.219E+03 1.111E+03 2.397E+03 2.401E+03 1.720E+07 25.4993 1.00000
  5.623E+09 5.623E+09 3.321E+00 7.621E+01 1.367E+03 1.270E+03 2.714E+03 2.717E+03 1.744E+07 25.7295 1.00000
  6.310E+09 6.310E+09 3.337E+00 8.563E+01 1.534E+03 1.453E+03 3.073E+03 3.076E+03 1.768E+07 25.9598 1.00000
  7.079E+09 7.079E+09 3.352E+00 9.622E+01 1.722E+03 1.662E+03 3.480E+03 3.483E+03 1.791E+07 26.1901 1.00000
  7.943E+09 7.943E+09 3.368E+00 1.081E+02 1.932E+03 1.901E+03 3.941E+03 3.945E+03 1.815E+07 26.4203 1.00000
  8.913E+09 8.913E+09 3.383E+00 1.214E+02 2.168E+03 2.175E+03 4.464E+03 4.467E+03 1.838E+07 26.6506 1.00000
  1.000E+10 1.000E+10 3.399E+00 1.364E+02 2.432E+03 2.488E+03 5.057E+03 5.060E+03 1.861E+07 26.8808 1.00000
  1.122E+10 1.122E+10 3.415E+00 1.532E+02 2.729E+03 2.846E+03 5.729E+03 5.732E+03 1.883E+07 27.1111 1.00000
  1.259E+10 1.259E+10 3.431E+00 1.721E+02 3.062E+03 3.257E+03 6.491E+03 6.494E+03 1.906E+07 27.3414 1.00000
  1.413E+10 1.413E+10 3.447E+00 1.932E+02 3.436E+03 3.726E+03 7.355E+03 7.359E+03 1.928E+07 27.5716 1.00000
  1.585E+10 1.585E+10 3.463E+00 2.170E+02 3.855E+03 4.263E+03 8.336E+03 8.339E+03 1.950E+07 27.8019 1.00000
  1.778E+10 1.778E+10 3.479E+00 2.437E+02 4.326E+03 4.879E+03 9.448E+03 9.452E+03 1.972E+07 28.0321 1.00000
  1.995E+10 1.995E+10 3.495E+00 2.736E+02 4.854E+03 5.583E+03 1.071E+04 1.071E+04 1.994E+07 28.2624 1.00000
  2.239E+10 2.239E+10 3.512E+00 3.072E+02 5.446E+03 6.389E+03 1.214E+04 1.215E+04 2.015E+07 28.4927 1.00000
  2.512E+10 2.512E+10 3.528E+00 3.449E+02 6.111E+03 7.312E+03 1.377E+04 1.377E+04 2.036E+07 28.7229 1.00000
  2.818E+10 2.818E+10 3.545E+00 3.872E+02 6.856E+03 8.369E+03 1.561E+04 1.562E+04 2.057E+07 28.9532 1.00000
  3.162E+10 3.162E+10 3.561E+00 4.347E+02 7.693E+03 9.579E+03 1.771E+04 1.771E+04 2.078E+07 29.1834 1.00000
  3.548E+10 3.548E+10 3.578E+00 4.879E+02 8.632E+03 1.096E+04 2.008E+04 2.009E+04 2.098E+07 29.4137 1.00000
  3.981E+10 3.981E+10 3.595E+00 5.477E+02 9.685E+03 1.255E+04 2.278E+04 2.279E+04 2.119E+07 29.6439 1.00000
  4.467E+10 4.467E+10 3.612E+00 6.148E+02 1.087E+04 1.437E+04 2.585E+04 2.585E+04 2.139E+07 29.8742 1.00000
  5.012E+10 5.012E+10 3.629E+00 6.901E+02 1.219E+04 1.645E+04 2.933E+04 2.933E+04 2.158E+07 30.1045 1.00000
  5.623E+10 5.623E+10 3.646E+00 7.746E+02 1.368E+04 1.883E+04 3.329E+04 3.329E+04 2.178E+07 30.3347 1.00000
  6.310E+10 6.310E+10 3.663E+00 8.694E+02 1.535E+04 2.156E+04 3.778E+04 3.778E+04 2.197E+07 30.5650 1.00000
  7.079E+10 7.079E+10 3.681E+00 9.757E+02 1.722E+04 2.469E+04 4.289E+04 4.289E+04 2.217E+07 30.7952 1.00000
  7.943E+10 7.943E+10 3.698E+00 1.095E+03 1.932E+04 2.827E+04 4.869E+04 4.869E+04 2.236E+07 31.0255 1.00000
  8.913E+10 8.913E+10 3.716E+00 1.229E+03 2.168E+04 3.237E+04 5.528E+04 5.528E+04 2.254E+07 31.2558 1.00000
  1.000E+11 1.000E+11 3.733E+00 1.379E+03 2.432E+04 3.707E+04 6.278E+04 6.278E+04 2.273E+07 31.4860 1.00000
  1.122E+11 1.122E+11 3.751E+00 1.548E+03 2.729E+04 4.246E+04 7.130E+04 7.130E+04 2.291E+07 31.7163 1.00000
  1.259E+11 1.259E+11 3.769E+00 1.737E+03 3.062E+04 4.863E+04 8.098E+04 8.099E+04 2.309E+07 31.9465 1.00000
  1.413E+11 1.413E+11 3.787E+00 1.949E+03 3.436E+04 5.569E+04 9.200E+04 9.200E+04 2.327E+07 32.1768 1.00000
  1.585E+11 1.585E+11 3.805E+00 2.188E+03 3.855E+04 6.379E+04 1.045E+05 1.045E+05 2.345E+07 32.4070 1.00000
  1.778E+11 1.778E+11 3.823E+00 2.455E+03 4.325E+04 7.307E+04 1.188E+05 1.188E+05 2.362E+07 32.6373 1.00000
  1.995E+11 1.995E+11 3.841E+00 2.755E+03 4.853E+04 8.371E+04 1.350E+05 1.350E+05 2.379E+07 32.8676 1.00000
  2.239E+11 2.239E+11 3.859E+00 3.091E+03 5.445E+04 9.590E+04 1.534E+05 1.534E+05 2.396E+07 33.0978 1.00000
  2.512E+11 2.512E+11 3.878E+00 3.469E+03 6.109E+04 1.099E+05 1.744E+05 1.744E+05 2.413E+07 33.3281 1.00000
  2.818E+11 2.818E+11 3.896E+00 3.893E+03 6.854E+04 1.259E+05 1.983E+05 1.983E+05 2.429E+07 33.5583 1.00000
  3.162E+11 3.162E+11 3.915E+00 4.368E+03 7.690E+04 1.442E+05 2.255E+05 2.255E+05 2.446E+07 33.7886 1.00000
  3.548E+11 3.548E+11 3.934E+00 4.901E+03 8.628E+04 1.653E+05 2.564E+05 2.564E+05 2.462E+07 34.0189 1.00000
  3.981E+11 3.981E+11 3.953E+00 5.500E+03 9.681E+04 1.894E+05 2.917E+05 2.917E+05 2.478E+07 34.2491 1.00000
  4.467E+11 4.467E+11 3.972E+00 6.171E+03 1.086E+05 2.170E+05 3.318E+05 3.318E+05 2.493E+07 34.4794 1.00000
  5.012E+11 5.012E+11 3.991E+00 6.925E+03 1.219E+05 2.487E+05 3.775E+05 3.775E+05 2.509E+07 34.7096 1.00000
  5.623E+11 5.623E+11 4.010E+00 7.770E+03 1.367E+05 2.850E+05 4.295E+05 4.295E+05 2.524E+07 34.9399 1.00000
  6.310E+11 6.310E+11 4.029E+00 8.719E+03 1.534E+05 3.267E+05 4.888E+05 4.888E+05 2.539E+07 35.1701 1.00000
  7.079E+11 7.079E+11 4.048E+00 9.783E+03 1.721E+05 3.744E+05 5.563E+05 5.563E+05 2.554E+07 35.4004 1.00000
  7.943E+11 7.943E+11 4.068E+00 1.098E+04 1.931E+05 4.292E+05 6.333E+05 6.333E+05 2.568E+07 35.6307 1.00000
  8.913E+11 8.913E+11 4.087E+00 1.232E+04 2.167E+05 4.920E+05 7.210E+05 7.210E+05 2.583E+07 35.8609 1.00000
  1.000E+12 1.000E+12 4.107E+00 1.382E+04 2.431E+05 5.640E+05 8.209E+05 8.209E+05 2.597E+07 36.0912 1.00000
  1.122E+12 1.122E+12 4.127E+00 1.551E+04 2.728E+05 6.466E+05 9.349E+05 9.349E+05 2.611E+07 36.3214 1.00000
  1.259E+12 1.259E+12 4.147E+00 1.740E+04 3.060E+05 7.413E+05 1.065E+06 1.065E+06 2.624E+07 36.5517 1.00000
  1.413E+12 1.413E+12 4.167E+00 1.952E+04 3.433E+05 8.500E+05 1.213E+06 1.213E+06 2.638E+07 36.7820 1.00000
  1.585E+12 1.585E+12 4.187E+00 2.191E+04 3.852E+05 9.746E+05 1.382E+06 1.382E+06 2.651E+07 37.0122 1.00000
  1.778E+12 1.778E+12 4.207E+00 2.458E+04 4.322E+05 1.117E+06 1.574E+06 1.574E+06 2.664E+07 37.2425 1.00000
  1.995E+12 1.995E+12 4.228E+00 2.758E+04 4.849E+05 1.281E+06 1.794E+06 1.794E+06 2.677E+07 37.4727 1.00000
  2.239E+12 2.239E+12 4.248E+00 3.095E+04 5.441E+05 1.470E+06 2.045E+06 2.045E+06 2.690E+07 37.7030 1.00000
  2.512E+12 2.512E+12 4.269E+00 3.472E+04 6.104E+05 1.685E+06 2.330E+06 2.330E+06 2.703E+07 37.9332 1.00000
  2.818E+12 2.818E+12 4.290E+00 3.896E+04 6.849E+05 1.933E+06 2.657E+06 2.657E+06 2.715E+07 38.1635 1.00000
  3.162E+12 3.162E+12 4.310E+00 4.371E+04 7.684E+05 2.217E+06 3.029E+06 3.029E+06 2.727E+07 38.3938 1.00000
  3.548E+12 3.548E+12 4.331E+00 4.905E+04 8.622E+05 2.543E+06 3.454E+06 3.454E+06 2.739E+07 38.6240 1.00000
  3.981E+12 3.981E+12 4.352E+00 5.503E+04 9.673E+05 2.917E+06 3.939E+06 3.939E+06 2.751E+07 38.8543 1.00000
  4.467E+12 4.467E+12 4.373E+00 6.175E+04 1.085E+06 3.346E+06 4.493E+06 4.493E+06 2.762E+07 39.0845 1.00000
  5.012E+12 5.012E+12 4.395E+00 6.928E+04 1.218E+06 3.838E+06 5.125E+06 5.125E+06 2.774E+07 39.3148 1.00000
  5.623E+12 5.623E+12 4.416E+00 7.774E+04 1.366E+06 4.403E+06 5.847E+06 5.847E+06 2.785E+07 39.5451 1.00000
  6.310E+12 6.310E+12 4.438E+00 8.722E+04 1.533E+06 5.052E+06 6.672E+06 6.672E+06 2.796E+07 39.7753 1.00000
  7.079E+12 7.079E+12 4.459E+00 9.787E+04 1.720E+06 5.796E+06 7.614E+06 7.614E+06 2.807E+07 40.0056 1.00000
  7.943E+12 7.943E+12 4.481E+00 1.098E+05 1.930E+06 6.651E+06 8.690E+06 8.690E+06 2.818E+07 40.2358 1.00000
  8.913E+12 8.913E+12 4.503E+00 1.232E+05 2.165E+06 7.632E+06 9.920E+06 9.920E+06 2.828E+07 40.4661 1.00000
  1.000E+13 1.000E+13 4.525E+00 1.382E+05 2.429E+06 8.757E+06 1.132E+07 1.132E+07 2.838E+07 40.6964 1.00000
  1.122E+13 1.122E+13 4.547E+00 1.551E+05 2.725E+06 1.005E+07 1.293E+07 1.293E+07 2.848E+07 40.9266 1.00000
  1.259E+13 1.259E+13 4.569E+00 1.740E+05 3.058E+06 1.153E+07 1.477E+07 1.477E+07 2.858E+07 41.1569 1.00000
  1.413E+13 1.413E+13 4.592E+00 1.953E+05 3.430E+06 1.324E+07 1.686E+07 1.686E+07 2.868E+07 41.3871 1.00000
  1.585E+13 1.585E+13 4.614E+00 2.191E+05 3.849E+06 1.519E+07 1.926E+07 1.926E+07 2.878E+07 41.6174 1.00000
  1.778E+13 1.778E+13 4.637E+00 2.458E+05 4.318E+06 1.744E+07 2.200E+07 2.200E+07 2.887E+07 41.8476 1.00000
  1.995E+13 1.995E+13 4.659E+00 2.758E+05 4.845E+06 2.002E+07 2.514E+07 2.514E+07 2.896E+07 42.0779 1.00000
  2.239E+13 2.239E+13 4.682E+00 3.095E+05 5.436E+06 2.298E+07 2.872E+07 2.872E+07 2.905E+07 42.3082 1.00000
  2.512E+13 2.512E+13 4.705E+00 3.473E+05 6.099E+06 2.638E+07 3.282E+07 3.282E+07 2.914E+07 42.5384 1.00000
  2.818E+13 2.818E+13 4.728E+00 3.896E+05 6.842E+06 3.028E+07 3.751E+07 3.751E+07 2.923E+07 42.7687 1.00000
  3.162E+13 3.162E+13 4.752E+00 4.372E+05 7.677E+06 3.476E+07 4.288E+07 4.288E+07 2.932E+07 42.9989 1.00000
  3.548E+13 3.548E+13 4.775E+00 4.905E+05 8.613E+06 3.991E+07 4.902E+07 4.902E+07 2.940E+07 43.2292 1.00000
  3.981E+13 3.981E+13 4.798E+00 5.504E+05 9.664E+06 4.583E+07 5.604E+07 5.604E+07 2.948E+07 43.4595 1.00000
  4.467E+13 4.467E+13 4.822E+00 6.175E+05 1.084E+07 5.262E+07 6.408E+07 6.408E+07 2.956E+07 43.6897 1.00000
  5.012E+13 5.012E+13 4.846E+00 6.929E+05 1.216E+07 6.042E+07 7.328E+07 7.328E+07 2.964E+07 43.9200 1.00000
  5.623E+13 5.623E+13 4.869E+00 7.774E+05 1.365E+07 6.939E+07 8.381E+07 8.381E+07 2.972E+07 44.1502 1.00000
  6.310E+13 6.310E+13 4.893E+00 8.723E+05 1.531E+07 7.969E+07 9.587E+07 9.587E+07 2.980E+07 44.3805 1.00000
  7.079E+13 7.079E+13 4.918E+00 9.787E+05 1.718E+07 9.151E+07 1.097E+08 1.097E+08 2.987E+07 44.6107 1.00000
  7.943E+13 7.943E+13 4.942E+00 1.098E+06 1.927E+07 1.051E+08 1.255E+08 1.255E+08 2.995E+07 44.8410 1.00000
  8.913E+13 8.913E+13 4.966E+00 1.232E+06 2.163E+07 1.207E+08 1.436E+08 1.436E+08 3.002E+07 45.0713 1.00000
