 Incident particle is a Tau with M = 1776.82000 MeV
 Index = 0: FerrousOxide
      Absorber with <Z/A> = 0.47324
 Sternheimer coef:  a     k=m_s   x_0    x_1    I[eV]   Cbar  delta0
                 0.1296  3.0168  0.0279  3.2002  248.6  4.3175 0.00

 *** Table generated with PUMAS v1.00 ***

      T         p     Ionization  brems     pair     photonuc  Radloss    dE/dx   CSDA Range  delta   beta
    [MeV]    [MeV/c]  -----------------------[MeV cm^2/g]------------------------  [g/cm^2]
  1.000E+05 1.018E+05 1.948E+00 3.710E-04 6.060E-03 7.985E-03 1.442E-02 1.962E+00 2.548E+04  4.1693 0.99985
  1.122E+05 1.140E+05 1.968E+00 4.293E-04 7.272E-03 8.993E-03 1.669E-02 1.984E+00 3.167E+04  4.3570 0.99988
  1.259E+05 1.277E+05 1.987E+00 4.965E-04 8.701E-03 1.007E-02 1.927E-02 2.006E+00 3.853E+04  4.5476 0.99990
  1.413E+05 1.430E+05 2.007E+00 5.738E-04 1.038E-02 1.129E-02 2.224E-02 2.029E+00 4.614E+04  4.7411 0.99992
  1.585E+05 1.603E+05 2.026E+00 6.630E-04 1.235E-02 1.265E-02 2.566E-02 2.052E+00 5.459E+04  4.9374 0.99994
  1.778E+05 1.796E+05 2.045E+00 7.655E-04 1.465E-02 1.416E-02 2.958E-02 2.075E+00 6.396E+04  5.1364 0.99995
  1.995E+05 2.013E+05 2.064E+00 8.835E-04 1.735E-02 1.588E-02 3.411E-02 2.099E+00 7.436E+04  5.3379 0.99996
  2.239E+05 2.256E+05 2.083E+00 1.019E-03 2.049E-02 1.775E-02 3.926E-02 2.123E+00 8.590E+04  5.5418 0.99997
  2.512E+05 2.530E+05 2.102E+00 1.175E-03 2.415E-02 1.985E-02 4.517E-02 2.147E+00 9.869E+04  5.7481 0.99998
  2.818E+05 2.836E+05 2.121E+00 1.354E-03 2.840E-02 2.220E-02 5.196E-02 2.173E+00 1.129E+05  5.9565 0.99998
  3.162E+05 3.180E+05 2.139E+00 1.559E-03 3.333E-02 2.486E-02 5.975E-02 2.199E+00 1.286E+05  6.1671 0.99998
  3.548E+05 3.566E+05 2.158E+00 1.795E-03 3.904E-02 2.783E-02 6.867E-02 2.227E+00 1.460E+05  6.3796 0.99999
  3.981E+05 3.999E+05 2.176E+00 2.065E-03 4.564E-02 3.115E-02 7.886E-02 2.255E+00 1.654E+05  6.5940 0.99999
  4.467E+05 4.485E+05 2.194E+00 2.375E-03 5.326E-02 3.486E-02 9.050E-02 2.285E+00 1.868E+05  6.8101 0.99999
  5.012E+05 5.030E+05 2.212E+00 2.730E-03 6.205E-02 3.903E-02 1.038E-01 2.316E+00 2.105E+05  7.0279 0.99999
  5.623E+05 5.641E+05 2.230E+00 3.137E-03 7.217E-02 4.354E-02 1.188E-01 2.349E+00 2.367E+05  7.2473 1.00000
  6.310E+05 6.327E+05 2.248E+00 3.603E-03 8.380E-02 4.861E-02 1.360E-01 2.384E+00 2.657E+05  7.4681 1.00000
  7.079E+05 7.097E+05 2.265E+00 4.136E-03 9.716E-02 5.433E-02 1.556E-01 2.421E+00 2.977E+05  7.6902 1.00000
  7.943E+05 7.961E+05 2.283E+00 4.746E-03 1.125E-01 6.078E-02 1.780E-01 2.461E+00 3.331E+05  7.9135 1.00000
  8.913E+05 8.930E+05 2.300E+00 5.444E-03 1.300E-01 6.805E-02 2.035E-01 2.504E+00 3.722E+05  8.1380 1.00000
  1.000E+06 1.002E+06 2.317E+00 6.242E-03 1.501E-01 7.628E-02 2.327E-01 2.550E+00 4.152E+05  8.3635 1.00000
  1.122E+06 1.124E+06 2.334E+00 7.154E-03 1.731E-01 8.558E-02 2.658E-01 2.600E+00 4.626E+05  8.5899 1.00000
  1.259E+06 1.261E+06 2.351E+00 8.197E-03 1.993E-01 9.610E-02 3.036E-01 2.655E+00 5.147E+05  8.8171 1.00000
  1.413E+06 1.414E+06 2.368E+00 9.388E-03 2.293E-01 1.080E-01 3.467E-01 2.714E+00 5.720E+05  9.0451 1.00000
  1.585E+06 1.587E+06 2.384E+00 1.075E-02 2.633E-01 1.215E-01 3.956E-01 2.780E+00 6.347E+05  9.2736 1.00000
  1.778E+06 1.780E+06 2.400E+00 1.230E-02 3.022E-01 1.368E-01 4.513E-01 2.852E+00 7.034E+05  9.5026 1.00000
  1.995E+06 1.997E+06 2.417E+00 1.407E-02 3.463E-01 1.542E-01 5.146E-01 2.931E+00 7.785E+05  9.7321 1.00000
  2.239E+06 2.240E+06 2.433E+00 1.609E-02 3.965E-01 1.739E-01 5.865E-01 3.019E+00 8.603E+05  9.9619 1.00000
  2.512E+06 2.514E+06 2.449E+00 1.840E-02 4.534E-01 1.963E-01 6.681E-01 3.117E+00 9.494E+05 10.1919 1.00000
  2.818E+06 2.820E+06 2.464E+00 2.103E-02 5.180E-01 2.218E-01 7.608E-01 3.225E+00 1.046E+06 10.4219 1.00000
  3.162E+06 3.164E+06 2.480E+00 2.402E-02 5.913E-01 2.507E-01 8.660E-01 3.346E+00 1.151E+06 10.6521 1.00000
  3.548E+06 3.550E+06 2.495E+00 2.744E-02 6.743E-01 2.835E-01 9.853E-01 3.481E+00 1.264E+06 10.8822 1.00000
  3.981E+06 3.983E+06 2.511E+00 3.132E-02 7.683E-01 3.209E-01 1.121E+00 3.631E+00 1.386E+06 11.1124 1.00000
  4.467E+06 4.469E+06 2.526E+00 3.575E-02 8.746E-01 3.635E-01 1.274E+00 3.800E+00 1.516E+06 11.3425 1.00000
  5.012E+06 5.014E+06 2.541E+00 4.080E-02 9.947E-01 4.119E-01 1.447E+00 3.988E+00 1.657E+06 11.5727 1.00000
  5.623E+06 5.625E+06 2.556E+00 4.653E-02 1.131E+00 4.670E-01 1.644E+00 4.200E+00 1.806E+06 11.8029 1.00000
  6.310E+06 6.311E+06 2.571E+00 5.306E-02 1.284E+00 5.298E-01 1.867E+00 4.437E+00 1.965E+06 12.0331 1.00000
  7.079E+06 7.081E+06 2.585E+00 6.049E-02 1.457E+00 6.013E-01 2.119E+00 4.704E+00 2.134E+06 12.2633 1.00000
  7.943E+06 7.945E+06 2.600E+00 6.894E-02 1.652E+00 6.828E-01 2.404E+00 5.004E+00 2.312E+06 12.4935 1.00000
  8.913E+06 8.914E+06 2.614E+00 7.854E-02 1.873E+00 7.756E-01 2.727E+00 5.341E+00 2.499E+06 12.7237 1.00000
  1.000E+07 1.000E+07 2.628E+00 8.945E-02 2.121E+00 8.813E-01 3.092E+00 5.720E+00 2.696E+06 12.9539 1.00000
  1.122E+07 1.122E+07 2.642E+00 1.018E-01 2.401E+00 1.002E+00 3.505E+00 6.147E+00 2.902E+06 13.1841 1.00000
  1.259E+07 1.259E+07 2.656E+00 1.159E-01 2.716E+00 1.139E+00 3.971E+00 6.627E+00 3.117E+06 13.4143 1.00000
  1.413E+07 1.413E+07 2.670E+00 1.319E-01 3.071E+00 1.296E+00 4.499E+00 7.169E+00 3.340E+06 13.6446 1.00000
  1.585E+07 1.585E+07 2.684E+00 1.501E-01 3.471E+00 1.475E+00 5.095E+00 7.779E+00 3.571E+06 13.8748 1.00000
  1.778E+07 1.778E+07 2.697E+00 1.707E-01 3.920E+00 1.679E+00 5.770E+00 8.467E+00 3.809E+06 14.1050 1.00000
  1.995E+07 1.995E+07 2.711E+00 1.940E-01 4.426E+00 1.911E+00 6.531E+00 9.242E+00 4.055E+06 14.3353 1.00000
  2.239E+07 2.239E+07 2.724E+00 2.205E-01 4.995E+00 2.176E+00 7.392E+00 1.012E+01 4.307E+06 14.5655 1.00000
  2.512E+07 2.512E+07 2.737E+00 2.505E-01 5.635E+00 2.479E+00 8.365E+00 1.110E+01 4.565E+06 14.7957 1.00000
  2.818E+07 2.819E+07 2.751E+00 2.846E-01 6.355E+00 2.824E+00 9.464E+00 1.221E+01 4.828E+06 15.0260 1.00000
  3.162E+07 3.162E+07 2.764E+00 3.232E-01 7.164E+00 3.218E+00 1.071E+01 1.347E+01 5.097E+06 15.2562 1.00000
  3.548E+07 3.548E+07 2.777E+00 3.668E-01 8.073E+00 3.668E+00 1.211E+01 1.489E+01 5.370E+06 15.4865 1.00000
  3.981E+07 3.981E+07 2.790E+00 4.163E-01 9.095E+00 4.181E+00 1.369E+01 1.648E+01 5.646E+06 15.7167 1.00000
  4.467E+07 4.467E+07 2.803E+00 4.723E-01 1.024E+01 4.767E+00 1.548E+01 1.829E+01 5.927E+06 15.9470 1.00000
  5.012E+07 5.012E+07 2.817E+00 5.357E-01 1.153E+01 5.435E+00 1.750E+01 2.032E+01 6.210E+06 16.1772 1.00000
  5.623E+07 5.624E+07 2.830E+00 6.074E-01 1.298E+01 6.199E+00 1.979E+01 2.262E+01 6.495E+06 16.4075 1.00000
  6.310E+07 6.310E+07 2.843E+00 6.885E-01 1.461E+01 7.070E+00 2.237E+01 2.521E+01 6.783E+06 16.6377 1.00000
  7.079E+07 7.080E+07 2.856E+00 7.802E-01 1.644E+01 8.065E+00 2.528E+01 2.814E+01 7.073E+06 16.8680 1.00000
  7.943E+07 7.943E+07 2.869E+00 8.838E-01 1.849E+01 9.201E+00 2.857E+01 3.144E+01 7.364E+06 17.0982 1.00000
  8.913E+07 8.913E+07 2.882E+00 1.001E+00 2.080E+01 1.050E+01 3.229E+01 3.518E+01 7.655E+06 17.3285 1.00000
  1.000E+08 1.000E+08 2.896E+00 1.133E+00 2.338E+01 1.198E+01 3.650E+01 3.939E+01 7.948E+06 17.5587 1.00000
  1.122E+08 1.122E+08 2.909E+00 1.283E+00 2.629E+01 1.367E+01 4.124E+01 4.415E+01 8.241E+06 17.7890 1.00000
  1.259E+08 1.259E+08 2.922E+00 1.451E+00 2.955E+01 1.560E+01 4.661E+01 4.953E+01 8.534E+06 18.0192 1.00000
  1.413E+08 1.413E+08 2.935E+00 1.642E+00 3.321E+01 1.781E+01 5.266E+01 5.560E+01 8.828E+06 18.2495 1.00000
  1.585E+08 1.585E+08 2.949E+00 1.857E+00 3.732E+01 2.033E+01 5.951E+01 6.246E+01 9.121E+06 18.4798 1.00000
  1.778E+08 1.778E+08 2.962E+00 2.099E+00 4.194E+01 2.321E+01 6.725E+01 7.021E+01 9.413E+06 18.7100 1.00000
  1.995E+08 1.995E+08 2.976E+00 2.373E+00 4.712E+01 2.650E+01 7.599E+01 7.896E+01 9.705E+06 18.9403 1.00000
  2.239E+08 2.239E+08 2.989E+00 2.681E+00 5.293E+01 3.026E+01 8.587E+01 8.886E+01 9.996E+06 19.1705 1.00000
  2.512E+08 2.512E+08 3.003E+00 3.029E+00 5.946E+01 3.455E+01 9.703E+01 1.000E+02 1.029E+07 19.4008 1.00000
  2.818E+08 2.818E+08 3.016E+00 3.420E+00 6.678E+01 3.945E+01 1.097E+02 1.127E+02 1.058E+07 19.6310 1.00000
  3.162E+08 3.162E+08 3.030E+00 3.862E+00 7.500E+01 4.506E+01 1.239E+02 1.269E+02 1.086E+07 19.8613 1.00000
  3.548E+08 3.548E+08 3.044E+00 4.359E+00 8.422E+01 5.146E+01 1.400E+02 1.431E+02 1.115E+07 20.0916 1.00000
  3.981E+08 3.981E+08 3.057E+00 4.919E+00 9.458E+01 5.878E+01 1.583E+02 1.613E+02 1.144E+07 20.3218 1.00000
  4.467E+08 4.467E+08 3.071E+00 5.549E+00 1.062E+02 6.714E+01 1.789E+02 1.820E+02 1.172E+07 20.5521 1.00000
  5.012E+08 5.012E+08 3.085E+00 6.259E+00 1.192E+02 7.670E+01 2.022E+02 2.053E+02 1.200E+07 20.7823 1.00000
  5.623E+08 5.623E+08 3.099E+00 7.058E+00 1.339E+02 8.762E+01 2.285E+02 2.316E+02 1.228E+07 21.0126 1.00000
  6.310E+08 6.310E+08 3.113E+00 7.957E+00 1.503E+02 1.001E+02 2.583E+02 2.614E+02 1.256E+07 21.2428 1.00000
  7.079E+08 7.079E+08 3.127E+00 8.969E+00 1.687E+02 1.144E+02 2.920E+02 2.952E+02 1.284E+07 21.4731 1.00000
  7.943E+08 7.943E+08 3.142E+00 1.011E+01 1.894E+02 1.307E+02 3.302E+02 3.333E+02 1.312E+07 21.7034 1.00000
  8.913E+08 8.913E+08 3.156E+00 1.139E+01 2.126E+02 1.493E+02 3.733E+02 3.764E+02 1.339E+07 21.9336 1.00000
  1.000E+09 1.000E+09 3.170E+00 1.283E+01 2.386E+02 1.707E+02 4.221E+02 4.252E+02 1.366E+07 22.1639 1.00000
  1.122E+09 1.122E+09 3.185E+00 1.445E+01 2.678E+02 1.950E+02 4.773E+02 4.804E+02 1.393E+07 22.3941 1.00000
  1.259E+09 1.259E+09 3.199E+00 1.627E+01 3.006E+02 2.229E+02 5.397E+02 5.429E+02 1.420E+07 22.6244 1.00000
  1.413E+09 1.413E+09 3.214E+00 1.831E+01 3.373E+02 2.548E+02 6.104E+02 6.136E+02 1.447E+07 22.8546 1.00000
  1.585E+09 1.585E+09 3.228E+00 2.061E+01 3.786E+02 2.912E+02 6.904E+02 6.936E+02 1.473E+07 23.0849 1.00000
  1.778E+09 1.778E+09 3.243E+00 2.319E+01 4.249E+02 3.328E+02 7.809E+02 7.842E+02 1.500E+07 23.3152 1.00000
  1.995E+09 1.995E+09 3.258E+00 2.610E+01 4.768E+02 3.805E+02 8.834E+02 8.867E+02 1.526E+07 23.5454 1.00000
  2.239E+09 2.239E+09 3.273E+00 2.936E+01 5.351E+02 4.350E+02 9.995E+02 1.003E+03 1.552E+07 23.7757 1.00000
  2.512E+09 2.512E+09 3.288E+00 3.302E+01 6.005E+02 4.973E+02 1.131E+03 1.134E+03 1.577E+07 24.0059 1.00000
  2.818E+09 2.818E+09 3.303E+00 3.714E+01 6.739E+02 5.686E+02 1.280E+03 1.283E+03 1.603E+07 24.2362 1.00000
  3.162E+09 3.162E+09 3.318E+00 4.177E+01 7.562E+02 6.501E+02 1.448E+03 1.451E+03 1.628E+07 24.4665 1.00000
  3.548E+09 3.548E+09 3.333E+00 4.696E+01 8.486E+02 7.433E+02 1.639E+03 1.642E+03 1.653E+07 24.6967 1.00000
  3.981E+09 3.981E+09 3.349E+00 5.279E+01 9.523E+02 8.500E+02 1.855E+03 1.858E+03 1.678E+07 24.9270 1.00000
  4.467E+09 4.467E+09 3.364E+00 5.934E+01 1.069E+03 9.720E+02 2.100E+03 2.103E+03 1.702E+07 25.1572 1.00000
  5.012E+09 5.012E+09 3.379E+00 6.670E+01 1.199E+03 1.112E+03 2.377E+03 2.381E+03 1.727E+07 25.3875 1.00000
  5.623E+09 5.623E+09 3.395E+00 7.496E+01 1.346E+03 1.271E+03 2.692E+03 2.695E+03 1.751E+07 25.6177 1.00000
  6.310E+09 6.310E+09 3.411E+00 8.423E+01 1.510E+03 1.454E+03 3.048E+03 3.052E+03 1.775E+07 25.8480 1.00000
  7.079E+09 7.079E+09 3.426E+00 9.464E+01 1.694E+03 1.663E+03 3.452E+03 3.455E+03 1.799E+07 26.0783 1.00000
  7.943E+09 7.943E+09 3.442E+00 1.063E+02 1.901E+03 1.903E+03 3.910E+03 3.913E+03 1.822E+07 26.3085 1.00000
  8.913E+09 8.913E+09 3.458E+00 1.194E+02 2.133E+03 2.176E+03 4.429E+03 4.432E+03 1.846E+07 26.5388 1.00000
  1.000E+10 1.000E+10 3.474E+00 1.342E+02 2.393E+03 2.490E+03 5.017E+03 5.021E+03 1.869E+07 26.7690 1.00000
  1.122E+10 1.122E+10 3.490E+00 1.507E+02 2.685E+03 2.848E+03 5.685E+03 5.688E+03 1.892E+07 26.9993 1.00000
  1.259E+10 1.259E+10 3.507E+00 1.693E+02 3.013E+03 3.259E+03 6.441E+03 6.445E+03 1.914E+07 27.2296 1.00000
  1.413E+10 1.413E+10 3.523E+00 1.901E+02 3.381E+03 3.729E+03 7.300E+03 7.303E+03 1.937E+07 27.4598 1.00000
  1.585E+10 1.585E+10 3.539E+00 2.135E+02 3.794E+03 4.266E+03 8.274E+03 8.277E+03 1.959E+07 27.6901 1.00000
  1.778E+10 1.778E+10 3.556E+00 2.397E+02 4.257E+03 4.882E+03 9.378E+03 9.382E+03 1.981E+07 27.9203 1.00000
  1.995E+10 1.995E+10 3.572E+00 2.691E+02 4.776E+03 5.587E+03 1.063E+04 1.064E+04 2.003E+07 28.1506 1.00000
  2.239E+10 2.239E+10 3.589E+00 3.022E+02 5.359E+03 6.393E+03 1.205E+04 1.206E+04 2.024E+07 28.3809 1.00000
  2.512E+10 2.512E+10 3.606E+00 3.393E+02 6.013E+03 7.317E+03 1.367E+04 1.367E+04 2.045E+07 28.6111 1.00000
  2.818E+10 2.818E+10 3.623E+00 3.809E+02 6.746E+03 8.375E+03 1.550E+04 1.551E+04 2.067E+07 28.8414 1.00000
  3.162E+10 3.162E+10 3.640E+00 4.276E+02 7.570E+03 9.586E+03 1.758E+04 1.759E+04 2.087E+07 29.0716 1.00000
  3.548E+10 3.548E+10 3.657E+00 4.800E+02 8.493E+03 1.097E+04 1.995E+04 1.995E+04 2.108E+07 29.3019 1.00000
  3.981E+10 3.981E+10 3.674E+00 5.388E+02 9.530E+03 1.256E+04 2.263E+04 2.263E+04 2.128E+07 29.5321 1.00000
  4.467E+10 4.467E+10 3.691E+00 6.048E+02 1.069E+04 1.438E+04 2.568E+04 2.568E+04 2.149E+07 29.7624 1.00000
  5.012E+10 5.012E+10 3.708E+00 6.789E+02 1.200E+04 1.646E+04 2.914E+04 2.914E+04 2.169E+07 29.9927 1.00000
  5.623E+10 5.623E+10 3.726E+00 7.620E+02 1.346E+04 1.885E+04 3.307E+04 3.307E+04 2.188E+07 30.2229 1.00000
  6.310E+10 6.310E+10 3.743E+00 8.553E+02 1.510E+04 2.158E+04 3.753E+04 3.754E+04 2.208E+07 30.4532 1.00000
  7.079E+10 7.079E+10 3.761E+00 9.599E+02 1.695E+04 2.471E+04 4.261E+04 4.261E+04 2.227E+07 30.6834 1.00000
  7.943E+10 7.943E+10 3.779E+00 1.077E+03 1.901E+04 2.829E+04 4.838E+04 4.838E+04 2.246E+07 30.9137 1.00000
  8.913E+10 8.913E+10 3.796E+00 1.209E+03 2.133E+04 3.239E+04 5.494E+04 5.494E+04 2.265E+07 31.1440 1.00000
  1.000E+11 1.000E+11 3.814E+00 1.357E+03 2.393E+04 3.710E+04 6.239E+04 6.239E+04 2.284E+07 31.3742 1.00000
  1.122E+11 1.122E+11 3.832E+00 1.523E+03 2.685E+04 4.249E+04 7.086E+04 7.087E+04 2.302E+07 31.6045 1.00000
  1.259E+11 1.259E+11 3.851E+00 1.709E+03 3.013E+04 4.866E+04 8.050E+04 8.050E+04 2.320E+07 31.8347 1.00000
  1.413E+11 1.413E+11 3.869E+00 1.918E+03 3.381E+04 5.573E+04 9.146E+04 9.146E+04 2.338E+07 32.0650 1.00000
  1.585E+11 1.585E+11 3.887E+00 2.152E+03 3.793E+04 6.384E+04 1.039E+05 1.039E+05 2.356E+07 32.2952 1.00000
  1.778E+11 1.778E+11 3.906E+00 2.415E+03 4.256E+04 7.313E+04 1.181E+05 1.181E+05 2.373E+07 32.5255 1.00000
  1.995E+11 1.995E+11 3.924E+00 2.710E+03 4.775E+04 8.377E+04 1.342E+05 1.342E+05 2.391E+07 32.7558 1.00000
  2.239E+11 2.239E+11 3.943E+00 3.041E+03 5.357E+04 9.596E+04 1.526E+05 1.526E+05 2.408E+07 32.9860 1.00000
  2.512E+11 2.512E+11 3.961E+00 3.413E+03 6.011E+04 1.099E+05 1.735E+05 1.735E+05 2.424E+07 33.2163 1.00000
  2.818E+11 2.818E+11 3.980E+00 3.830E+03 6.744E+04 1.260E+05 1.972E+05 1.972E+05 2.441E+07 33.4465 1.00000
  3.162E+11 3.162E+11 3.999E+00 4.297E+03 7.567E+04 1.443E+05 2.243E+05 2.243E+05 2.457E+07 33.6768 1.00000
  3.548E+11 3.548E+11 4.018E+00 4.822E+03 8.490E+04 1.654E+05 2.551E+05 2.551E+05 2.474E+07 33.9071 1.00000
  3.981E+11 3.981E+11 4.038E+00 5.411E+03 9.525E+04 1.895E+05 2.902E+05 2.902E+05 2.490E+07 34.1373 1.00000
  4.467E+11 4.467E+11 4.057E+00 6.072E+03 1.069E+05 2.172E+05 3.301E+05 3.301E+05 2.505E+07 34.3676 1.00000
  5.012E+11 5.012E+11 4.076E+00 6.813E+03 1.199E+05 2.489E+05 3.756E+05 3.756E+05 2.521E+07 34.5978 1.00000
  5.623E+11 5.623E+11 4.096E+00 7.645E+03 1.345E+05 2.852E+05 4.274E+05 4.274E+05 2.536E+07 34.8281 1.00000
  6.310E+11 6.310E+11 4.115E+00 8.578E+03 1.509E+05 3.269E+05 4.864E+05 4.864E+05 2.551E+07 35.0583 1.00000
  7.079E+11 7.079E+11 4.135E+00 9.625E+03 1.694E+05 3.747E+05 5.537E+05 5.537E+05 2.566E+07 35.2886 1.00000
  7.943E+11 7.943E+11 4.155E+00 1.080E+04 1.900E+05 4.295E+05 6.303E+05 6.303E+05 2.581E+07 35.5189 1.00000
  8.913E+11 8.913E+11 4.175E+00 1.212E+04 2.132E+05 4.923E+05 7.177E+05 7.177E+05 2.595E+07 35.7491 1.00000
  1.000E+12 1.000E+12 4.195E+00 1.360E+04 2.392E+05 5.644E+05 8.172E+05 8.172E+05 2.609E+07 35.9794 1.00000
  1.122E+12 1.122E+12 4.215E+00 1.526E+04 2.684E+05 6.471E+05 9.307E+05 9.307E+05 2.623E+07 36.2096 1.00000
  1.259E+12 1.259E+12 4.235E+00 1.712E+04 3.011E+05 7.418E+05 1.060E+06 1.060E+06 2.637E+07 36.4399 1.00000
  1.413E+12 1.413E+12 4.256E+00 1.921E+04 3.378E+05 8.505E+05 1.208E+06 1.208E+06 2.651E+07 36.6702 1.00000
  1.585E+12 1.585E+12 4.276E+00 2.155E+04 3.791E+05 9.752E+05 1.376E+06 1.376E+06 2.664E+07 36.9004 1.00000
  1.778E+12 1.778E+12 4.297E+00 2.418E+04 4.253E+05 1.118E+06 1.568E+06 1.568E+06 2.677E+07 37.1307 1.00000
  1.995E+12 1.995E+12 4.318E+00 2.713E+04 4.772E+05 1.282E+06 1.787E+06 1.787E+06 2.690E+07 37.3609 1.00000
  2.239E+12 2.239E+12 4.338E+00 3.044E+04 5.354E+05 1.471E+06 2.036E+06 2.036E+06 2.703E+07 37.5912 1.00000
  2.512E+12 2.512E+12 4.359E+00 3.416E+04 6.007E+05 1.686E+06 2.321E+06 2.321E+06 2.716E+07 37.8214 1.00000
  2.818E+12 2.818E+12 4.380E+00 3.833E+04 6.739E+05 1.934E+06 2.646E+06 2.646E+06 2.728E+07 38.0517 1.00000
  3.162E+12 3.162E+12 4.402E+00 4.301E+04 7.561E+05 2.218E+06 3.018E+06 3.018E+06 2.740E+07 38.2820 1.00000
  3.548E+12 3.548E+12 4.423E+00 4.825E+04 8.483E+05 2.545E+06 3.441E+06 3.441E+06 2.752E+07 38.5122 1.00000
  3.981E+12 3.981E+12 4.444E+00 5.414E+04 9.518E+05 2.919E+06 3.925E+06 3.925E+06 2.764E+07 38.7425 1.00000
  4.467E+12 4.467E+12 4.466E+00 6.075E+04 1.068E+06 3.348E+06 4.477E+06 4.477E+06 2.776E+07 38.9727 1.00000
  5.012E+12 5.012E+12 4.488E+00 6.816E+04 1.198E+06 3.841E+06 5.107E+06 5.107E+06 2.787E+07 39.2030 1.00000
  5.623E+12 5.623E+12 4.509E+00 7.648E+04 1.344E+06 4.407E+06 5.827E+06 5.827E+06 2.798E+07 39.4333 1.00000
  6.310E+12 6.310E+12 4.531E+00 8.581E+04 1.508E+06 5.056E+06 6.650E+06 6.650E+06 2.810E+07 39.6635 1.00000
  7.079E+12 7.079E+12 4.553E+00 9.628E+04 1.692E+06 5.801E+06 7.589E+06 7.589E+06 2.820E+07 39.8938 1.00000
  7.943E+12 7.943E+12 4.575E+00 1.080E+05 1.899E+06 6.656E+06 8.662E+06 8.662E+06 2.831E+07 40.1240 1.00000
  8.913E+12 8.913E+12 4.598E+00 1.212E+05 2.130E+06 7.637E+06 9.888E+06 9.888E+06 2.842E+07 40.3543 1.00000
  1.000E+13 1.000E+13 4.620E+00 1.360E+05 2.390E+06 8.764E+06 1.129E+07 1.129E+07 2.852E+07 40.5846 1.00000
  1.122E+13 1.122E+13 4.643E+00 1.526E+05 2.681E+06 1.006E+07 1.289E+07 1.289E+07 2.862E+07 40.8148 1.00000
  1.259E+13 1.259E+13 4.665E+00 1.712E+05 3.008E+06 1.154E+07 1.472E+07 1.472E+07 2.872E+07 41.0451 1.00000
  1.413E+13 1.413E+13 4.688E+00 1.921E+05 3.375E+06 1.325E+07 1.681E+07 1.681E+07 2.882E+07 41.2753 1.00000
  1.585E+13 1.585E+13 4.711E+00 2.156E+05 3.787E+06 1.520E+07 1.921E+07 1.921E+07 2.891E+07 41.5056 1.00000
  1.778E+13 1.778E+13 4.734E+00 2.419E+05 4.249E+06 1.745E+07 2.194E+07 2.194E+07 2.901E+07 41.7358 1.00000
  1.995E+13 1.995E+13 4.757E+00 2.714E+05 4.767E+06 2.003E+07 2.507E+07 2.507E+07 2.910E+07 41.9661 1.00000
  2.239E+13 2.239E+13 4.780E+00 3.045E+05 5.349E+06 2.299E+07 2.865E+07 2.865E+07 2.919E+07 42.1964 1.00000
  2.512E+13 2.512E+13 4.804E+00 3.416E+05 6.001E+06 2.639E+07 3.274E+07 3.274E+07 2.928E+07 42.4266 1.00000
  2.818E+13 2.818E+13 4.827E+00 3.833E+05 6.733E+06 3.030E+07 3.742E+07 3.742E+07 2.937E+07 42.6569 1.00000
  3.162E+13 3.162E+13 4.851E+00 4.301E+05 7.554E+06 3.479E+07 4.277E+07 4.277E+07 2.946E+07 42.8871 1.00000
  3.548E+13 3.548E+13 4.874E+00 4.826E+05 8.475E+06 3.994E+07 4.890E+07 4.890E+07 2.954E+07 43.1174 1.00000
  3.981E+13 3.981E+13 4.898E+00 5.415E+05 9.509E+06 4.586E+07 5.591E+07 5.591E+07 2.962E+07 43.3477 1.00000
  4.467E+13 4.467E+13 4.922E+00 6.075E+05 1.067E+07 5.266E+07 6.393E+07 6.393E+07 2.970E+07 43.5779 1.00000
  5.012E+13 5.012E+13 4.946E+00 6.817E+05 1.197E+07 6.047E+07 7.312E+07 7.312E+07 2.978E+07 43.8082 1.00000
  5.623E+13 5.623E+13 4.971E+00 7.648E+05 1.343E+07 6.944E+07 8.363E+07 8.363E+07 2.986E+07 44.0384 1.00000
  6.310E+13 6.310E+13 4.995E+00 8.582E+05 1.507E+07 7.974E+07 9.567E+07 9.567E+07 2.994E+07 44.2687 1.00000
  7.079E+13 7.079E+13 5.020E+00 9.629E+05 1.690E+07 9.158E+07 1.094E+08 1.094E+08 3.001E+07 44.4989 1.00000
  7.943E+13 7.943E+13 5.044E+00 1.080E+06 1.897E+07 1.052E+08 1.252E+08 1.252E+08 3.009E+07 44.7292 1.00000
  8.913E+13 8.913E+13 5.069E+00 1.212E+06 2.128E+07 1.208E+08 1.433E+08 1.433E+08 3.016E+07 44.9595 1.00000
