 Incident particle is a Tau with M = 1776.82000 MeV
 Index = 0: FerricOxide
      Absorber with <Z/A> = 0.47593
 Sternheimer coef:  a     k=m_s   x_0    x_1    I[eV]   Cbar  delta0
                 0.1048  3.1313  0.0074  3.2573  227.3  4.2245 0.00

 *** Table generated with PUMAS v1.00 ***

      T         p     Ionization  brems     pair     photonuc  Radloss    dE/dx   CSDA Range  delta   beta
    [MeV]    [MeV/c]  -----------------------[MeV cm^2/g]------------------------  [g/cm^2]
  1.000E+05 1.018E+05 1.966E+00 3.496E-04 5.697E-03 8.013E-03 1.406E-02 1.981E+00 2.525E+04  4.2437 0.99985
  1.122E+05 1.140E+05 1.986E+00 4.044E-04 6.839E-03 9.027E-03 1.627E-02 2.002E+00 3.137E+04  4.4332 0.99988
  1.259E+05 1.277E+05 2.006E+00 4.677E-04 8.183E-03 1.012E-02 1.877E-02 2.025E+00 3.817E+04  4.6257 0.99990
  1.413E+05 1.430E+05 2.025E+00 5.406E-04 9.764E-03 1.134E-02 2.164E-02 2.047E+00 4.572E+04  4.8210 0.99992
  1.585E+05 1.603E+05 2.045E+00 6.245E-04 1.162E-02 1.270E-02 2.495E-02 2.070E+00 5.409E+04  5.0189 0.99994
  1.778E+05 1.796E+05 2.064E+00 7.211E-04 1.379E-02 1.422E-02 2.873E-02 2.093E+00 6.338E+04  5.2194 0.99995
  1.995E+05 2.013E+05 2.083E+00 8.321E-04 1.633E-02 1.596E-02 3.311E-02 2.116E+00 7.370E+04  5.4224 0.99996
  2.239E+05 2.256E+05 2.102E+00 9.598E-04 1.929E-02 1.784E-02 3.809E-02 2.140E+00 8.514E+04  5.6277 0.99997
  2.512E+05 2.530E+05 2.121E+00 1.106E-03 2.273E-02 1.995E-02 4.379E-02 2.165E+00 9.783E+04  5.8351 0.99998
  2.818E+05 2.836E+05 2.140E+00 1.275E-03 2.674E-02 2.233E-02 5.034E-02 2.190E+00 1.119E+05  6.0447 0.99998
  3.162E+05 3.180E+05 2.158E+00 1.468E-03 3.138E-02 2.500E-02 5.785E-02 2.216E+00 1.275E+05  6.2562 0.99998
  3.548E+05 3.566E+05 2.177E+00 1.690E-03 3.676E-02 2.800E-02 6.645E-02 2.243E+00 1.448E+05  6.4697 0.99999
  3.981E+05 3.999E+05 2.195E+00 1.945E-03 4.298E-02 3.135E-02 7.627E-02 2.271E+00 1.640E+05  6.6849 0.99999
  4.467E+05 4.485E+05 2.213E+00 2.236E-03 5.016E-02 3.509E-02 8.748E-02 2.301E+00 1.853E+05  6.9017 0.99999
  5.012E+05 5.030E+05 2.231E+00 2.571E-03 5.844E-02 3.929E-02 1.003E-01 2.331E+00 2.088E+05  7.1201 0.99999
  5.623E+05 5.641E+05 2.249E+00 2.954E-03 6.798E-02 4.384E-02 1.148E-01 2.364E+00 2.348E+05  7.3399 1.00000
  6.310E+05 6.327E+05 2.267E+00 3.392E-03 7.894E-02 4.895E-02 1.313E-01 2.398E+00 2.637E+05  7.5611 1.00000
  7.079E+05 7.097E+05 2.284E+00 3.894E-03 9.154E-02 5.472E-02 1.502E-01 2.435E+00 2.955E+05  7.7836 1.00000
  7.943E+05 7.961E+05 2.302E+00 4.468E-03 1.060E-01 6.123E-02 1.717E-01 2.474E+00 3.307E+05  8.0071 1.00000
  8.913E+05 8.930E+05 2.319E+00 5.125E-03 1.225E-01 6.857E-02 1.962E-01 2.516E+00 3.696E+05  8.2318 1.00000
  1.000E+06 1.002E+06 2.336E+00 5.876E-03 1.415E-01 7.687E-02 2.242E-01 2.561E+00 4.124E+05  8.4573 1.00000
  1.122E+06 1.124E+06 2.354E+00 6.735E-03 1.632E-01 8.626E-02 2.561E-01 2.610E+00 4.596E+05  8.6838 1.00000
  1.259E+06 1.261E+06 2.370E+00 7.716E-03 1.879E-01 9.688E-02 2.925E-01 2.663E+00 5.116E+05  8.9109 1.00000
  1.413E+06 1.414E+06 2.387E+00 8.837E-03 2.161E-01 1.089E-01 3.339E-01 2.721E+00 5.686E+05  9.1388 1.00000
  1.585E+06 1.587E+06 2.404E+00 1.012E-02 2.483E-01 1.225E-01 3.809E-01 2.785E+00 6.313E+05  9.3672 1.00000
  1.778E+06 1.780E+06 2.420E+00 1.158E-02 2.849E-01 1.380E-01 4.345E-01 2.855E+00 6.999E+05  9.5961 1.00000
  1.995E+06 1.997E+06 2.437E+00 1.325E-02 3.265E-01 1.555E-01 4.953E-01 2.932E+00 7.749E+05  9.8254 1.00000
  2.239E+06 2.240E+06 2.453E+00 1.515E-02 3.739E-01 1.754E-01 5.645E-01 3.017E+00 8.567E+05 10.0551 1.00000
  2.512E+06 2.514E+06 2.469E+00 1.732E-02 4.276E-01 1.981E-01 6.430E-01 3.112E+00 9.459E+05 10.2849 1.00000
  2.818E+06 2.820E+06 2.485E+00 1.979E-02 4.886E-01 2.237E-01 7.321E-01 3.217E+00 1.043E+06 10.5150 1.00000
  3.162E+06 3.164E+06 2.500E+00 2.262E-02 5.577E-01 2.529E-01 8.333E-01 3.334E+00 1.148E+06 10.7451 1.00000
  3.548E+06 3.550E+06 2.516E+00 2.583E-02 6.361E-01 2.861E-01 9.481E-01 3.464E+00 1.261E+06 10.9752 1.00000
  3.981E+06 3.983E+06 2.531E+00 2.949E-02 7.248E-01 3.239E-01 1.078E+00 3.610E+00 1.384E+06 11.2054 1.00000
  4.467E+06 4.469E+06 2.547E+00 3.366E-02 8.251E-01 3.669E-01 1.226E+00 3.772E+00 1.516E+06 11.4355 1.00000
  5.012E+06 5.014E+06 2.562E+00 3.841E-02 9.386E-01 4.158E-01 1.393E+00 3.955E+00 1.657E+06 11.6657 1.00000
  5.623E+06 5.625E+06 2.577E+00 4.382E-02 1.067E+00 4.714E-01 1.582E+00 4.159E+00 1.808E+06 11.8959 1.00000
  6.310E+06 6.311E+06 2.592E+00 4.997E-02 1.212E+00 5.348E-01 1.796E+00 4.388E+00 1.968E+06 12.1261 1.00000
  7.079E+06 7.081E+06 2.606E+00 5.696E-02 1.375E+00 6.070E-01 2.039E+00 4.645E+00 2.139E+06 12.3563 1.00000
  7.943E+06 7.945E+06 2.621E+00 6.492E-02 1.560E+00 6.893E-01 2.314E+00 4.935E+00 2.319E+06 12.5865 1.00000
  8.913E+06 8.914E+06 2.635E+00 7.396E-02 1.768E+00 7.830E-01 2.625E+00 5.260E+00 2.510E+06 12.8167 1.00000
  1.000E+07 1.000E+07 2.649E+00 8.424E-02 2.002E+00 8.899E-01 2.976E+00 5.626E+00 2.710E+06 13.0469 1.00000
  1.122E+07 1.122E+07 2.663E+00 9.592E-02 2.267E+00 1.012E+00 3.374E+00 6.037E+00 2.919E+06 13.2771 1.00000
  1.259E+07 1.259E+07 2.677E+00 1.092E-01 2.564E+00 1.150E+00 3.824E+00 6.501E+00 3.138E+06 13.5073 1.00000
  1.413E+07 1.413E+07 2.691E+00 1.243E-01 2.900E+00 1.309E+00 4.333E+00 7.024E+00 3.365E+06 13.7376 1.00000
  1.585E+07 1.585E+07 2.705E+00 1.414E-01 3.277E+00 1.489E+00 4.908E+00 7.613E+00 3.601E+06 13.9678 1.00000
  1.778E+07 1.778E+07 2.719E+00 1.608E-01 3.702E+00 1.695E+00 5.558E+00 8.277E+00 3.845E+06 14.1980 1.00000
  1.995E+07 1.995E+07 2.732E+00 1.828E-01 4.180E+00 1.930E+00 6.293E+00 9.025E+00 4.096E+06 14.4283 1.00000
  2.239E+07 2.239E+07 2.746E+00 2.077E-01 4.718E+00 2.198E+00 7.123E+00 9.869E+00 4.355E+06 14.6585 1.00000
  2.512E+07 2.512E+07 2.759E+00 2.360E-01 5.322E+00 2.504E+00 8.062E+00 1.082E+01 4.619E+06 14.8887 1.00000
  2.818E+07 2.819E+07 2.773E+00 2.681E-01 6.002E+00 2.852E+00 9.123E+00 1.190E+01 4.890E+06 15.1190 1.00000
  3.162E+07 3.162E+07 2.786E+00 3.045E-01 6.767E+00 3.250E+00 1.032E+01 1.311E+01 5.165E+06 15.3492 1.00000
  3.548E+07 3.548E+07 2.799E+00 3.457E-01 7.626E+00 3.704E+00 1.168E+01 1.448E+01 5.446E+06 15.5795 1.00000
  3.981E+07 3.981E+07 2.812E+00 3.923E-01 8.592E+00 4.223E+00 1.321E+01 1.602E+01 5.731E+06 15.8097 1.00000
  4.467E+07 4.467E+07 2.826E+00 4.451E-01 9.677E+00 4.814E+00 1.494E+01 1.776E+01 6.019E+06 16.0400 1.00000
  5.012E+07 5.012E+07 2.839E+00 5.049E-01 1.090E+01 5.490E+00 1.689E+01 1.973E+01 6.310E+06 16.2702 1.00000
  5.623E+07 5.624E+07 2.852E+00 5.725E-01 1.226E+01 6.261E+00 1.910E+01 2.195E+01 6.605E+06 16.5005 1.00000
  6.310E+07 6.310E+07 2.865E+00 6.489E-01 1.380E+01 7.141E+00 2.159E+01 2.446E+01 6.901E+06 16.7307 1.00000
  7.079E+07 7.080E+07 2.879E+00 7.354E-01 1.553E+01 8.145E+00 2.441E+01 2.729E+01 7.200E+06 16.9610 1.00000
  7.943E+07 7.943E+07 2.892E+00 8.331E-01 1.747E+01 9.293E+00 2.760E+01 3.049E+01 7.500E+06 17.1912 1.00000
  8.913E+07 8.913E+07 2.905E+00 9.436E-01 1.965E+01 1.060E+01 3.120E+01 3.410E+01 7.801E+06 17.4215 1.00000
  1.000E+08 1.000E+08 2.918E+00 1.068E+00 2.209E+01 1.210E+01 3.526E+01 3.818E+01 8.103E+06 17.6517 1.00000
  1.122E+08 1.122E+08 2.932E+00 1.209E+00 2.484E+01 1.381E+01 3.986E+01 4.279E+01 8.405E+06 17.8820 1.00000
  1.259E+08 1.259E+08 2.945E+00 1.368E+00 2.792E+01 1.576E+01 4.505E+01 4.800E+01 8.708E+06 18.1122 1.00000
  1.413E+08 1.413E+08 2.958E+00 1.548E+00 3.139E+01 1.799E+01 5.092E+01 5.388E+01 9.010E+06 18.3425 1.00000
  1.585E+08 1.585E+08 2.972E+00 1.751E+00 3.527E+01 2.053E+01 5.756E+01 6.053E+01 9.313E+06 18.5728 1.00000
  1.778E+08 1.778E+08 2.985E+00 1.980E+00 3.963E+01 2.344E+01 6.505E+01 6.804E+01 9.614E+06 18.8030 1.00000
  1.995E+08 1.995E+08 2.999E+00 2.238E+00 4.453E+01 2.676E+01 7.353E+01 7.653E+01 9.916E+06 19.0333 1.00000
  2.239E+08 2.239E+08 3.012E+00 2.528E+00 5.002E+01 3.056E+01 8.311E+01 8.612E+01 1.022E+07 19.2635 1.00000
  2.512E+08 2.512E+08 3.026E+00 2.856E+00 5.619E+01 3.490E+01 9.394E+01 9.697E+01 1.052E+07 19.4938 1.00000
  2.818E+08 2.818E+08 3.040E+00 3.226E+00 6.311E+01 3.985E+01 1.062E+02 1.092E+02 1.081E+07 19.7240 1.00000
  3.162E+08 3.162E+08 3.053E+00 3.643E+00 7.088E+01 4.551E+01 1.200E+02 1.231E+02 1.111E+07 19.9543 1.00000
  3.548E+08 3.548E+08 3.067E+00 4.112E+00 7.960E+01 5.198E+01 1.357E+02 1.388E+02 1.141E+07 20.1846 1.00000
  3.981E+08 3.981E+08 3.081E+00 4.640E+00 8.938E+01 5.937E+01 1.534E+02 1.565E+02 1.170E+07 20.4148 1.00000
  4.467E+08 4.467E+08 3.095E+00 5.236E+00 1.004E+02 6.782E+01 1.734E+02 1.765E+02 1.199E+07 20.6451 1.00000
  5.012E+08 5.012E+08 3.109E+00 5.906E+00 1.127E+02 7.747E+01 1.961E+02 1.992E+02 1.229E+07 20.8753 1.00000
  5.623E+08 5.623E+08 3.123E+00 6.660E+00 1.265E+02 8.850E+01 2.217E+02 2.248E+02 1.257E+07 21.1056 1.00000
  6.310E+08 6.310E+08 3.137E+00 7.508E+00 1.420E+02 1.011E+02 2.506E+02 2.538E+02 1.286E+07 21.3358 1.00000
  7.079E+08 7.079E+08 3.151E+00 8.464E+00 1.594E+02 1.155E+02 2.834E+02 2.866E+02 1.315E+07 21.5661 1.00000
  7.943E+08 7.943E+08 3.166E+00 9.538E+00 1.790E+02 1.320E+02 3.205E+02 3.237E+02 1.343E+07 21.7964 1.00000
  8.913E+08 8.913E+08 3.180E+00 1.075E+01 2.009E+02 1.508E+02 3.625E+02 3.657E+02 1.371E+07 22.0266 1.00000
  1.000E+09 1.000E+09 3.194E+00 1.211E+01 2.255E+02 1.724E+02 4.100E+02 4.132E+02 1.400E+07 22.2569 1.00000
  1.122E+09 1.122E+09 3.209E+00 1.363E+01 2.531E+02 1.970E+02 4.637E+02 4.669E+02 1.427E+07 22.4871 1.00000
  1.259E+09 1.259E+09 3.224E+00 1.535E+01 2.841E+02 2.251E+02 5.246E+02 5.278E+02 1.455E+07 22.7174 1.00000
  1.413E+09 1.413E+09 3.238E+00 1.728E+01 3.188E+02 2.573E+02 5.934E+02 5.967E+02 1.482E+07 22.9476 1.00000
  1.585E+09 1.585E+09 3.253E+00 1.946E+01 3.578E+02 2.941E+02 6.714E+02 6.747E+02 1.510E+07 23.1779 1.00000
  1.778E+09 1.778E+09 3.268E+00 2.190E+01 4.016E+02 3.362E+02 7.597E+02 7.629E+02 1.537E+07 23.4082 1.00000
  1.995E+09 1.995E+09 3.283E+00 2.464E+01 4.507E+02 3.843E+02 8.596E+02 8.629E+02 1.563E+07 23.6384 1.00000
  2.239E+09 2.239E+09 3.298E+00 2.772E+01 5.058E+02 4.394E+02 9.728E+02 9.761E+02 1.590E+07 23.8687 1.00000
  2.512E+09 2.512E+09 3.313E+00 3.118E+01 5.676E+02 5.023E+02 1.101E+03 1.104E+03 1.616E+07 24.0989 1.00000
  2.818E+09 2.818E+09 3.328E+00 3.507E+01 6.369E+02 5.743E+02 1.246E+03 1.250E+03 1.642E+07 24.3292 1.00000
  3.162E+09 3.162E+09 3.343E+00 3.944E+01 7.148E+02 6.566E+02 1.411E+03 1.414E+03 1.668E+07 24.5595 1.00000
  3.548E+09 3.548E+09 3.358E+00 4.434E+01 8.021E+02 7.508E+02 1.597E+03 1.601E+03 1.694E+07 24.7897 1.00000
  3.981E+09 3.981E+09 3.374E+00 4.985E+01 9.001E+02 8.586E+02 1.808E+03 1.812E+03 1.720E+07 25.0200 1.00000
  4.467E+09 4.467E+09 3.389E+00 5.604E+01 1.010E+03 9.818E+02 2.048E+03 2.051E+03 1.745E+07 25.2502 1.00000
  5.012E+09 5.012E+09 3.405E+00 6.299E+01 1.133E+03 1.123E+03 2.319E+03 2.323E+03 1.770E+07 25.4805 1.00000
  5.623E+09 5.623E+09 3.421E+00 7.079E+01 1.272E+03 1.284E+03 2.627E+03 2.630E+03 1.795E+07 25.7107 1.00000
  6.310E+09 6.310E+09 3.436E+00 7.955E+01 1.427E+03 1.469E+03 2.975E+03 2.979E+03 1.819E+07 25.9410 1.00000
  7.079E+09 7.079E+09 3.452E+00 8.938E+01 1.601E+03 1.680E+03 3.371E+03 3.374E+03 1.844E+07 26.1713 1.00000
  7.943E+09 7.943E+09 3.468E+00 1.004E+02 1.797E+03 1.922E+03 3.819E+03 3.822E+03 1.868E+07 26.4015 1.00000
  8.913E+09 8.913E+09 3.484E+00 1.128E+02 2.016E+03 2.198E+03 4.327E+03 4.331E+03 1.892E+07 26.6318 1.00000
  1.000E+10 1.000E+10 3.500E+00 1.267E+02 2.262E+03 2.515E+03 4.904E+03 4.907E+03 1.915E+07 26.8620 1.00000
  1.122E+10 1.122E+10 3.516E+00 1.423E+02 2.538E+03 2.877E+03 5.558E+03 5.561E+03 1.939E+07 27.0923 1.00000
  1.259E+10 1.259E+10 3.533E+00 1.599E+02 2.848E+03 3.292E+03 6.300E+03 6.303E+03 1.962E+07 27.3226 1.00000
  1.413E+10 1.413E+10 3.549E+00 1.795E+02 3.196E+03 3.766E+03 7.141E+03 7.145E+03 1.985E+07 27.5528 1.00000
  1.585E+10 1.585E+10 3.566E+00 2.016E+02 3.586E+03 4.309E+03 8.097E+03 8.100E+03 2.007E+07 27.7831 1.00000
  1.778E+10 1.778E+10 3.582E+00 2.264E+02 4.023E+03 4.931E+03 9.181E+03 9.184E+03 2.030E+07 28.0133 1.00000
  1.995E+10 1.995E+10 3.599E+00 2.542E+02 4.514E+03 5.643E+03 1.041E+04 1.041E+04 2.052E+07 28.2436 1.00000
  2.239E+10 2.239E+10 3.616E+00 2.855E+02 5.065E+03 6.458E+03 1.181E+04 1.181E+04 2.074E+07 28.4739 1.00000
  2.512E+10 2.512E+10 3.632E+00 3.205E+02 5.683E+03 7.391E+03 1.339E+04 1.340E+04 2.096E+07 28.7041 1.00000
  2.818E+10 2.818E+10 3.649E+00 3.598E+02 6.377E+03 8.459E+03 1.520E+04 1.520E+04 2.117E+07 28.9344 1.00000
  3.162E+10 3.162E+10 3.666E+00 4.039E+02 7.155E+03 9.682E+03 1.724E+04 1.724E+04 2.139E+07 29.1646 1.00000
  3.548E+10 3.548E+10 3.684E+00 4.535E+02 8.028E+03 1.108E+04 1.956E+04 1.957E+04 2.160E+07 29.3949 1.00000
  3.981E+10 3.981E+10 3.701E+00 5.090E+02 9.007E+03 1.269E+04 2.220E+04 2.221E+04 2.180E+07 29.6251 1.00000
  4.467E+10 4.467E+10 3.718E+00 5.714E+02 1.011E+04 1.452E+04 2.520E+04 2.520E+04 2.201E+07 29.8554 1.00000
  5.012E+10 5.012E+10 3.736E+00 6.414E+02 1.134E+04 1.663E+04 2.861E+04 2.861E+04 2.221E+07 30.0857 1.00000
  5.623E+10 5.623E+10 3.753E+00 7.199E+02 1.272E+04 1.903E+04 3.248E+04 3.248E+04 2.241E+07 30.3159 1.00000
  6.310E+10 6.310E+10 3.771E+00 8.080E+02 1.427E+04 2.179E+04 3.688E+04 3.688E+04 2.261E+07 30.5462 1.00000
  7.079E+10 7.079E+10 3.788E+00 9.069E+02 1.602E+04 2.495E+04 4.188E+04 4.188E+04 2.281E+07 30.7764 1.00000
  7.943E+10 7.943E+10 3.806E+00 1.018E+03 1.797E+04 2.857E+04 4.756E+04 4.757E+04 2.300E+07 31.0067 1.00000
  8.913E+10 8.913E+10 3.824E+00 1.142E+03 2.016E+04 3.272E+04 5.403E+04 5.403E+04 2.320E+07 31.2370 1.00000
  1.000E+11 1.000E+11 3.842E+00 1.282E+03 2.262E+04 3.747E+04 6.138E+04 6.138E+04 2.338E+07 31.4672 1.00000
  1.122E+11 1.122E+11 3.860E+00 1.439E+03 2.538E+04 4.291E+04 6.973E+04 6.974E+04 2.357E+07 31.6975 1.00000
  1.259E+11 1.259E+11 3.879E+00 1.615E+03 2.848E+04 4.915E+04 7.924E+04 7.925E+04 2.376E+07 31.9277 1.00000
  1.413E+11 1.413E+11 3.897E+00 1.812E+03 3.195E+04 5.629E+04 9.006E+04 9.006E+04 2.394E+07 32.1580 1.00000
  1.585E+11 1.585E+11 3.915E+00 2.033E+03 3.585E+04 6.448E+04 1.024E+05 1.024E+05 2.412E+07 32.3882 1.00000
  1.778E+11 1.778E+11 3.934E+00 2.282E+03 4.022E+04 7.386E+04 1.164E+05 1.164E+05 2.430E+07 32.6185 1.00000
  1.995E+11 1.995E+11 3.953E+00 2.561E+03 4.513E+04 8.461E+04 1.323E+05 1.323E+05 2.447E+07 32.8488 1.00000
  2.239E+11 2.239E+11 3.971E+00 2.873E+03 5.064E+04 9.693E+04 1.504E+05 1.504E+05 2.464E+07 33.0790 1.00000
  2.512E+11 2.512E+11 3.990E+00 3.224E+03 5.681E+04 1.111E+05 1.711E+05 1.711E+05 2.481E+07 33.3093 1.00000
  2.818E+11 2.818E+11 4.009E+00 3.618E+03 6.374E+04 1.272E+05 1.946E+05 1.946E+05 2.498E+07 33.5395 1.00000
  3.162E+11 3.162E+11 4.028E+00 4.060E+03 7.152E+04 1.458E+05 2.214E+05 2.214E+05 2.515E+07 33.7698 1.00000
  3.548E+11 3.548E+11 4.047E+00 4.556E+03 8.024E+04 1.670E+05 2.518E+05 2.518E+05 2.531E+07 34.0001 1.00000
  3.981E+11 3.981E+11 4.067E+00 5.112E+03 9.003E+04 1.914E+05 2.866E+05 2.866E+05 2.547E+07 34.2303 1.00000
  4.467E+11 4.467E+11 4.086E+00 5.737E+03 1.010E+05 2.194E+05 3.261E+05 3.261E+05 2.563E+07 34.4606 1.00000
  5.012E+11 5.012E+11 4.106E+00 6.437E+03 1.133E+05 2.514E+05 3.712E+05 3.712E+05 2.579E+07 34.6908 1.00000
  5.623E+11 5.623E+11 4.125E+00 7.223E+03 1.272E+05 2.881E+05 4.225E+05 4.225E+05 2.594E+07 34.9211 1.00000
  6.310E+11 6.310E+11 4.145E+00 8.105E+03 1.427E+05 3.302E+05 4.810E+05 4.810E+05 2.610E+07 35.1513 1.00000
  7.079E+11 7.079E+11 4.165E+00 9.094E+03 1.601E+05 3.785E+05 5.476E+05 5.476E+05 2.625E+07 35.3816 1.00000
  7.943E+11 7.943E+11 4.185E+00 1.020E+04 1.796E+05 4.338E+05 6.236E+05 6.236E+05 2.640E+07 35.6119 1.00000
  8.913E+11 8.913E+11 4.205E+00 1.145E+04 2.015E+05 4.973E+05 7.103E+05 7.103E+05 2.654E+07 35.8421 1.00000
  1.000E+12 1.000E+12 4.225E+00 1.285E+04 2.261E+05 5.701E+05 8.090E+05 8.090E+05 2.669E+07 36.0724 1.00000
  1.122E+12 1.122E+12 4.245E+00 1.442E+04 2.537E+05 6.536E+05 9.216E+05 9.217E+05 2.683E+07 36.3026 1.00000
  1.259E+12 1.259E+12 4.266E+00 1.617E+04 2.846E+05 7.493E+05 1.050E+06 1.050E+06 2.697E+07 36.5329 1.00000
  1.413E+12 1.413E+12 4.286E+00 1.815E+04 3.193E+05 8.591E+05 1.197E+06 1.197E+06 2.710E+07 36.7632 1.00000
  1.585E+12 1.585E+12 4.307E+00 2.036E+04 3.583E+05 9.851E+05 1.364E+06 1.364E+06 2.724E+07 36.9934 1.00000
  1.778E+12 1.778E+12 4.328E+00 2.285E+04 4.020E+05 1.130E+06 1.554E+06 1.554E+06 2.737E+07 37.2237 1.00000
  1.995E+12 1.995E+12 4.348E+00 2.564E+04 4.510E+05 1.295E+06 1.772E+06 1.772E+06 2.750E+07 37.4539 1.00000
  2.239E+12 2.239E+12 4.369E+00 2.877E+04 5.060E+05 1.485E+06 2.020E+06 2.020E+06 2.763E+07 37.6842 1.00000
  2.512E+12 2.512E+12 4.390E+00 3.228E+04 5.677E+05 1.703E+06 2.303E+06 2.303E+06 2.776E+07 37.9144 1.00000
  2.818E+12 2.818E+12 4.412E+00 3.622E+04 6.370E+05 1.954E+06 2.627E+06 2.627E+06 2.788E+07 38.1447 1.00000
  3.162E+12 3.162E+12 4.433E+00 4.063E+04 7.147E+05 2.241E+06 2.996E+06 2.996E+06 2.801E+07 38.3750 1.00000
  3.548E+12 3.548E+12 4.454E+00 4.559E+04 8.018E+05 2.570E+06 3.418E+06 3.418E+06 2.813E+07 38.6052 1.00000
  3.981E+12 3.981E+12 4.476E+00 5.116E+04 8.996E+05 2.948E+06 3.899E+06 3.899E+06 2.825E+07 38.8355 1.00000
  4.467E+12 4.467E+12 4.498E+00 5.740E+04 1.009E+06 3.382E+06 4.449E+06 4.449E+06 2.836E+07 39.0657 1.00000
  5.012E+12 5.012E+12 4.519E+00 6.440E+04 1.132E+06 3.880E+06 5.077E+06 5.077E+06 2.848E+07 39.2960 1.00000
  5.623E+12 5.623E+12 4.541E+00 7.226E+04 1.271E+06 4.451E+06 5.794E+06 5.794E+06 2.859E+07 39.5263 1.00000
  6.310E+12 6.310E+12 4.563E+00 8.108E+04 1.426E+06 5.107E+06 6.613E+06 6.613E+06 2.870E+07 39.7565 1.00000
  7.079E+12 7.079E+12 4.585E+00 9.097E+04 1.599E+06 5.859E+06 7.549E+06 7.549E+06 2.881E+07 39.9868 1.00000
  7.943E+12 7.943E+12 4.608E+00 1.021E+05 1.795E+06 6.723E+06 8.619E+06 8.619E+06 2.892E+07 40.2170 1.00000
  8.913E+12 8.913E+12 4.630E+00 1.145E+05 2.013E+06 7.714E+06 9.842E+06 9.842E+06 2.902E+07 40.4473 1.00000
  1.000E+13 1.000E+13 4.653E+00 1.285E+05 2.259E+06 8.852E+06 1.124E+07 1.124E+07 2.913E+07 40.6776 1.00000
  1.122E+13 1.122E+13 4.675E+00 1.442E+05 2.534E+06 1.016E+07 1.284E+07 1.284E+07 2.923E+07 40.9078 1.00000
  1.259E+13 1.259E+13 4.698E+00 1.618E+05 2.844E+06 1.166E+07 1.466E+07 1.466E+07 2.933E+07 41.1381 1.00000
  1.413E+13 1.413E+13 4.721E+00 1.815E+05 3.190E+06 1.338E+07 1.675E+07 1.675E+07 2.943E+07 41.3683 1.00000
  1.585E+13 1.585E+13 4.744E+00 2.037E+05 3.579E+06 1.536E+07 1.914E+07 1.914E+07 2.952E+07 41.5986 1.00000
  1.778E+13 1.778E+13 4.767E+00 2.285E+05 4.016E+06 1.763E+07 2.187E+07 2.187E+07 2.962E+07 41.8288 1.00000
  1.995E+13 1.995E+13 4.790E+00 2.564E+05 4.506E+06 2.023E+07 2.499E+07 2.499E+07 2.971E+07 42.0591 1.00000
  2.239E+13 2.239E+13 4.814E+00 2.877E+05 5.055E+06 2.322E+07 2.857E+07 2.857E+07 2.980E+07 42.2894 1.00000
  2.512E+13 2.512E+13 4.837E+00 3.228E+05 5.672E+06 2.666E+07 3.266E+07 3.266E+07 2.989E+07 42.5196 1.00000
  2.818E+13 2.818E+13 4.861E+00 3.622E+05 6.364E+06 3.061E+07 3.733E+07 3.733E+07 2.998E+07 42.7499 1.00000
  3.162E+13 3.162E+13 4.884E+00 4.064E+05 7.140E+06 3.514E+07 4.269E+07 4.269E+07 3.007E+07 42.9801 1.00000
  3.548E+13 3.548E+13 4.908E+00 4.560E+05 8.010E+06 4.034E+07 4.881E+07 4.881E+07 3.015E+07 43.2104 1.00000
  3.981E+13 3.981E+13 4.932E+00 5.116E+05 8.987E+06 4.632E+07 5.582E+07 5.582E+07 3.024E+07 43.4407 1.00000
  4.467E+13 4.467E+13 4.956E+00 5.740E+05 1.008E+07 5.319E+07 6.385E+07 6.385E+07 3.032E+07 43.6709 1.00000
  5.012E+13 5.012E+13 4.981E+00 6.441E+05 1.131E+07 6.108E+07 7.303E+07 7.303E+07 3.040E+07 43.9012 1.00000
  5.623E+13 5.623E+13 5.005E+00 7.227E+05 1.269E+07 7.014E+07 8.355E+07 8.355E+07 3.048E+07 44.1314 1.00000
  6.310E+13 6.310E+13 5.030E+00 8.108E+05 1.424E+07 8.054E+07 9.560E+07 9.560E+07 3.055E+07 44.3617 1.00000
  7.079E+13 7.079E+13 5.054E+00 9.098E+05 1.598E+07 9.250E+07 1.094E+08 1.094E+08 3.063E+07 44.5919 1.00000
  7.943E+13 7.943E+13 5.079E+00 1.021E+06 1.793E+07 1.062E+08 1.252E+08 1.252E+08 3.070E+07 44.8222 1.00000
  8.913E+13 8.913E+13 5.104E+00 1.145E+06 2.011E+07 1.220E+08 1.433E+08 1.433E+08 3.077E+07 45.0525 1.00000
