 Incident particle is a Tau with M = 1776.82000 MeV
 Index = 0: FluorineGas
      Absorber with <Z/A> = 0.47372
 Sternheimer coef:  a     k=m_s   x_0    x_1    I[eV]   Cbar  delta0
                 0.1108  3.2962  1.8433  4.4096  115.0 10.9653 0.00

 *** Table generated with PUMAS v1.00 ***

      T         p     Ionization  brems     pair     photonuc  Radloss    dE/dx   CSDA Range  delta   beta
    [MeV]    [MeV/c]  -----------------------[MeV cm^2/g]------------------------  [g/cm^2]
  1.000E+05 1.018E+05 2.365E+00 1.653E-04 2.588E-03 8.219E-03 1.097E-02 2.376E+00 2.104E+04  0.0000 0.99985
  1.122E+05 1.140E+05 2.399E+00 1.910E-04 3.118E-03 9.273E-03 1.258E-02 2.411E+00 2.614E+04  0.0000 0.99988
  1.259E+05 1.277E+05 2.431E+00 2.206E-04 3.743E-03 1.041E-02 1.437E-02 2.445E+00 3.178E+04  0.0180 0.99990
  1.413E+05 1.430E+05 2.459E+00 2.547E-04 4.479E-03 1.168E-02 1.642E-02 2.475E+00 3.802E+04  0.0936 0.99992
  1.585E+05 1.603E+05 2.487E+00 2.939E-04 5.345E-03 1.311E-02 1.875E-02 2.505E+00 4.494E+04  0.1760 0.99994
  1.778E+05 1.796E+05 2.514E+00 3.389E-04 6.359E-03 1.470E-02 2.140E-02 2.535E+00 5.262E+04  0.2651 0.99995
  1.995E+05 2.013E+05 2.541E+00 3.907E-04 7.547E-03 1.652E-02 2.445E-02 2.565E+00 6.112E+04  0.3607 0.99996
  2.239E+05 2.256E+05 2.567E+00 4.502E-04 8.934E-03 1.850E-02 2.788E-02 2.595E+00 7.056E+04  0.4627 0.99997
  2.512E+05 2.530E+05 2.593E+00 5.185E-04 1.055E-02 2.072E-02 3.179E-02 2.625E+00 8.103E+04  0.5708 0.99998
  2.818E+05 2.836E+05 2.619E+00 5.969E-04 1.243E-02 2.322E-02 3.625E-02 2.655E+00 9.264E+04  0.6850 0.99998
  3.162E+05 3.180E+05 2.644E+00 6.869E-04 1.462E-02 2.604E-02 4.135E-02 2.685E+00 1.055E+05  0.8051 0.99998
  3.548E+05 3.566E+05 2.669E+00 7.900E-04 1.716E-02 2.920E-02 4.716E-02 2.716E+00 1.198E+05  0.9308 0.99999
  3.981E+05 3.999E+05 2.693E+00 9.083E-04 2.010E-02 3.274E-02 5.375E-02 2.747E+00 1.357E+05  1.0620 0.99999
  4.467E+05 4.485E+05 2.717E+00 1.044E-03 2.350E-02 3.670E-02 6.124E-02 2.778E+00 1.532E+05  1.1986 0.99999
  5.012E+05 5.030E+05 2.740E+00 1.199E-03 2.743E-02 4.115E-02 6.978E-02 2.810E+00 1.728E+05  1.3405 0.99999
  5.623E+05 5.641E+05 2.763E+00 1.377E-03 3.196E-02 4.597E-02 7.931E-02 2.843E+00 1.944E+05  1.4873 1.00000
  6.310E+05 6.327E+05 2.786E+00 1.581E-03 3.718E-02 5.140E-02 9.016E-02 2.876E+00 2.184E+05  1.6390 1.00000
  7.079E+05 7.097E+05 2.809E+00 1.814E-03 4.318E-02 5.753E-02 1.025E-01 2.911E+00 2.450E+05  1.7954 1.00000
  7.943E+05 7.961E+05 2.830E+00 2.081E-03 5.008E-02 6.445E-02 1.166E-01 2.947E+00 2.745E+05  1.9564 1.00000
  8.913E+05 8.930E+05 2.852E+00 2.386E-03 5.800E-02 7.226E-02 1.327E-01 2.985E+00 3.072E+05  2.1217 1.00000
  1.000E+06 1.002E+06 2.873E+00 2.735E-03 6.708E-02 8.110E-02 1.509E-01 3.024E+00 3.434E+05  2.2912 1.00000
  1.122E+06 1.124E+06 2.894E+00 3.134E-03 7.748E-02 9.110E-02 1.717E-01 3.066E+00 3.834E+05  2.4649 1.00000
  1.259E+06 1.261E+06 2.915E+00 3.590E-03 8.938E-02 1.024E-01 1.954E-01 3.110E+00 4.278E+05  2.6424 1.00000
  1.413E+06 1.414E+06 2.935E+00 4.111E-03 1.030E-01 1.153E-01 2.223E-01 3.157E+00 4.768E+05  2.8236 1.00000
  1.585E+06 1.587E+06 2.954E+00 4.707E-03 1.185E-01 1.298E-01 2.530E-01 3.207E+00 5.310E+05  3.0085 1.00000
  1.778E+06 1.780E+06 2.974E+00 5.387E-03 1.362E-01 1.463E-01 2.879E-01 3.262E+00 5.908E+05  3.1968 1.00000
  1.995E+06 1.997E+06 2.993E+00 6.164E-03 1.564E-01 1.650E-01 3.276E-01 3.320E+00 6.567E+05  3.3883 1.00000
  2.239E+06 2.240E+06 3.011E+00 7.051E-03 1.793E-01 1.863E-01 3.727E-01 3.384E+00 7.293E+05  3.5830 1.00000
  2.512E+06 2.514E+06 3.030E+00 8.062E-03 2.055E-01 2.104E-01 4.240E-01 3.453E+00 8.093E+05  3.7807 1.00000
  2.818E+06 2.820E+06 3.047E+00 9.217E-03 2.352E-01 2.379E-01 4.823E-01 3.530E+00 8.970E+05  3.9813 1.00000
  3.162E+06 3.164E+06 3.065E+00 1.053E-02 2.689E-01 2.691E-01 5.485E-01 3.614E+00 9.933E+05  4.1845 1.00000
  3.548E+06 3.550E+06 3.082E+00 1.204E-02 3.071E-01 3.046E-01 6.238E-01 3.706E+00 1.099E+06  4.3902 1.00000
  3.981E+06 3.983E+06 3.099E+00 1.375E-02 3.505E-01 3.450E-01 7.092E-01 3.809E+00 1.214E+06  4.5984 1.00000
  4.467E+06 4.469E+06 3.116E+00 1.570E-02 3.996E-01 3.909E-01 8.063E-01 3.922E+00 1.340E+06  4.8089 1.00000
  5.012E+06 5.014E+06 3.132E+00 1.793E-02 4.553E-01 4.433E-01 9.164E-01 4.049E+00 1.477E+06  5.0214 1.00000
  5.623E+06 5.625E+06 3.148E+00 2.046E-02 5.182E-01 5.028E-01 1.041E+00 4.190E+00 1.625E+06  5.2360 1.00000
  6.310E+06 6.311E+06 3.164E+00 2.334E-02 5.894E-01 5.706E-01 1.183E+00 4.347E+00 1.786E+06  5.4524 1.00000
  7.079E+06 7.081E+06 3.179E+00 2.663E-02 6.699E-01 6.479E-01 1.344E+00 4.524E+00 1.959E+06  5.6706 1.00000
  7.943E+06 7.945E+06 3.195E+00 3.037E-02 7.607E-01 7.360E-01 1.527E+00 4.722E+00 2.146E+06  5.8903 1.00000
  8.913E+06 8.914E+06 3.210E+00 3.463E-02 8.634E-01 8.363E-01 1.734E+00 4.944E+00 2.347E+06  6.1116 1.00000
  1.000E+07 1.000E+07 3.224E+00 3.947E-02 9.792E-01 9.506E-01 1.969E+00 5.194E+00 2.562E+06  6.3341 1.00000
  1.122E+07 1.122E+07 3.239E+00 4.497E-02 1.110E+00 1.081E+00 2.236E+00 5.475E+00 2.791E+06  6.5579 1.00000
  1.259E+07 1.259E+07 3.253E+00 5.123E-02 1.257E+00 1.230E+00 2.538E+00 5.791E+00 3.034E+06  6.7828 1.00000
  1.413E+07 1.413E+07 3.267E+00 5.835E-02 1.423E+00 1.399E+00 2.880E+00 6.148E+00 3.291E+06  7.0087 1.00000
  1.585E+07 1.585E+07 3.281E+00 6.643E-02 1.610E+00 1.592E+00 3.269E+00 6.550E+00 3.563E+06  7.2355 1.00000
  1.778E+07 1.778E+07 3.295E+00 7.562E-02 1.821E+00 1.813E+00 3.709E+00 7.004E+00 3.849E+06  7.4630 1.00000
  1.995E+07 1.995E+07 3.309E+00 8.605E-02 2.058E+00 2.064E+00 4.208E+00 7.517E+00 4.148E+06  7.6913 1.00000
  2.239E+07 2.239E+07 3.322E+00 9.789E-02 2.325E+00 2.351E+00 4.774E+00 8.096E+00 4.460E+06  7.9200 1.00000
  2.512E+07 2.512E+07 3.336E+00 1.113E-01 2.625E+00 2.678E+00 5.415E+00 8.751E+00 4.785E+06  8.1492 1.00000
  2.818E+07 2.819E+07 3.349E+00 1.266E-01 2.963E+00 3.052E+00 6.142E+00 9.491E+00 5.122E+06  8.3788 1.00000
  3.162E+07 3.162E+07 3.362E+00 1.439E-01 3.343E+00 3.478E+00 6.965E+00 1.033E+01 5.469E+06  8.6087 1.00000
  3.548E+07 3.548E+07 3.376E+00 1.635E-01 3.771E+00 3.964E+00 7.898E+00 1.127E+01 5.827E+06  8.8387 1.00000
  3.981E+07 3.981E+07 3.389E+00 1.857E-01 4.251E+00 4.519E+00 8.956E+00 1.235E+01 6.195E+06  9.0689 1.00000
  4.467E+07 4.467E+07 3.402E+00 2.109E-01 4.791E+00 5.153E+00 1.016E+01 1.356E+01 6.571E+06  9.2992 1.00000
  5.012E+07 5.012E+07 3.415E+00 2.395E-01 5.399E+00 5.876E+00 1.151E+01 1.493E+01 6.954E+06  9.5294 1.00000
  5.623E+07 5.624E+07 3.428E+00 2.718E-01 6.081E+00 6.701E+00 1.305E+01 1.648E+01 7.345E+06  9.7597 1.00000
  6.310E+07 6.310E+07 3.441E+00 3.084E-01 6.847E+00 7.644E+00 1.480E+01 1.824E+01 7.741E+06  9.9899 1.00000
  7.079E+07 7.080E+07 3.455E+00 3.499E-01 7.708E+00 8.720E+00 1.678E+01 2.023E+01 8.142E+06 10.2202 1.00000
  7.943E+07 7.943E+07 3.468E+00 3.968E-01 8.675E+00 9.949E+00 1.902E+01 2.249E+01 8.548E+06 10.4504 1.00000
  8.913E+07 8.913E+07 3.481E+00 4.499E-01 9.761E+00 1.135E+01 2.156E+01 2.504E+01 8.957E+06 10.6807 1.00000
  1.000E+08 1.000E+08 3.494E+00 5.099E-01 1.098E+01 1.295E+01 2.445E+01 2.794E+01 9.368E+06 10.9109 1.00000
  1.122E+08 1.122E+08 3.507E+00 5.777E-01 1.235E+01 1.478E+01 2.771E+01 3.122E+01 9.782E+06 11.1412 1.00000
  1.259E+08 1.259E+08 3.521E+00 6.544E-01 1.389E+01 1.687E+01 3.142E+01 3.494E+01 1.020E+07 11.3714 1.00000
  1.413E+08 1.413E+08 3.534E+00 7.411E-01 1.562E+01 1.926E+01 3.562E+01 3.915E+01 1.061E+07 11.6017 1.00000
  1.585E+08 1.585E+08 3.547E+00 8.390E-01 1.755E+01 2.199E+01 4.038E+01 4.393E+01 1.103E+07 11.8320 1.00000
  1.778E+08 1.778E+08 3.561E+00 9.496E-01 1.973E+01 2.510E+01 4.578E+01 4.934E+01 1.145E+07 12.0622 1.00000
  1.995E+08 1.995E+08 3.574E+00 1.075E+00 2.217E+01 2.866E+01 5.191E+01 5.548E+01 1.186E+07 12.2925 1.00000
  2.239E+08 2.239E+08 3.588E+00 1.215E+00 2.492E+01 3.272E+01 5.886E+01 6.244E+01 1.228E+07 12.5227 1.00000
  2.512E+08 2.512E+08 3.601E+00 1.375E+00 2.800E+01 3.737E+01 6.674E+01 7.034E+01 1.269E+07 12.7530 1.00000
  2.818E+08 2.818E+08 3.615E+00 1.554E+00 3.145E+01 4.267E+01 7.568E+01 7.929E+01 1.310E+07 12.9832 1.00000
  3.162E+08 3.162E+08 3.629E+00 1.756E+00 3.533E+01 4.874E+01 8.582E+01 8.945E+01 1.351E+07 13.2135 1.00000
  3.548E+08 3.548E+08 3.642E+00 1.985E+00 3.968E+01 5.566E+01 9.733E+01 1.010E+02 1.392E+07 13.4438 1.00000
  3.981E+08 3.981E+08 3.656E+00 2.242E+00 4.457E+01 6.358E+01 1.104E+02 1.140E+02 1.432E+07 13.6740 1.00000
  4.467E+08 4.467E+08 3.670E+00 2.532E+00 5.005E+01 7.262E+01 1.252E+02 1.289E+02 1.472E+07 13.9043 1.00000
  5.012E+08 5.012E+08 3.684E+00 2.859E+00 5.620E+01 8.296E+01 1.420E+02 1.457E+02 1.512E+07 14.1345 1.00000
  5.623E+08 5.623E+08 3.698E+00 3.227E+00 6.311E+01 9.478E+01 1.611E+02 1.648E+02 1.551E+07 14.3648 1.00000
  6.310E+08 6.310E+08 3.712E+00 3.641E+00 7.085E+01 1.083E+02 1.828E+02 1.865E+02 1.591E+07 14.5950 1.00000
  7.079E+08 7.079E+08 3.726E+00 4.108E+00 7.955E+01 1.237E+02 2.074E+02 2.111E+02 1.630E+07 14.8253 1.00000
  7.943E+08 7.943E+08 3.740E+00 4.634E+00 8.931E+01 1.414E+02 2.353E+02 2.390E+02 1.668E+07 15.0556 1.00000
  8.913E+08 8.913E+08 3.755E+00 5.226E+00 1.003E+02 1.615E+02 2.670E+02 2.708E+02 1.706E+07 15.2858 1.00000
  1.000E+09 1.000E+09 3.769E+00 5.892E+00 1.125E+02 1.846E+02 3.030E+02 3.068E+02 1.744E+07 15.5161 1.00000
  1.122E+09 1.122E+09 3.784E+00 6.642E+00 1.263E+02 2.110E+02 3.439E+02 3.477E+02 1.781E+07 15.7463 1.00000
  1.259E+09 1.259E+09 3.798E+00 7.485E+00 1.418E+02 2.411E+02 3.904E+02 3.942E+02 1.819E+07 15.9766 1.00000
  1.413E+09 1.413E+09 3.813E+00 8.434E+00 1.592E+02 2.756E+02 4.432E+02 4.470E+02 1.855E+07 16.2068 1.00000
  1.585E+09 1.585E+09 3.827E+00 9.501E+00 1.786E+02 3.150E+02 5.031E+02 5.069E+02 1.891E+07 16.4371 1.00000
  1.778E+09 1.778E+09 3.842E+00 1.070E+01 2.005E+02 3.601E+02 5.712E+02 5.751E+02 1.927E+07 16.6674 1.00000
  1.995E+09 1.995E+09 3.857E+00 1.205E+01 2.250E+02 4.116E+02 6.487E+02 6.525E+02 1.963E+07 16.8976 1.00000
  2.239E+09 2.239E+09 3.872E+00 1.357E+01 2.525E+02 4.705E+02 7.366E+02 7.405E+02 1.998E+07 17.1279 1.00000
  2.512E+09 2.512E+09 3.887E+00 1.527E+01 2.834E+02 5.379E+02 8.366E+02 8.405E+02 2.033E+07 17.3581 1.00000
  2.818E+09 2.818E+09 3.902E+00 1.719E+01 3.180E+02 6.150E+02 9.503E+02 9.542E+02 2.067E+07 17.5884 1.00000
  3.162E+09 3.162E+09 3.917E+00 1.934E+01 3.569E+02 7.032E+02 1.079E+03 1.083E+03 2.101E+07 17.8187 1.00000
  3.548E+09 3.548E+09 3.932E+00 2.176E+01 4.005E+02 8.041E+02 1.226E+03 1.230E+03 2.134E+07 18.0489 1.00000
  3.981E+09 3.981E+09 3.948E+00 2.448E+01 4.495E+02 9.195E+02 1.393E+03 1.397E+03 2.167E+07 18.2792 1.00000
  4.467E+09 4.467E+09 3.963E+00 2.753E+01 5.044E+02 1.052E+03 1.583E+03 1.587E+03 2.200E+07 18.5094 1.00000
  5.012E+09 5.012E+09 3.979E+00 3.097E+01 5.660E+02 1.203E+03 1.799E+03 1.803E+03 2.232E+07 18.7397 1.00000
  5.623E+09 5.623E+09 3.994E+00 3.482E+01 6.351E+02 1.375E+03 2.045E+03 2.049E+03 2.264E+07 18.9699 1.00000
  6.310E+09 6.310E+09 4.010E+00 3.915E+01 7.127E+02 1.573E+03 2.325E+03 2.329E+03 2.296E+07 19.2002 1.00000
  7.079E+09 7.079E+09 4.026E+00 4.401E+01 7.997E+02 1.799E+03 2.643E+03 2.647E+03 2.327E+07 19.4305 1.00000
  7.943E+09 7.943E+09 4.041E+00 4.947E+01 8.973E+02 2.058E+03 3.005E+03 3.009E+03 2.357E+07 19.6607 1.00000
  8.913E+09 8.913E+09 4.057E+00 5.560E+01 1.007E+03 2.354E+03 3.417E+03 3.421E+03 2.388E+07 19.8910 1.00000
  1.000E+10 1.000E+10 4.073E+00 6.248E+01 1.130E+03 2.693E+03 3.886E+03 3.890E+03 2.418E+07 20.1212 1.00000
  1.122E+10 1.122E+10 4.090E+00 7.021E+01 1.268E+03 3.081E+03 4.419E+03 4.423E+03 2.447E+07 20.3515 1.00000
  1.259E+10 1.259E+10 4.106E+00 7.889E+01 1.422E+03 3.525E+03 5.027E+03 5.031E+03 2.476E+07 20.5818 1.00000
  1.413E+10 1.413E+10 4.122E+00 8.863E+01 1.596E+03 4.034E+03 5.718E+03 5.722E+03 2.505E+07 20.8120 1.00000
  1.585E+10 1.585E+10 4.138E+00 9.956E+01 1.791E+03 4.615E+03 6.506E+03 6.510E+03 2.533E+07 21.0423 1.00000
  1.778E+10 1.778E+10 4.155E+00 1.118E+02 2.010E+03 5.281E+03 7.403E+03 7.407E+03 2.561E+07 21.2725 1.00000
  1.995E+10 1.995E+10 4.172E+00 1.256E+02 2.255E+03 6.044E+03 8.424E+03 8.428E+03 2.589E+07 21.5028 1.00000
  2.239E+10 2.239E+10 4.188E+00 1.411E+02 2.530E+03 6.916E+03 9.587E+03 9.591E+03 2.616E+07 21.7331 1.00000
  2.512E+10 2.512E+10 4.205E+00 1.584E+02 2.839E+03 7.915E+03 1.091E+04 1.092E+04 2.642E+07 21.9633 1.00000
  2.818E+10 2.818E+10 4.222E+00 1.779E+02 3.185E+03 9.059E+03 1.242E+04 1.243E+04 2.669E+07 22.1936 1.00000
  3.162E+10 3.162E+10 4.239E+00 1.998E+02 3.574E+03 1.037E+04 1.414E+04 1.415E+04 2.695E+07 22.4238 1.00000
  3.548E+10 3.548E+10 4.256E+00 2.243E+02 4.010E+03 1.187E+04 1.610E+04 1.611E+04 2.720E+07 22.6541 1.00000
  3.981E+10 3.981E+10 4.273E+00 2.519E+02 4.499E+03 1.359E+04 1.834E+04 1.834E+04 2.746E+07 22.8843 1.00000
  4.467E+10 4.467E+10 4.290E+00 2.828E+02 5.048E+03 1.555E+04 2.088E+04 2.089E+04 2.771E+07 23.1146 1.00000
  5.012E+10 5.012E+10 4.308E+00 3.175E+02 5.664E+03 1.781E+04 2.379E+04 2.379E+04 2.795E+07 23.3449 1.00000
  5.623E+10 5.623E+10 4.325E+00 3.564E+02 6.355E+03 2.039E+04 2.710E+04 2.710E+04 2.819E+07 23.5751 1.00000
  6.310E+10 6.310E+10 4.343E+00 4.001E+02 7.130E+03 2.334E+04 3.087E+04 3.088E+04 2.843E+07 23.8054 1.00000
  7.079E+10 7.079E+10 4.360E+00 4.491E+02 8.000E+03 2.673E+04 3.517E+04 3.518E+04 2.866E+07 24.0356 1.00000
  7.943E+10 7.943E+10 4.378E+00 5.041E+02 8.976E+03 3.060E+04 4.008E+04 4.009E+04 2.889E+07 24.2659 1.00000
  8.913E+10 8.913E+10 4.396E+00 5.659E+02 1.007E+04 3.504E+04 4.568E+04 4.569E+04 2.912E+07 24.4962 1.00000
  1.000E+11 1.000E+11 4.414E+00 6.351E+02 1.130E+04 4.013E+04 5.207E+04 5.207E+04 2.934E+07 24.7264 1.00000
  1.122E+11 1.122E+11 4.432E+00 7.129E+02 1.268E+04 4.596E+04 5.935E+04 5.936E+04 2.956E+07 24.9567 1.00000
  1.259E+11 1.259E+11 4.450E+00 8.001E+02 1.423E+04 5.264E+04 6.766E+04 6.767E+04 2.978E+07 25.1869 1.00000
  1.413E+11 1.413E+11 4.468E+00 8.980E+02 1.596E+04 6.029E+04 7.715E+04 7.715E+04 2.999E+07 25.4172 1.00000
  1.585E+11 1.585E+11 4.487E+00 1.008E+03 1.791E+04 6.906E+04 8.797E+04 8.798E+04 3.020E+07 25.6474 1.00000
  1.778E+11 1.778E+11 4.505E+00 1.131E+03 2.009E+04 7.911E+04 1.003E+05 1.003E+05 3.041E+07 25.8777 1.00000
  1.995E+11 1.995E+11 4.524E+00 1.269E+03 2.254E+04 9.062E+04 1.144E+05 1.144E+05 3.061E+07 26.1080 1.00000
  2.239E+11 2.239E+11 4.542E+00 1.425E+03 2.529E+04 1.038E+05 1.305E+05 1.305E+05 3.081E+07 26.3382 1.00000
  2.512E+11 2.512E+11 4.561E+00 1.599E+03 2.838E+04 1.189E+05 1.489E+05 1.489E+05 3.101E+07 26.5685 1.00000
  2.818E+11 2.818E+11 4.580E+00 1.794E+03 3.184E+04 1.363E+05 1.699E+05 1.699E+05 3.120E+07 26.7987 1.00000
  3.162E+11 3.162E+11 4.599E+00 2.013E+03 3.573E+04 1.561E+05 1.939E+05 1.939E+05 3.139E+07 27.0290 1.00000
  3.548E+11 3.548E+11 4.618E+00 2.259E+03 4.008E+04 1.789E+05 2.212E+05 2.212E+05 3.158E+07 27.2593 1.00000
  3.981E+11 3.981E+11 4.637E+00 2.535E+03 4.497E+04 2.050E+05 2.525E+05 2.525E+05 3.176E+07 27.4895 1.00000
  4.467E+11 4.467E+11 4.657E+00 2.845E+03 5.046E+04 2.349E+05 2.882E+05 2.882E+05 3.194E+07 27.7198 1.00000
  5.012E+11 5.012E+11 4.676E+00 3.192E+03 5.661E+04 2.692E+05 3.290E+05 3.290E+05 3.212E+07 27.9500 1.00000
  5.623E+11 5.623E+11 4.696E+00 3.582E+03 6.352E+04 3.086E+05 3.757E+05 3.757E+05 3.229E+07 28.1803 1.00000
  6.310E+11 6.310E+11 4.715E+00 4.019E+03 7.127E+04 3.536E+05 4.289E+05 4.289E+05 3.247E+07 28.4105 1.00000
  7.079E+11 7.079E+11 4.735E+00 4.510E+03 7.996E+04 4.053E+05 4.898E+05 4.898E+05 3.263E+07 28.6408 1.00000
  7.943E+11 7.943E+11 4.755E+00 5.061E+03 8.971E+04 4.646E+05 5.594E+05 5.594E+05 3.280E+07 28.8711 1.00000
  8.913E+11 8.913E+11 4.775E+00 5.679E+03 1.007E+05 5.326E+05 6.389E+05 6.389E+05 3.296E+07 29.1013 1.00000
  1.000E+12 1.000E+12 4.795E+00 6.372E+03 1.129E+05 6.106E+05 7.299E+05 7.299E+05 3.312E+07 29.3316 1.00000
  1.122E+12 1.122E+12 4.815E+00 7.150E+03 1.267E+05 7.000E+05 8.338E+05 8.338E+05 3.328E+07 29.5618 1.00000
  1.259E+12 1.259E+12 4.835E+00 8.023E+03 1.422E+05 8.025E+05 9.527E+05 9.527E+05 3.343E+07 29.7921 1.00000
  1.413E+12 1.413E+12 4.856E+00 9.002E+03 1.595E+05 9.201E+05 1.089E+06 1.089E+06 3.358E+07 30.0224 1.00000
  1.585E+12 1.585E+12 4.876E+00 1.010E+04 1.790E+05 1.055E+06 1.244E+06 1.244E+06 3.373E+07 30.2526 1.00000
  1.778E+12 1.778E+12 4.897E+00 1.133E+04 2.008E+05 1.210E+06 1.422E+06 1.422E+06 3.388E+07 30.4829 1.00000
  1.995E+12 1.995E+12 4.918E+00 1.272E+04 2.253E+05 1.387E+06 1.625E+06 1.625E+06 3.402E+07 30.7131 1.00000
  2.239E+12 2.239E+12 4.938E+00 1.427E+04 2.528E+05 1.591E+06 1.858E+06 1.858E+06 3.416E+07 30.9434 1.00000
  2.512E+12 2.512E+12 4.959E+00 1.601E+04 2.836E+05 1.824E+06 2.124E+06 2.124E+06 3.430E+07 31.1736 1.00000
  2.818E+12 2.818E+12 4.981E+00 1.797E+04 3.182E+05 2.092E+06 2.429E+06 2.429E+06 3.443E+07 31.4039 1.00000
  3.162E+12 3.162E+12 5.002E+00 2.016E+04 3.570E+05 2.400E+06 2.777E+06 2.777E+06 3.457E+07 31.6342 1.00000
  3.548E+12 3.548E+12 5.023E+00 2.262E+04 4.005E+05 2.753E+06 3.176E+06 3.176E+06 3.470E+07 31.8644 1.00000
  3.981E+12 3.981E+12 5.045E+00 2.538E+04 4.494E+05 3.157E+06 3.632E+06 3.632E+06 3.482E+07 32.0947 1.00000
  4.467E+12 4.467E+12 5.066E+00 2.847E+04 5.042E+05 3.622E+06 4.155E+06 4.155E+06 3.495E+07 32.3249 1.00000
  5.012E+12 5.012E+12 5.088E+00 3.195E+04 5.657E+05 4.155E+06 4.753E+06 4.753E+06 3.507E+07 32.5552 1.00000
  5.623E+12 5.623E+12 5.110E+00 3.585E+04 6.347E+05 4.767E+06 5.437E+06 5.437E+06 3.519E+07 32.7855 1.00000
  6.310E+12 6.310E+12 5.132E+00 4.022E+04 7.121E+05 5.469E+06 6.221E+06 6.221E+06 3.531E+07 33.0157 1.00000
  7.079E+12 7.079E+12 5.154E+00 4.513E+04 7.989E+05 6.275E+06 7.119E+06 7.119E+06 3.543E+07 33.2460 1.00000
  7.943E+12 7.943E+12 5.176E+00 5.064E+04 8.964E+05 7.200E+06 8.147E+06 8.147E+06 3.554E+07 33.4762 1.00000
  8.913E+12 8.913E+12 5.198E+00 5.682E+04 1.006E+06 8.262E+06 9.324E+06 9.324E+06 3.565E+07 33.7065 1.00000
  1.000E+13 1.000E+13 5.220E+00 6.375E+04 1.128E+06 9.480E+06 1.067E+07 1.067E+07 3.576E+07 33.9368 1.00000
  1.122E+13 1.122E+13 5.243E+00 7.153E+04 1.266E+06 1.088E+07 1.222E+07 1.222E+07 3.587E+07 34.1670 1.00000
  1.259E+13 1.259E+13 5.266E+00 8.026E+04 1.420E+06 1.249E+07 1.399E+07 1.399E+07 3.597E+07 34.3973 1.00000
  1.413E+13 1.413E+13 5.288E+00 9.005E+04 1.594E+06 1.433E+07 1.601E+07 1.601E+07 3.608E+07 34.6275 1.00000
  1.585E+13 1.585E+13 5.311E+00 1.010E+05 1.788E+06 1.645E+07 1.834E+07 1.834E+07 3.618E+07 34.8578 1.00000
  1.778E+13 1.778E+13 5.334E+00 1.134E+05 2.006E+06 1.888E+07 2.100E+07 2.100E+07 3.628E+07 35.0880 1.00000
  1.995E+13 1.995E+13 5.357E+00 1.272E+05 2.251E+06 2.167E+07 2.405E+07 2.405E+07 3.637E+07 35.3183 1.00000
  2.239E+13 2.239E+13 5.381E+00 1.427E+05 2.525E+06 2.487E+07 2.754E+07 2.754E+07 3.647E+07 35.5486 1.00000
  2.512E+13 2.512E+13 5.404E+00 1.601E+05 2.833E+06 2.855E+07 3.155E+07 3.155E+07 3.656E+07 35.7788 1.00000
  2.818E+13 2.818E+13 5.428E+00 1.797E+05 3.179E+06 3.278E+07 3.614E+07 3.614E+07 3.665E+07 36.0091 1.00000
  3.162E+13 3.162E+13 5.451E+00 2.016E+05 3.566E+06 3.763E+07 4.140E+07 4.140E+07 3.674E+07 36.2393 1.00000
  3.548E+13 3.548E+13 5.475E+00 2.262E+05 4.001E+06 4.321E+07 4.744E+07 4.744E+07 3.683E+07 36.4696 1.00000
  3.981E+13 3.981E+13 5.499E+00 2.538E+05 4.489E+06 4.961E+07 5.435E+07 5.435E+07 3.691E+07 36.6999 1.00000
  4.467E+13 4.467E+13 5.523E+00 2.848E+05 5.037E+06 5.696E+07 6.229E+07 6.229E+07 3.700E+07 36.9301 1.00000
  5.012E+13 5.012E+13 5.547E+00 3.195E+05 5.651E+06 6.541E+07 7.138E+07 7.138E+07 3.708E+07 37.1604 1.00000
  5.623E+13 5.623E+13 5.571E+00 3.585E+05 6.340E+06 7.511E+07 8.181E+07 8.181E+07 3.716E+07 37.3906 1.00000
  6.310E+13 6.310E+13 5.596E+00 4.023E+05 7.113E+06 8.626E+07 9.378E+07 9.378E+07 3.724E+07 37.6209 1.00000
  7.079E+13 7.079E+13 5.620E+00 4.514E+05 7.981E+06 9.907E+07 1.075E+08 1.075E+08 3.732E+07 37.8511 1.00000
  7.943E+13 7.943E+13 5.645E+00 5.064E+05 8.954E+06 1.138E+08 1.232E+08 1.232E+08 3.739E+07 38.0814 1.00000
  8.913E+13 8.913E+13 5.670E+00 5.682E+05 1.005E+07 1.307E+08 1.413E+08 1.413E+08 3.746E+07 38.3117 1.00000
