 Incident particle is a Tau with M = 1776.82000 MeV
 Index = 0: Francium
      Absorber with <Z/A> = 0.39010
 Sternheimer coef:  a     k=m_s   x_0    x_1    I[eV]   Cbar  delta0
                 0.4321  3.0000  1.1175  3.0000  827.0  8.0292 0.00

 *** Table generated with PUMAS v1.00 ***

      T         p     Ionization  brems     pair     photonuc  Radloss    dE/dx   CSDA Range  delta   beta
    [MeV]    [MeV/c]  -----------------------[MeV cm^2/g]------------------------  [g/cm^2]
  1.000E+05 1.018E+05 1.658E+00 1.085E-03 1.943E-02 7.528E-03 2.804E-02 1.686E+00 2.966E+04  0.8944 0.99985
  1.122E+05 1.140E+05 1.677E+00 1.258E-03 2.325E-02 8.447E-03 3.296E-02 1.710E+00 3.685E+04  1.0264 0.99988
  1.259E+05 1.277E+05 1.697E+00 1.458E-03 2.775E-02 9.428E-03 3.864E-02 1.735E+00 4.479E+04  1.1661 0.99990
  1.413E+05 1.430E+05 1.715E+00 1.690E-03 3.303E-02 1.053E-02 4.525E-02 1.761E+00 5.358E+04  1.3133 0.99992
  1.585E+05 1.603E+05 1.734E+00 1.956E-03 3.922E-02 1.175E-02 5.292E-02 1.787E+00 6.330E+04  1.4676 0.99994
  1.778E+05 1.796E+05 1.752E+00 2.264E-03 4.644E-02 1.310E-02 6.181E-02 1.814E+00 7.404E+04  1.6287 0.99995
  1.995E+05 2.013E+05 1.770E+00 2.618E-03 5.487E-02 1.464E-02 7.213E-02 1.842E+00 8.591E+04  1.7963 0.99996
  2.239E+05 2.256E+05 1.787E+00 3.026E-03 6.469E-02 1.631E-02 8.402E-02 1.871E+00 9.903E+04  1.9701 0.99997
  2.512E+05 2.530E+05 1.804E+00 3.496E-03 7.608E-02 1.816E-02 9.774E-02 1.902E+00 1.135E+05  2.1498 0.99998
  2.818E+05 2.836E+05 1.821E+00 4.036E-03 8.930E-02 2.024E-02 1.136E-01 1.935E+00 1.295E+05  2.3350 0.99998
  3.162E+05 3.180E+05 1.838E+00 4.656E-03 1.046E-01 2.259E-02 1.318E-01 1.970E+00 1.471E+05  2.5255 0.99998
  3.548E+05 3.566E+05 1.854E+00 5.369E-03 1.223E-01 2.520E-02 1.528E-01 2.007E+00 1.665E+05  2.7209 0.99999
  3.981E+05 3.999E+05 1.870E+00 6.188E-03 1.427E-01 2.810E-02 1.770E-01 2.047E+00 1.879E+05  2.9209 0.99999
  4.467E+05 4.485E+05 1.885E+00 7.128E-03 1.662E-01 3.134E-02 2.046E-01 2.090E+00 2.114E+05  3.1251 0.99999
  5.012E+05 5.030E+05 1.901E+00 8.206E-03 1.932E-01 3.497E-02 2.364E-01 2.137E+00 2.371E+05  3.3333 0.99999
  5.623E+05 5.641E+05 1.916E+00 9.443E-03 2.242E-01 3.888E-02 2.725E-01 2.189E+00 2.654E+05  3.5451 1.00000
  6.310E+05 6.327E+05 1.931E+00 1.086E-02 2.598E-01 4.327E-02 3.140E-01 2.245E+00 2.964E+05  3.7602 1.00000
  7.079E+05 7.097E+05 1.946E+00 1.248E-02 3.006E-01 4.820E-02 3.613E-01 2.307E+00 3.302E+05  3.9782 1.00000
  7.943E+05 7.961E+05 1.960E+00 1.434E-02 3.473E-01 5.376E-02 4.154E-01 2.376E+00 3.671E+05  4.1989 1.00000
  8.913E+05 8.930E+05 1.974E+00 1.647E-02 4.007E-01 6.002E-02 4.772E-01 2.452E+00 4.073E+05  4.4219 1.00000
  1.000E+06 1.002E+06 1.989E+00 1.890E-02 4.616E-01 6.708E-02 5.476E-01 2.536E+00 4.509E+05  4.6469 1.00000
  1.122E+06 1.124E+06 2.003E+00 2.169E-02 5.311E-01 7.505E-02 6.278E-01 2.630E+00 4.982E+05  4.8735 1.00000
  1.259E+06 1.261E+06 2.016E+00 2.487E-02 6.102E-01 8.406E-02 7.191E-01 2.736E+00 5.492E+05  5.1014 1.00000
  1.413E+06 1.414E+06 2.030E+00 2.851E-02 7.003E-01 9.425E-02 8.230E-01 2.853E+00 6.042E+05  5.3304 1.00000
  1.585E+06 1.587E+06 2.044E+00 3.266E-02 8.026E-01 1.058E-01 9.411E-01 2.985E+00 6.633E+05  5.5600 1.00000
  1.778E+06 1.780E+06 2.057E+00 3.741E-02 9.189E-01 1.188E-01 1.075E+00 3.132E+00 7.265E+05  5.7899 1.00000
  1.995E+06 1.997E+06 2.070E+00 4.282E-02 1.051E+00 1.337E-01 1.227E+00 3.298E+00 7.941E+05  6.0200 1.00000
  2.239E+06 2.240E+06 2.084E+00 4.900E-02 1.201E+00 1.504E-01 1.400E+00 3.484E+00 8.659E+05  6.2501 1.00000
  2.512E+06 2.514E+06 2.097E+00 5.605E-02 1.370E+00 1.695E-01 1.596E+00 3.693E+00 9.421E+05  6.4801 1.00000
  2.818E+06 2.820E+06 2.110E+00 6.408E-02 1.562E+00 1.911E-01 1.818E+00 3.927E+00 1.023E+06  6.7102 1.00000
  3.162E+06 3.164E+06 2.123E+00 7.324E-02 1.780E+00 2.157E-01 2.069E+00 4.191E+00 1.107E+06  6.9404 1.00000
  3.548E+06 3.550E+06 2.135E+00 8.367E-02 2.025E+00 2.436E-01 2.353E+00 4.488E+00 1.196E+06  7.1705 1.00000
  3.981E+06 3.983E+06 2.148E+00 9.556E-02 2.303E+00 2.754E-01 2.674E+00 4.822E+00 1.290E+06  7.4007 1.00000
  4.467E+06 4.469E+06 2.161E+00 1.091E-01 2.617E+00 3.115E-01 3.037E+00 5.198E+00 1.387E+06  7.6308 1.00000
  5.012E+06 5.014E+06 2.173E+00 1.245E-01 2.971E+00 3.525E-01 3.448E+00 5.621E+00 1.488E+06  7.8610 1.00000
  5.623E+06 5.625E+06 2.185E+00 1.420E-01 3.370E+00 3.993E-01 3.912E+00 6.097E+00 1.592E+06  8.0912 1.00000
  6.310E+06 6.311E+06 2.197E+00 1.619E-01 3.821E+00 4.525E-01 4.436E+00 6.633E+00 1.700E+06  8.3214 1.00000
  7.079E+06 7.081E+06 2.209E+00 1.846E-01 4.329E+00 5.131E-01 5.027E+00 7.236E+00 1.811E+06  8.5516 1.00000
  7.943E+06 7.945E+06 2.221E+00 2.104E-01 4.902E+00 5.821E-01 5.694E+00 7.915E+00 1.926E+06  8.7818 1.00000
  8.913E+06 8.914E+06 2.233E+00 2.396E-01 5.546E+00 6.607E-01 6.447E+00 8.680E+00 2.043E+06  9.0120 1.00000
  1.000E+07 1.000E+07 2.245E+00 2.729E-01 6.273E+00 7.503E-01 7.296E+00 9.540E+00 2.162E+06  9.2422 1.00000
  1.122E+07 1.122E+07 2.256E+00 3.106E-01 7.090E+00 8.524E-01 8.253E+00 1.051E+01 2.284E+06  9.4724 1.00000
  1.259E+07 1.259E+07 2.268E+00 3.535E-01 8.010E+00 9.687E-01 9.332E+00 1.160E+01 2.408E+06  9.7026 1.00000
  1.413E+07 1.413E+07 2.279E+00 4.021E-01 9.045E+00 1.101E+00 1.055E+01 1.283E+01 2.535E+06  9.9329 1.00000
  1.585E+07 1.585E+07 2.290E+00 4.572E-01 1.021E+01 1.253E+00 1.192E+01 1.421E+01 2.662E+06 10.1631 1.00000
  1.778E+07 1.778E+07 2.302E+00 5.197E-01 1.152E+01 1.425E+00 1.346E+01 1.577E+01 2.792E+06 10.3933 1.00000
  1.995E+07 1.995E+07 2.313E+00 5.906E-01 1.299E+01 1.622E+00 1.520E+01 1.752E+01 2.923E+06 10.6236 1.00000
  2.239E+07 2.239E+07 2.324E+00 6.710E-01 1.465E+01 1.846E+00 1.716E+01 1.949E+01 3.054E+06 10.8538 1.00000
  2.512E+07 2.512E+07 2.335E+00 7.620E-01 1.651E+01 2.102E+00 1.937E+01 2.171E+01 3.187E+06 11.0840 1.00000
  2.818E+07 2.819E+07 2.346E+00 8.650E-01 1.860E+01 2.394E+00 2.186E+01 2.420E+01 3.321E+06 11.3143 1.00000
  3.162E+07 3.162E+07 2.357E+00 9.817E-01 2.095E+01 2.728E+00 2.466E+01 2.701E+01 3.456E+06 11.5445 1.00000
  3.548E+07 3.548E+07 2.368E+00 1.114E+00 2.359E+01 3.108E+00 2.781E+01 3.018E+01 3.591E+06 11.7748 1.00000
  3.981E+07 3.981E+07 2.378E+00 1.263E+00 2.655E+01 3.542E+00 3.136E+01 3.373E+01 3.727E+06 12.0050 1.00000
  4.467E+07 4.467E+07 2.389E+00 1.432E+00 2.988E+01 4.038E+00 3.535E+01 3.774E+01 3.864E+06 12.2353 1.00000
  5.012E+07 5.012E+07 2.400E+00 1.623E+00 3.362E+01 4.603E+00 3.985E+01 4.225E+01 4.000E+06 12.4655 1.00000
  5.623E+07 5.624E+07 2.411E+00 1.839E+00 3.782E+01 5.249E+00 4.491E+01 4.732E+01 4.137E+06 12.6958 1.00000
  6.310E+07 6.310E+07 2.422E+00 2.083E+00 4.254E+01 5.986E+00 5.060E+01 5.303E+01 4.275E+06 12.9260 1.00000
  7.079E+07 7.080E+07 2.433E+00 2.358E+00 4.783E+01 6.827E+00 5.702E+01 5.945E+01 4.412E+06 13.1563 1.00000
  7.943E+07 7.943E+07 2.443E+00 2.670E+00 5.378E+01 7.788E+00 6.423E+01 6.668E+01 4.549E+06 13.3865 1.00000
  8.913E+07 8.913E+07 2.454E+00 3.021E+00 6.045E+01 8.885E+00 7.236E+01 7.481E+01 4.687E+06 13.6168 1.00000
  1.000E+08 1.000E+08 2.465E+00 3.417E+00 6.794E+01 1.014E+01 8.150E+01 8.396E+01 4.824E+06 13.8470 1.00000
  1.122E+08 1.122E+08 2.476E+00 3.865E+00 7.635E+01 1.157E+01 9.179E+01 9.426E+01 4.962E+06 14.0773 1.00000
  1.259E+08 1.259E+08 2.487E+00 4.369E+00 8.579E+01 1.320E+01 1.034E+02 1.059E+02 5.099E+06 14.3075 1.00000
  1.413E+08 1.413E+08 2.498E+00 4.938E+00 9.639E+01 1.507E+01 1.164E+02 1.189E+02 5.236E+06 14.5378 1.00000
  1.585E+08 1.585E+08 2.509E+00 5.580E+00 1.083E+02 1.720E+01 1.311E+02 1.336E+02 5.373E+06 14.7681 1.00000
  1.778E+08 1.778E+08 2.520E+00 6.303E+00 1.216E+02 1.963E+01 1.476E+02 1.501E+02 5.510E+06 14.9983 1.00000
  1.995E+08 1.995E+08 2.531E+00 7.117E+00 1.366E+02 2.242E+01 1.662E+02 1.687E+02 5.647E+06 15.2286 1.00000
  2.239E+08 2.239E+08 2.542E+00 8.035E+00 1.534E+02 2.559E+01 1.871E+02 1.896E+02 5.783E+06 15.4588 1.00000
  2.512E+08 2.512E+08 2.553E+00 9.068E+00 1.723E+02 2.922E+01 2.106E+02 2.132E+02 5.919E+06 15.6891 1.00000
  2.818E+08 2.818E+08 2.565E+00 1.023E+01 1.935E+02 3.337E+01 2.371E+02 2.397E+02 6.055E+06 15.9193 1.00000
  3.162E+08 3.162E+08 2.576E+00 1.154E+01 2.173E+02 3.811E+01 2.669E+02 2.695E+02 6.190E+06 16.1496 1.00000
  3.548E+08 3.548E+08 2.587E+00 1.302E+01 2.439E+02 4.353E+01 3.005E+02 3.031E+02 6.326E+06 16.3799 1.00000
  3.981E+08 3.981E+08 2.599E+00 1.468E+01 2.739E+02 4.971E+01 3.382E+02 3.408E+02 6.461E+06 16.6101 1.00000
  4.467E+08 4.467E+08 2.610E+00 1.654E+01 3.074E+02 5.679E+01 3.808E+02 3.834E+02 6.595E+06 16.8404 1.00000
  5.012E+08 5.012E+08 2.621E+00 1.864E+01 3.451E+02 6.487E+01 4.286E+02 4.313E+02 6.730E+06 17.0706 1.00000
  5.623E+08 5.623E+08 2.633E+00 2.100E+01 3.874E+02 7.410E+01 4.825E+02 4.852E+02 6.863E+06 17.3009 1.00000
  6.310E+08 6.310E+08 2.645E+00 2.366E+01 4.349E+02 8.466E+01 5.432E+02 5.458E+02 6.997E+06 17.5311 1.00000
  7.079E+08 7.079E+08 2.656E+00 2.665E+01 4.881E+02 9.673E+01 6.115E+02 6.142E+02 7.130E+06 17.7614 1.00000
  7.943E+08 7.943E+08 2.668E+00 3.000E+01 5.479E+02 1.105E+02 6.884E+02 6.911E+02 7.263E+06 17.9917 1.00000
  8.913E+08 8.913E+08 2.680E+00 3.378E+01 6.149E+02 1.263E+02 7.750E+02 7.777E+02 7.395E+06 18.2219 1.00000
  1.000E+09 1.000E+09 2.692E+00 3.802E+01 6.902E+02 1.443E+02 8.725E+02 8.752E+02 7.528E+06 18.4522 1.00000
  1.122E+09 1.122E+09 2.703E+00 4.278E+01 7.746E+02 1.649E+02 9.823E+02 9.850E+02 7.659E+06 18.6824 1.00000
  1.259E+09 1.259E+09 2.715E+00 4.813E+01 8.693E+02 1.885E+02 1.106E+03 1.109E+03 7.790E+06 18.9127 1.00000
  1.413E+09 1.413E+09 2.727E+00 5.415E+01 9.756E+02 2.154E+02 1.245E+03 1.248E+03 7.921E+06 19.1429 1.00000
  1.585E+09 1.585E+09 2.740E+00 6.090E+01 1.095E+03 2.462E+02 1.402E+03 1.405E+03 8.052E+06 19.3732 1.00000
  1.778E+09 1.778E+09 2.752E+00 6.849E+01 1.229E+03 2.815E+02 1.579E+03 1.581E+03 8.182E+06 19.6035 1.00000
  1.995E+09 1.995E+09 2.764E+00 7.702E+01 1.379E+03 3.218E+02 1.778E+03 1.780E+03 8.311E+06 19.8337 1.00000
  2.239E+09 2.239E+09 2.776E+00 8.659E+01 1.547E+03 3.678E+02 2.002E+03 2.004E+03 8.440E+06 20.0640 1.00000
  2.512E+09 2.512E+09 2.788E+00 9.734E+01 1.736E+03 4.205E+02 2.254E+03 2.257E+03 8.569E+06 20.2942 1.00000
  2.818E+09 2.818E+09 2.801E+00 1.094E+02 1.948E+03 4.808E+02 2.539E+03 2.541E+03 8.697E+06 20.5245 1.00000
  3.162E+09 3.162E+09 2.813E+00 1.230E+02 2.186E+03 5.497E+02 2.859E+03 2.862E+03 8.825E+06 20.7548 1.00000
  3.548E+09 3.548E+09 2.826E+00 1.382E+02 2.453E+03 6.286E+02 3.220E+03 3.223E+03 8.952E+06 20.9850 1.00000
  3.981E+09 3.981E+09 2.839E+00 1.553E+02 2.753E+03 7.188E+02 3.627E+03 3.630E+03 9.079E+06 21.2153 1.00000
  4.467E+09 4.467E+09 2.851E+00 1.744E+02 3.089E+03 8.220E+02 4.085E+03 4.088E+03 9.205E+06 21.4455 1.00000
  5.012E+09 5.012E+09 2.864E+00 1.960E+02 3.466E+03 9.400E+02 4.602E+03 4.605E+03 9.331E+06 21.6758 1.00000
  5.623E+09 5.623E+09 2.877E+00 2.201E+02 3.889E+03 1.075E+03 5.185E+03 5.187E+03 9.456E+06 21.9060 1.00000
  6.310E+09 6.310E+09 2.890E+00 2.472E+02 4.364E+03 1.230E+03 5.841E+03 5.844E+03 9.581E+06 22.1363 1.00000
  7.079E+09 7.079E+09 2.903E+00 2.777E+02 4.897E+03 1.406E+03 6.581E+03 6.584E+03 9.706E+06 22.3666 1.00000
  7.943E+09 7.943E+09 2.916E+00 3.119E+02 5.495E+03 1.609E+03 7.415E+03 7.418E+03 9.829E+06 22.5968 1.00000
  8.913E+09 8.913E+09 2.929E+00 3.502E+02 6.165E+03 1.840E+03 8.356E+03 8.359E+03 9.953E+06 22.8271 1.00000
  1.000E+10 1.000E+10 2.942E+00 3.932E+02 6.918E+03 2.105E+03 9.416E+03 9.419E+03 1.008E+07 23.0573 1.00000
  1.122E+10 1.122E+10 2.955E+00 4.415E+02 7.762E+03 2.409E+03 1.061E+04 1.062E+04 1.020E+07 23.2876 1.00000
  1.259E+10 1.259E+10 2.969E+00 4.958E+02 8.709E+03 2.756E+03 1.196E+04 1.196E+04 1.032E+07 23.5179 1.00000
  1.413E+10 1.413E+10 2.982E+00 5.566E+02 9.772E+03 3.153E+03 1.348E+04 1.348E+04 1.044E+07 23.7481 1.00000
  1.585E+10 1.585E+10 2.996E+00 6.249E+02 1.096E+04 3.608E+03 1.520E+04 1.520E+04 1.056E+07 23.9784 1.00000
  1.778E+10 1.778E+10 3.009E+00 7.015E+02 1.230E+04 4.128E+03 1.713E+04 1.714E+04 1.068E+07 24.2086 1.00000
  1.995E+10 1.995E+10 3.023E+00 7.875E+02 1.380E+04 4.724E+03 1.932E+04 1.932E+04 1.080E+07 24.4389 1.00000
  2.239E+10 2.239E+10 3.037E+00 8.839E+02 1.549E+04 5.406E+03 2.178E+04 2.178E+04 1.092E+07 24.6692 1.00000
  2.512E+10 2.512E+10 3.051E+00 9.922E+02 1.738E+04 6.187E+03 2.456E+04 2.456E+04 1.104E+07 24.8994 1.00000
  2.818E+10 2.818E+10 3.064E+00 1.114E+03 1.950E+04 7.082E+03 2.769E+04 2.770E+04 1.116E+07 25.1297 1.00000
  3.162E+10 3.162E+10 3.078E+00 1.250E+03 2.188E+04 8.106E+03 3.123E+04 3.124E+04 1.127E+07 25.3599 1.00000
  3.548E+10 3.548E+10 3.092E+00 1.403E+03 2.455E+04 9.278E+03 3.523E+04 3.523E+04 1.139E+07 25.5902 1.00000
  3.981E+10 3.981E+10 3.107E+00 1.575E+03 2.754E+04 1.062E+04 3.974E+04 3.974E+04 1.151E+07 25.8204 1.00000
  4.467E+10 4.467E+10 3.121E+00 1.767E+03 3.090E+04 1.216E+04 4.483E+04 4.483E+04 1.162E+07 26.0507 1.00000
  5.012E+10 5.012E+10 3.135E+00 1.983E+03 3.467E+04 1.392E+04 5.057E+04 5.058E+04 1.174E+07 26.2810 1.00000
  5.623E+10 5.623E+10 3.149E+00 2.226E+03 3.890E+04 1.594E+04 5.706E+04 5.707E+04 1.185E+07 26.5112 1.00000
  6.310E+10 6.310E+10 3.164E+00 2.498E+03 4.365E+04 1.825E+04 6.439E+04 6.439E+04 1.196E+07 26.7415 1.00000
  7.079E+10 7.079E+10 3.178E+00 2.803E+03 4.897E+04 2.089E+04 7.267E+04 7.267E+04 1.208E+07 26.9717 1.00000
  7.943E+10 7.943E+10 3.193E+00 3.146E+03 5.495E+04 2.392E+04 8.201E+04 8.202E+04 1.219E+07 27.2020 1.00000
  8.913E+10 8.913E+10 3.208E+00 3.530E+03 6.165E+04 2.739E+04 9.257E+04 9.258E+04 1.230E+07 27.4323 1.00000
  1.000E+11 1.000E+11 3.223E+00 3.962E+03 6.917E+04 3.137E+04 1.045E+05 1.045E+05 1.241E+07 27.6625 1.00000
  1.122E+11 1.122E+11 3.237E+00 4.446E+03 7.761E+04 3.593E+04 1.180E+05 1.180E+05 1.252E+07 27.8928 1.00000
  1.259E+11 1.259E+11 3.252E+00 4.989E+03 8.708E+04 4.115E+04 1.332E+05 1.332E+05 1.263E+07 28.1230 1.00000
  1.413E+11 1.413E+11 3.267E+00 5.598E+03 9.770E+04 4.713E+04 1.504E+05 1.504E+05 1.274E+07 28.3533 1.00000
  1.585E+11 1.585E+11 3.282E+00 6.282E+03 1.096E+05 5.398E+04 1.699E+05 1.699E+05 1.285E+07 28.5835 1.00000
  1.778E+11 1.778E+11 3.298E+00 7.049E+03 1.230E+05 6.184E+04 1.919E+05 1.919E+05 1.295E+07 28.8138 1.00000
  1.995E+11 1.995E+11 3.313E+00 7.909E+03 1.380E+05 7.084E+04 2.167E+05 2.167E+05 1.306E+07 29.0441 1.00000
  2.239E+11 2.239E+11 3.328E+00 8.875E+03 1.548E+05 8.115E+04 2.448E+05 2.449E+05 1.317E+07 29.2743 1.00000
  2.512E+11 2.512E+11 3.344E+00 9.959E+03 1.737E+05 9.297E+04 2.766E+05 2.766E+05 1.327E+07 29.5046 1.00000
  2.818E+11 2.818E+11 3.359E+00 1.117E+04 1.949E+05 1.065E+05 3.126E+05 3.126E+05 1.338E+07 29.7348 1.00000
  3.162E+11 3.162E+11 3.375E+00 1.254E+04 2.187E+05 1.220E+05 3.533E+05 3.533E+05 1.348E+07 29.9651 1.00000
  3.548E+11 3.548E+11 3.391E+00 1.407E+04 2.454E+05 1.398E+05 3.993E+05 3.993E+05 1.358E+07 30.1954 1.00000
  3.981E+11 3.981E+11 3.407E+00 1.579E+04 2.753E+05 1.602E+05 4.513E+05 4.513E+05 1.368E+07 30.4256 1.00000
  4.467E+11 4.467E+11 3.422E+00 1.771E+04 3.089E+05 1.836E+05 5.102E+05 5.102E+05 1.379E+07 30.6559 1.00000
  5.012E+11 5.012E+11 3.438E+00 1.988E+04 3.465E+05 2.105E+05 5.769E+05 5.769E+05 1.389E+07 30.8861 1.00000
  5.623E+11 5.623E+11 3.454E+00 2.230E+04 3.888E+05 2.412E+05 6.523E+05 6.523E+05 1.399E+07 31.1164 1.00000
  6.310E+11 6.310E+11 3.471E+00 2.502E+04 4.362E+05 2.764E+05 7.377E+05 7.377E+05 1.409E+07 31.3466 1.00000
  7.079E+11 7.079E+11 3.487E+00 2.808E+04 4.894E+05 3.169E+05 8.344E+05 8.344E+05 1.418E+07 31.5769 1.00000
  7.943E+11 7.943E+11 3.503E+00 3.150E+04 5.491E+05 3.632E+05 9.438E+05 9.438E+05 1.428E+07 31.8072 1.00000
  8.913E+11 8.913E+11 3.520E+00 3.535E+04 6.161E+05 4.163E+05 1.068E+06 1.068E+06 1.438E+07 32.0374 1.00000
  1.000E+12 1.000E+12 3.536E+00 3.966E+04 6.913E+05 4.773E+05 1.208E+06 1.208E+06 1.447E+07 32.2677 1.00000
  1.122E+12 1.122E+12 3.553E+00 4.450E+04 7.756E+05 5.472E+05 1.367E+06 1.367E+06 1.457E+07 32.4979 1.00000
  1.259E+12 1.259E+12 3.570E+00 4.993E+04 8.702E+05 6.273E+05 1.547E+06 1.547E+06 1.466E+07 32.7282 1.00000
  1.413E+12 1.413E+12 3.586E+00 5.603E+04 9.763E+05 7.192E+05 1.752E+06 1.752E+06 1.476E+07 32.9585 1.00000
  1.585E+12 1.585E+12 3.603E+00 6.286E+04 1.095E+06 8.247E+05 1.983E+06 1.983E+06 1.485E+07 33.1887 1.00000
  1.778E+12 1.778E+12 3.620E+00 7.053E+04 1.229E+06 9.456E+05 2.245E+06 2.245E+06 1.494E+07 33.4190 1.00000
  1.995E+12 1.995E+12 3.637E+00 7.914E+04 1.379E+06 1.084E+06 2.542E+06 2.542E+06 1.503E+07 33.6492 1.00000
  2.239E+12 2.239E+12 3.655E+00 8.880E+04 1.547E+06 1.244E+06 2.879E+06 2.879E+06 1.512E+07 33.8795 1.00000
  2.512E+12 2.512E+12 3.672E+00 9.964E+04 1.736E+06 1.426E+06 3.262E+06 3.262E+06 1.521E+07 34.1097 1.00000
  2.818E+12 2.818E+12 3.689E+00 1.118E+05 1.948E+06 1.636E+06 3.695E+06 3.695E+06 1.530E+07 34.3400 1.00000
  3.162E+12 3.162E+12 3.707E+00 1.254E+05 2.185E+06 1.876E+06 4.187E+06 4.187E+06 1.539E+07 34.5703 1.00000
  3.548E+12 3.548E+12 3.724E+00 1.407E+05 2.452E+06 2.152E+06 4.744E+06 4.744E+06 1.547E+07 34.8005 1.00000
  3.981E+12 3.981E+12 3.742E+00 1.579E+05 2.751E+06 2.468E+06 5.377E+06 5.377E+06 1.556E+07 35.0308 1.00000
  4.467E+12 4.467E+12 3.760E+00 1.772E+05 3.086E+06 2.831E+06 6.095E+06 6.095E+06 1.565E+07 35.2610 1.00000
  5.012E+12 5.012E+12 3.777E+00 1.988E+05 3.463E+06 3.248E+06 6.909E+06 6.909E+06 1.573E+07 35.4913 1.00000
  5.623E+12 5.623E+12 3.795E+00 2.231E+05 3.885E+06 3.726E+06 7.834E+06 7.834E+06 1.581E+07 35.7216 1.00000
  6.310E+12 6.310E+12 3.813E+00 2.503E+05 4.359E+06 4.275E+06 8.884E+06 8.884E+06 1.590E+07 35.9518 1.00000
  7.079E+12 7.079E+12 3.832E+00 2.808E+05 4.890E+06 4.905E+06 1.008E+07 1.008E+07 1.598E+07 36.1821 1.00000
  7.943E+12 7.943E+12 3.850E+00 3.151E+05 5.487E+06 5.628E+06 1.143E+07 1.143E+07 1.606E+07 36.4123 1.00000
  8.913E+12 8.913E+12 3.868E+00 3.535E+05 6.156E+06 6.458E+06 1.297E+07 1.297E+07 1.614E+07 36.6426 1.00000
  1.000E+13 1.000E+13 3.887E+00 3.967E+05 6.907E+06 7.411E+06 1.471E+07 1.471E+07 1.622E+07 36.8729 1.00000
  1.122E+13 1.122E+13 3.905E+00 4.451E+05 7.749E+06 8.504E+06 1.670E+07 1.670E+07 1.629E+07 37.1031 1.00000
  1.259E+13 1.259E+13 3.924E+00 4.994E+05 8.694E+06 9.760E+06 1.895E+07 1.895E+07 1.637E+07 37.3334 1.00000
  1.413E+13 1.413E+13 3.943E+00 5.603E+05 9.755E+06 1.120E+07 2.152E+07 2.152E+07 1.645E+07 37.5636 1.00000
  1.585E+13 1.585E+13 3.961E+00 6.287E+05 1.094E+07 1.286E+07 2.443E+07 2.443E+07 1.652E+07 37.7939 1.00000
  1.778E+13 1.778E+13 3.980E+00 7.054E+05 1.228E+07 1.476E+07 2.774E+07 2.774E+07 1.660E+07 38.0241 1.00000
  1.995E+13 1.995E+13 3.999E+00 7.915E+05 1.378E+07 1.694E+07 3.151E+07 3.151E+07 1.667E+07 38.2544 1.00000
  2.239E+13 2.239E+13 4.019E+00 8.881E+05 1.546E+07 1.944E+07 3.579E+07 3.579E+07 1.674E+07 38.4847 1.00000
  2.512E+13 2.512E+13 4.038E+00 9.964E+05 1.734E+07 2.232E+07 4.066E+07 4.066E+07 1.682E+07 38.7149 1.00000
  2.818E+13 2.818E+13 4.057E+00 1.118E+06 1.946E+07 2.562E+07 4.620E+07 4.620E+07 1.689E+07 38.9452 1.00000
  3.162E+13 3.162E+13 4.077E+00 1.254E+06 2.183E+07 2.942E+07 5.250E+07 5.250E+07 1.696E+07 39.1754 1.00000
  3.548E+13 3.548E+13 4.096E+00 1.407E+06 2.449E+07 3.378E+07 5.968E+07 5.968E+07 1.702E+07 39.4057 1.00000
  3.981E+13 3.981E+13 4.116E+00 1.579E+06 2.748E+07 3.878E+07 6.784E+07 6.784E+07 1.709E+07 39.6360 1.00000
  4.467E+13 4.467E+13 4.136E+00 1.772E+06 3.083E+07 4.453E+07 7.713E+07 7.713E+07 1.716E+07 39.8662 1.00000
  5.012E+13 5.012E+13 4.156E+00 1.988E+06 3.459E+07 5.113E+07 8.771E+07 8.771E+07 1.723E+07 40.0965 1.00000
  5.623E+13 5.623E+13 4.176E+00 2.231E+06 3.881E+07 5.872E+07 9.976E+07 9.976E+07 1.729E+07 40.3267 1.00000
  6.310E+13 6.310E+13 4.196E+00 2.503E+06 4.354E+07 6.743E+07 1.135E+08 1.135E+08 1.736E+07 40.5570 1.00000
  7.079E+13 7.079E+13 4.216E+00 2.808E+06 4.885E+07 7.744E+07 1.291E+08 1.291E+08 1.742E+07 40.7872 1.00000
  7.943E+13 7.943E+13 4.236E+00 3.151E+06 5.481E+07 8.894E+07 1.469E+08 1.469E+08 1.748E+07 41.0175 1.00000
  8.913E+13 8.913E+13 4.257E+00 3.535E+06 6.149E+07 1.022E+08 1.672E+08 1.672E+08 1.755E+07 41.2478 1.00000
