 Incident particle is a Tau with M = 1776.82000 MeV
 Index = 0: Freon12
      Absorber with <Z/A> = 0.47968
 Sternheimer coef:  a     k=m_s   x_0    x_1    I[eV]   Cbar  delta0
                 0.0798  3.4626  0.3035  3.2659  143.0  4.8251 0.00

 *** Table generated with PUMAS v1.00 ***

      T         p     Ionization  brems     pair     photonuc  Radloss    dE/dx   CSDA Range  delta   beta
    [MeV]    [MeV/c]  -----------------------[MeV cm^2/g]------------------------  [g/cm^2]
  1.000E+05 1.018E+05 2.098E+00 2.407E-04 3.832E-03 8.124E-03 1.220E-02 2.110E+00 2.370E+04  3.6014 0.99985
  1.122E+05 1.140E+05 2.117E+00 2.783E-04 4.607E-03 9.159E-03 1.404E-02 2.131E+00 2.945E+04  3.7920 0.99988
  1.259E+05 1.277E+05 2.137E+00 3.216E-04 5.520E-03 1.027E-02 1.611E-02 2.153E+00 3.584E+04  3.9859 0.99990
  1.413E+05 1.430E+05 2.157E+00 3.714E-04 6.595E-03 1.152E-02 1.849E-02 2.175E+00 4.294E+04  4.1827 0.99992
  1.585E+05 1.603E+05 2.176E+00 4.288E-04 7.857E-03 1.292E-02 2.121E-02 2.197E+00 5.083E+04  4.3825 0.99994
  1.778E+05 1.796E+05 2.195E+00 4.948E-04 9.336E-03 1.448E-02 2.431E-02 2.220E+00 5.958E+04  4.5849 0.99995
  1.995E+05 2.013E+05 2.214E+00 5.707E-04 1.106E-02 1.626E-02 2.789E-02 2.242E+00 6.931E+04  4.7900 0.99996
  2.239E+05 2.256E+05 2.233E+00 6.579E-04 1.308E-02 1.819E-02 3.194E-02 2.265E+00 8.011E+04  4.9974 0.99997
  2.512E+05 2.530E+05 2.252E+00 7.580E-04 1.544E-02 2.036E-02 3.656E-02 2.289E+00 9.211E+04  5.2071 0.99998
  2.818E+05 2.836E+05 2.271E+00 8.730E-04 1.817E-02 2.280E-02 4.185E-02 2.313E+00 1.054E+05  5.4190 0.99998
  3.162E+05 3.180E+05 2.289E+00 1.005E-03 2.134E-02 2.556E-02 4.791E-02 2.337E+00 1.202E+05  5.6328 0.99998
  3.548E+05 3.566E+05 2.308E+00 1.156E-03 2.502E-02 2.865E-02 5.483E-02 2.363E+00 1.366E+05  5.8485 0.99999
  3.981E+05 3.999E+05 2.326E+00 1.330E-03 2.928E-02 3.209E-02 6.271E-02 2.389E+00 1.549E+05  6.0659 0.99999
  4.467E+05 4.485E+05 2.344E+00 1.529E-03 3.421E-02 3.595E-02 7.168E-02 2.416E+00 1.751E+05  6.2849 0.99999
  5.012E+05 5.030E+05 2.362E+00 1.757E-03 3.988E-02 4.029E-02 8.193E-02 2.444E+00 1.975E+05  6.5054 0.99999
  5.623E+05 5.641E+05 2.380E+00 2.018E-03 4.643E-02 4.498E-02 9.343E-02 2.474E+00 2.224E+05  6.7272 1.00000
  6.310E+05 6.327E+05 2.398E+00 2.316E-03 5.397E-02 5.027E-02 1.065E-01 2.504E+00 2.500E+05  6.9502 1.00000
  7.079E+05 7.097E+05 2.416E+00 2.658E-03 6.263E-02 5.623E-02 1.215E-01 2.537E+00 2.805E+05  7.1744 1.00000
  7.943E+05 7.961E+05 2.433E+00 3.050E-03 7.257E-02 6.295E-02 1.386E-01 2.572E+00 3.143E+05  7.3995 1.00000
  8.913E+05 8.930E+05 2.450E+00 3.497E-03 8.397E-02 7.055E-02 1.580E-01 2.608E+00 3.517E+05  7.6255 1.00000
  1.000E+06 1.002E+06 2.468E+00 4.009E-03 9.704E-02 7.914E-02 1.802E-01 2.648E+00 3.931E+05  7.8523 1.00000
  1.122E+06 1.124E+06 2.485E+00 4.594E-03 1.120E-01 8.886E-02 2.054E-01 2.690E+00 4.388E+05  8.0798 1.00000
  1.259E+06 1.261E+06 2.502E+00 5.263E-03 1.291E-01 9.985E-02 2.342E-01 2.736E+00 4.893E+05  8.3079 1.00000
  1.413E+06 1.414E+06 2.519E+00 6.027E-03 1.486E-01 1.123E-01 2.669E-01 2.786E+00 5.450E+05  8.5365 1.00000
  1.585E+06 1.587E+06 2.535E+00 6.900E-03 1.708E-01 1.264E-01 3.042E-01 2.839E+00 6.062E+05  8.7655 1.00000
  1.778E+06 1.780E+06 2.552E+00 7.896E-03 1.962E-01 1.424E-01 3.465E-01 2.898E+00 6.737E+05  8.9949 1.00000
  1.995E+06 1.997E+06 2.568E+00 9.033E-03 2.250E-01 1.606E-01 3.947E-01 2.963E+00 7.477E+05  9.2245 1.00000
  2.239E+06 2.240E+06 2.585E+00 1.033E-02 2.579E-01 1.813E-01 4.495E-01 3.034E+00 8.289E+05  9.4543 1.00000
  2.512E+06 2.514E+06 2.601E+00 1.181E-02 2.952E-01 2.047E-01 5.117E-01 3.112E+00 9.178E+05  9.6843 1.00000
  2.818E+06 2.820E+06 2.617E+00 1.350E-02 3.376E-01 2.313E-01 5.824E-01 3.199E+00 1.015E+06  9.9144 1.00000
  3.162E+06 3.164E+06 2.633E+00 1.542E-02 3.856E-01 2.616E-01 6.627E-01 3.295E+00 1.121E+06 10.1445 1.00000
  3.548E+06 3.550E+06 2.648E+00 1.762E-02 4.401E-01 2.960E-01 7.538E-01 3.402E+00 1.236E+06 10.3746 1.00000
  3.981E+06 3.983E+06 2.664E+00 2.012E-02 5.019E-01 3.352E-01 8.572E-01 3.521E+00 1.361E+06 10.6048 1.00000
  4.467E+06 4.469E+06 2.679E+00 2.297E-02 5.718E-01 3.798E-01 9.745E-01 3.654E+00 1.497E+06 10.8349 1.00000
  5.012E+06 5.014E+06 2.694E+00 2.621E-02 6.509E-01 4.305E-01 1.108E+00 3.802E+00 1.643E+06 11.0651 1.00000
  5.623E+06 5.625E+06 2.710E+00 2.991E-02 7.403E-01 4.882E-01 1.258E+00 3.968E+00 1.800E+06 11.2953 1.00000
  6.310E+06 6.311E+06 2.724E+00 3.411E-02 8.414E-01 5.540E-01 1.430E+00 4.154E+00 1.969E+06 11.5255 1.00000
  7.079E+06 7.081E+06 2.739E+00 3.890E-02 9.556E-01 6.289E-01 1.623E+00 4.363E+00 2.150E+06 11.7557 1.00000
  7.943E+06 7.945E+06 2.754E+00 4.434E-02 1.085E+00 7.143E-01 1.843E+00 4.597E+00 2.343E+06 11.9859 1.00000
  8.913E+06 8.914E+06 2.768E+00 5.054E-02 1.230E+00 8.115E-01 2.092E+00 4.860E+00 2.548E+06 12.2161 1.00000
  1.000E+07 1.000E+07 2.783E+00 5.758E-02 1.394E+00 9.224E-01 2.374E+00 5.157E+00 2.766E+06 12.4463 1.00000
  1.122E+07 1.122E+07 2.797E+00 6.558E-02 1.579E+00 1.049E+00 2.693E+00 5.490E+00 2.995E+06 12.6765 1.00000
  1.259E+07 1.259E+07 2.811E+00 7.467E-02 1.787E+00 1.193E+00 3.055E+00 5.866E+00 3.237E+06 12.9067 1.00000
  1.413E+07 1.413E+07 2.825E+00 8.500E-02 2.022E+00 1.357E+00 3.464E+00 6.289E+00 3.490E+06 13.1370 1.00000
  1.585E+07 1.585E+07 2.839E+00 9.673E-02 2.287E+00 1.544E+00 3.928E+00 6.767E+00 3.754E+06 13.3672 1.00000
  1.778E+07 1.778E+07 2.853E+00 1.100E-01 2.584E+00 1.758E+00 4.453E+00 7.305E+00 4.029E+06 13.5974 1.00000
  1.995E+07 1.995E+07 2.866E+00 1.252E-01 2.920E+00 2.002E+00 5.047E+00 7.913E+00 4.315E+06 13.8277 1.00000
  2.239E+07 2.239E+07 2.880E+00 1.423E-01 3.297E+00 2.280E+00 5.719E+00 8.599E+00 4.610E+06 14.0579 1.00000
  2.512E+07 2.512E+07 2.893E+00 1.618E-01 3.721E+00 2.597E+00 6.480E+00 9.373E+00 4.915E+06 14.2881 1.00000
  2.818E+07 2.819E+07 2.907E+00 1.838E-01 4.198E+00 2.959E+00 7.341E+00 1.025E+01 5.228E+06 14.5184 1.00000
  3.162E+07 3.162E+07 2.920E+00 2.088E-01 4.734E+00 3.372E+00 8.315E+00 1.124E+01 5.549E+06 14.7486 1.00000
  3.548E+07 3.548E+07 2.934E+00 2.372E-01 5.337E+00 3.843E+00 9.418E+00 1.235E+01 5.877E+06 14.9789 1.00000
  3.981E+07 3.981E+07 2.947E+00 2.693E-01 6.015E+00 4.381E+00 1.067E+01 1.361E+01 6.211E+06 15.2091 1.00000
  4.467E+07 4.467E+07 2.960E+00 3.057E-01 6.777E+00 4.995E+00 1.208E+01 1.504E+01 6.551E+06 15.4394 1.00000
  5.012E+07 5.012E+07 2.974E+00 3.468E-01 7.633E+00 5.696E+00 1.368E+01 1.665E+01 6.896E+06 15.6696 1.00000
  5.623E+07 5.624E+07 2.987E+00 3.934E-01 8.595E+00 6.497E+00 1.548E+01 1.847E+01 7.245E+06 15.8999 1.00000
  6.310E+07 6.310E+07 3.000E+00 4.462E-01 9.675E+00 7.410E+00 1.753E+01 2.053E+01 7.598E+06 16.1301 1.00000
  7.079E+07 7.080E+07 3.014E+00 5.059E-01 1.089E+01 8.453E+00 1.985E+01 2.286E+01 7.954E+06 16.3604 1.00000
  7.943E+07 7.943E+07 3.027E+00 5.734E-01 1.225E+01 9.644E+00 2.247E+01 2.550E+01 8.312E+06 16.5906 1.00000
  8.913E+07 8.913E+07 3.040E+00 6.497E-01 1.378E+01 1.100E+01 2.544E+01 2.848E+01 8.672E+06 16.8209 1.00000
  1.000E+08 1.000E+08 3.054E+00 7.359E-01 1.550E+01 1.256E+01 2.879E+01 3.185E+01 9.034E+06 17.0511 1.00000
  1.122E+08 1.122E+08 3.067E+00 8.334E-01 1.743E+01 1.433E+01 3.259E+01 3.566E+01 9.397E+06 17.2814 1.00000
  1.259E+08 1.259E+08 3.081E+00 9.435E-01 1.960E+01 1.636E+01 3.690E+01 3.998E+01 9.760E+06 17.5116 1.00000
  1.413E+08 1.413E+08 3.094E+00 1.068E+00 2.203E+01 1.867E+01 4.177E+01 4.486E+01 1.012E+07 17.7419 1.00000
  1.585E+08 1.585E+08 3.108E+00 1.208E+00 2.476E+01 2.131E+01 4.728E+01 5.039E+01 1.049E+07 17.9722 1.00000
  1.778E+08 1.778E+08 3.121E+00 1.367E+00 2.783E+01 2.433E+01 5.352E+01 5.664E+01 1.085E+07 18.2024 1.00000
  1.995E+08 1.995E+08 3.135E+00 1.546E+00 3.127E+01 2.778E+01 6.059E+01 6.373E+01 1.121E+07 18.4327 1.00000
  2.239E+08 2.239E+08 3.149E+00 1.747E+00 3.513E+01 3.172E+01 6.860E+01 7.174E+01 1.157E+07 18.6629 1.00000
  2.512E+08 2.512E+08 3.162E+00 1.975E+00 3.947E+01 3.622E+01 7.766E+01 8.082E+01 1.193E+07 18.8932 1.00000
  2.818E+08 2.818E+08 3.176E+00 2.231E+00 4.433E+01 4.136E+01 8.792E+01 9.110E+01 1.229E+07 19.1234 1.00000
  3.162E+08 3.162E+08 3.190E+00 2.521E+00 4.979E+01 4.724E+01 9.955E+01 1.027E+02 1.264E+07 19.3537 1.00000
  3.548E+08 3.548E+08 3.204E+00 2.847E+00 5.592E+01 5.395E+01 1.127E+02 1.159E+02 1.300E+07 19.5840 1.00000
  3.981E+08 3.981E+08 3.218E+00 3.214E+00 6.280E+01 6.162E+01 1.276E+02 1.309E+02 1.335E+07 19.8142 1.00000
  4.467E+08 4.467E+08 3.232E+00 3.628E+00 7.052E+01 7.039E+01 1.445E+02 1.478E+02 1.370E+07 20.0445 1.00000
  5.012E+08 5.012E+08 3.246E+00 4.094E+00 7.918E+01 8.041E+01 1.637E+02 1.669E+02 1.405E+07 20.2747 1.00000
  5.623E+08 5.623E+08 3.260E+00 4.619E+00 8.890E+01 9.186E+01 1.854E+02 1.886E+02 1.439E+07 20.5050 1.00000
  6.310E+08 6.310E+08 3.274E+00 5.210E+00 9.981E+01 1.050E+02 2.100E+02 2.132E+02 1.474E+07 20.7352 1.00000
  7.079E+08 7.079E+08 3.289E+00 5.875E+00 1.121E+02 1.199E+02 2.378E+02 2.411E+02 1.508E+07 20.9655 1.00000
  7.943E+08 7.943E+08 3.303E+00 6.623E+00 1.258E+02 1.370E+02 2.694E+02 2.727E+02 1.541E+07 21.1958 1.00000
  8.913E+08 8.913E+08 3.318E+00 7.466E+00 1.412E+02 1.566E+02 3.052E+02 3.086E+02 1.575E+07 21.4260 1.00000
  1.000E+09 1.000E+09 3.332E+00 8.413E+00 1.585E+02 1.789E+02 3.458E+02 3.492E+02 1.608E+07 21.6563 1.00000
  1.122E+09 1.122E+09 3.347E+00 9.479E+00 1.779E+02 2.045E+02 3.919E+02 3.952E+02 1.641E+07 21.8865 1.00000
  1.259E+09 1.259E+09 3.361E+00 1.068E+01 1.997E+02 2.337E+02 4.441E+02 4.474E+02 1.674E+07 22.1168 1.00000
  1.413E+09 1.413E+09 3.376E+00 1.203E+01 2.241E+02 2.671E+02 5.033E+02 5.066E+02 1.706E+07 22.3470 1.00000
  1.585E+09 1.585E+09 3.391E+00 1.354E+01 2.516E+02 3.053E+02 5.704E+02 5.738E+02 1.738E+07 22.5773 1.00000
  1.778E+09 1.778E+09 3.406E+00 1.524E+01 2.823E+02 3.490E+02 6.465E+02 6.499E+02 1.770E+07 22.8076 1.00000
  1.995E+09 1.995E+09 3.421E+00 1.716E+01 3.169E+02 3.989E+02 7.329E+02 7.363E+02 1.801E+07 23.0378 1.00000
  2.239E+09 2.239E+09 3.436E+00 1.931E+01 3.556E+02 4.560E+02 8.309E+02 8.344E+02 1.832E+07 23.2681 1.00000
  2.512E+09 2.512E+09 3.451E+00 2.173E+01 3.991E+02 5.214E+02 9.422E+02 9.456E+02 1.863E+07 23.4983 1.00000
  2.818E+09 2.818E+09 3.467E+00 2.445E+01 4.478E+02 5.961E+02 1.068E+03 1.072E+03 1.894E+07 23.7286 1.00000
  3.162E+09 3.162E+09 3.482E+00 2.750E+01 5.026E+02 6.816E+02 1.212E+03 1.215E+03 1.924E+07 23.9589 1.00000
  3.548E+09 3.548E+09 3.497E+00 3.093E+01 5.640E+02 7.793E+02 1.374E+03 1.378E+03 1.954E+07 24.1891 1.00000
  3.981E+09 3.981E+09 3.513E+00 3.478E+01 6.329E+02 8.912E+02 1.559E+03 1.562E+03 1.983E+07 24.4194 1.00000
  4.467E+09 4.467E+09 3.529E+00 3.911E+01 7.102E+02 1.019E+03 1.768E+03 1.772E+03 2.012E+07 24.6496 1.00000
  5.012E+09 5.012E+09 3.544E+00 4.397E+01 7.969E+02 1.165E+03 2.006E+03 2.010E+03 2.041E+07 24.8799 1.00000
  5.623E+09 5.623E+09 3.560E+00 4.943E+01 8.942E+02 1.333E+03 2.277E+03 2.280E+03 2.070E+07 25.1101 1.00000
  6.310E+09 6.310E+09 3.576E+00 5.556E+01 1.003E+03 1.525E+03 2.584E+03 2.587E+03 2.098E+07 25.3404 1.00000
  7.079E+09 7.079E+09 3.592E+00 6.244E+01 1.126E+03 1.744E+03 2.932E+03 2.936E+03 2.126E+07 25.5707 1.00000
  7.943E+09 7.943E+09 3.608E+00 7.017E+01 1.263E+03 1.995E+03 3.328E+03 3.332E+03 2.154E+07 25.8009 1.00000
  8.913E+09 8.913E+09 3.624E+00 7.884E+01 1.418E+03 2.282E+03 3.778E+03 3.782E+03 2.181E+07 26.0312 1.00000
  1.000E+10 1.000E+10 3.640E+00 8.858E+01 1.591E+03 2.610E+03 4.290E+03 4.293E+03 2.208E+07 26.2614 1.00000
  1.122E+10 1.122E+10 3.657E+00 9.952E+01 1.785E+03 2.986E+03 4.871E+03 4.874E+03 2.235E+07 26.4917 1.00000
  1.259E+10 1.259E+10 3.673E+00 1.118E+02 2.003E+03 3.417E+03 5.531E+03 5.535E+03 2.262E+07 26.7220 1.00000
  1.413E+10 1.413E+10 3.690E+00 1.256E+02 2.247E+03 3.909E+03 6.282E+03 6.286E+03 2.288E+07 26.9522 1.00000
  1.585E+10 1.585E+10 3.706E+00 1.410E+02 2.521E+03 4.473E+03 7.136E+03 7.139E+03 2.313E+07 27.1825 1.00000
  1.778E+10 1.778E+10 3.723E+00 1.584E+02 2.829E+03 5.119E+03 8.106E+03 8.110E+03 2.339E+07 27.4127 1.00000
  1.995E+10 1.995E+10 3.740E+00 1.779E+02 3.174E+03 5.857E+03 9.210E+03 9.213E+03 2.364E+07 27.6430 1.00000
  2.239E+10 2.239E+10 3.757E+00 1.997E+02 3.562E+03 6.703E+03 1.046E+04 1.047E+04 2.389E+07 27.8733 1.00000
  2.512E+10 2.512E+10 3.774E+00 2.243E+02 3.996E+03 7.672E+03 1.189E+04 1.190E+04 2.413E+07 28.1035 1.00000
  2.818E+10 2.818E+10 3.791E+00 2.518E+02 4.484E+03 8.780E+03 1.352E+04 1.352E+04 2.438E+07 28.3338 1.00000
  3.162E+10 3.162E+10 3.808E+00 2.828E+02 5.031E+03 1.005E+04 1.536E+04 1.537E+04 2.462E+07 28.5640 1.00000
  3.548E+10 3.548E+10 3.825E+00 3.174E+02 5.645E+03 1.150E+04 1.747E+04 1.747E+04 2.485E+07 28.7943 1.00000
  3.981E+10 3.981E+10 3.842E+00 3.564E+02 6.334E+03 1.317E+04 1.986E+04 1.986E+04 2.508E+07 29.0245 1.00000
  4.467E+10 4.467E+10 3.860E+00 4.001E+02 7.107E+03 1.507E+04 2.258E+04 2.259E+04 2.531E+07 29.2548 1.00000
  5.012E+10 5.012E+10 3.878E+00 4.491E+02 7.974E+03 1.726E+04 2.568E+04 2.568E+04 2.554E+07 29.4851 1.00000
  5.623E+10 5.623E+10 3.895E+00 5.041E+02 8.947E+03 1.976E+04 2.921E+04 2.921E+04 2.576E+07 29.7153 1.00000
  6.310E+10 6.310E+10 3.913E+00 5.659E+02 1.004E+04 2.262E+04 3.323E+04 3.323E+04 2.599E+07 29.9456 1.00000
  7.079E+10 7.079E+10 3.931E+00 6.352E+02 1.126E+04 2.590E+04 3.780E+04 3.780E+04 2.620E+07 30.1758 1.00000
  7.943E+10 7.943E+10 3.949E+00 7.129E+02 1.264E+04 2.966E+04 4.301E+04 4.301E+04 2.642E+07 30.4061 1.00000
  8.913E+10 8.913E+10 3.967E+00 8.002E+02 1.418E+04 3.396E+04 4.894E+04 4.895E+04 2.663E+07 30.6364 1.00000
  1.000E+11 1.000E+11 3.985E+00 8.981E+02 1.591E+04 3.890E+04 5.570E+04 5.571E+04 2.684E+07 30.8666 1.00000
  1.122E+11 1.122E+11 4.003E+00 1.008E+03 1.785E+04 4.454E+04 6.340E+04 6.341E+04 2.704E+07 31.0969 1.00000
  1.259E+11 1.259E+11 4.022E+00 1.131E+03 2.003E+04 5.102E+04 7.217E+04 7.218E+04 2.725E+07 31.3271 1.00000
  1.413E+11 1.413E+11 4.040E+00 1.269E+03 2.247E+04 5.843E+04 8.217E+04 8.218E+04 2.745E+07 31.5574 1.00000
  1.585E+11 1.585E+11 4.059E+00 1.425E+03 2.521E+04 6.693E+04 9.357E+04 9.357E+04 2.764E+07 31.7876 1.00000
  1.778E+11 1.778E+11 4.077E+00 1.599E+03 2.829E+04 7.667E+04 1.066E+05 1.066E+05 2.784E+07 32.0179 1.00000
  1.995E+11 1.995E+11 4.096E+00 1.794E+03 3.174E+04 8.783E+04 1.214E+05 1.214E+05 2.803E+07 32.2482 1.00000
  2.239E+11 2.239E+11 4.115E+00 2.013E+03 3.561E+04 1.006E+05 1.382E+05 1.382E+05 2.822E+07 32.4784 1.00000
  2.512E+11 2.512E+11 4.134E+00 2.259E+03 3.995E+04 1.153E+05 1.575E+05 1.575E+05 2.840E+07 32.7087 1.00000
  2.818E+11 2.818E+11 4.153E+00 2.536E+03 4.483E+04 1.321E+05 1.794E+05 1.794E+05 2.859E+07 32.9389 1.00000
  3.162E+11 3.162E+11 4.173E+00 2.845E+03 5.029E+04 1.513E+05 2.045E+05 2.045E+05 2.877E+07 33.1692 1.00000
  3.548E+11 3.548E+11 4.192E+00 3.193E+03 5.643E+04 1.734E+05 2.330E+05 2.330E+05 2.894E+07 33.3995 1.00000
  3.981E+11 3.981E+11 4.211E+00 3.583E+03 6.331E+04 1.987E+05 2.656E+05 2.656E+05 2.912E+07 33.6297 1.00000
  4.467E+11 4.467E+11 4.231E+00 4.020E+03 7.104E+04 2.277E+05 3.027E+05 3.027E+05 2.929E+07 33.8600 1.00000
  5.012E+11 5.012E+11 4.251E+00 4.511E+03 7.970E+04 2.609E+05 3.451E+05 3.451E+05 2.946E+07 34.0902 1.00000
  5.623E+11 5.623E+11 4.270E+00 5.062E+03 8.942E+04 2.990E+05 3.935E+05 3.935E+05 2.962E+07 34.3205 1.00000
  6.310E+11 6.310E+11 4.290E+00 5.680E+03 1.003E+05 3.427E+05 4.488E+05 4.488E+05 2.979E+07 34.5507 1.00000
  7.079E+11 7.079E+11 4.310E+00 6.373E+03 1.126E+05 3.929E+05 5.118E+05 5.118E+05 2.995E+07 34.7810 1.00000
  7.943E+11 7.943E+11 4.330E+00 7.151E+03 1.263E+05 4.503E+05 5.838E+05 5.838E+05 3.011E+07 35.0113 1.00000
  8.913E+11 8.913E+11 4.350E+00 8.024E+03 1.417E+05 5.162E+05 6.659E+05 6.659E+05 3.026E+07 35.2415 1.00000
  1.000E+12 1.000E+12 4.371E+00 9.004E+03 1.590E+05 5.918E+05 7.597E+05 7.597E+05 3.042E+07 35.4718 1.00000
  1.122E+12 1.122E+12 4.391E+00 1.010E+04 1.784E+05 6.784E+05 8.669E+05 8.669E+05 3.057E+07 35.7020 1.00000
  1.259E+12 1.259E+12 4.412E+00 1.134E+04 2.001E+05 7.778E+05 9.893E+05 9.893E+05 3.071E+07 35.9323 1.00000
  1.413E+12 1.413E+12 4.432E+00 1.272E+04 2.246E+05 8.918E+05 1.129E+06 1.129E+06 3.086E+07 36.1626 1.00000
  1.585E+12 1.585E+12 4.453E+00 1.427E+04 2.519E+05 1.022E+06 1.289E+06 1.289E+06 3.100E+07 36.3928 1.00000
  1.778E+12 1.778E+12 4.474E+00 1.601E+04 2.827E+05 1.172E+06 1.471E+06 1.471E+06 3.114E+07 36.6231 1.00000
  1.995E+12 1.995E+12 4.495E+00 1.797E+04 3.172E+05 1.344E+06 1.680E+06 1.680E+06 3.128E+07 36.8533 1.00000
  2.239E+12 2.239E+12 4.516E+00 2.016E+04 3.558E+05 1.542E+06 1.918E+06 1.918E+06 3.142E+07 37.0836 1.00000
  2.512E+12 2.512E+12 4.538E+00 2.262E+04 3.992E+05 1.768E+06 2.190E+06 2.190E+06 3.155E+07 37.3138 1.00000
  2.818E+12 2.818E+12 4.559E+00 2.538E+04 4.479E+05 2.028E+06 2.501E+06 2.501E+06 3.168E+07 37.5441 1.00000
  3.162E+12 3.162E+12 4.580E+00 2.848E+04 5.026E+05 2.326E+06 2.857E+06 2.857E+06 3.181E+07 37.7744 1.00000
  3.548E+12 3.548E+12 4.602E+00 3.196E+04 5.639E+05 2.668E+06 3.264E+06 3.264E+06 3.194E+07 38.0046 1.00000
  3.981E+12 3.981E+12 4.624E+00 3.586E+04 6.326E+05 3.060E+06 3.729E+06 3.729E+06 3.206E+07 38.2349 1.00000
  4.467E+12 4.467E+12 4.645E+00 4.023E+04 7.098E+05 3.510E+06 4.260E+06 4.260E+06 3.219E+07 38.4651 1.00000
  5.012E+12 5.012E+12 4.667E+00 4.514E+04 7.964E+05 4.027E+06 4.869E+06 4.869E+06 3.231E+07 38.6954 1.00000
  5.623E+12 5.623E+12 4.690E+00 5.065E+04 8.935E+05 4.620E+06 5.564E+06 5.564E+06 3.242E+07 38.9257 1.00000
  6.310E+12 6.310E+12 4.712E+00 5.683E+04 1.002E+06 5.301E+06 6.360E+06 6.360E+06 3.254E+07 39.1559 1.00000
  7.079E+12 7.079E+12 4.734E+00 6.377E+04 1.125E+06 6.082E+06 7.270E+06 7.270E+06 3.265E+07 39.3862 1.00000
  7.943E+12 7.943E+12 4.756E+00 7.155E+04 1.262E+06 6.978E+06 8.312E+06 8.312E+06 3.276E+07 39.6164 1.00000
  8.913E+12 8.913E+12 4.779E+00 8.028E+04 1.416E+06 8.007E+06 9.503E+06 9.503E+06 3.287E+07 39.8467 1.00000
  1.000E+13 1.000E+13 4.802E+00 9.007E+04 1.589E+06 9.188E+06 1.087E+07 1.087E+07 3.298E+07 40.0770 1.00000
  1.122E+13 1.122E+13 4.825E+00 1.011E+05 1.782E+06 1.054E+07 1.243E+07 1.243E+07 3.309E+07 40.3072 1.00000
  1.259E+13 1.259E+13 4.847E+00 1.134E+05 2.000E+06 1.210E+07 1.421E+07 1.421E+07 3.319E+07 40.5375 1.00000
  1.413E+13 1.413E+13 4.871E+00 1.272E+05 2.244E+06 1.389E+07 1.626E+07 1.626E+07 3.329E+07 40.7677 1.00000
  1.585E+13 1.585E+13 4.894E+00 1.428E+05 2.517E+06 1.594E+07 1.860E+07 1.860E+07 3.339E+07 40.9980 1.00000
  1.778E+13 1.778E+13 4.917E+00 1.602E+05 2.824E+06 1.830E+07 2.128E+07 2.128E+07 3.349E+07 41.2282 1.00000
  1.995E+13 1.995E+13 4.940E+00 1.797E+05 3.169E+06 2.100E+07 2.435E+07 2.435E+07 3.358E+07 41.4585 1.00000
  2.239E+13 2.239E+13 4.964E+00 2.017E+05 3.555E+06 2.411E+07 2.786E+07 2.786E+07 3.368E+07 41.6888 1.00000
  2.512E+13 2.512E+13 4.988E+00 2.263E+05 3.989E+06 2.767E+07 3.189E+07 3.189E+07 3.377E+07 41.9190 1.00000
  2.818E+13 2.818E+13 5.011E+00 2.539E+05 4.475E+06 3.177E+07 3.650E+07 3.650E+07 3.386E+07 42.1493 1.00000
  3.162E+13 3.162E+13 5.035E+00 2.848E+05 5.021E+06 3.647E+07 4.178E+07 4.178E+07 3.395E+07 42.3795 1.00000
  3.548E+13 3.548E+13 5.060E+00 3.196E+05 5.633E+06 4.188E+07 4.783E+07 4.783E+07 3.403E+07 42.6098 1.00000
  3.981E+13 3.981E+13 5.084E+00 3.586E+05 6.320E+06 4.808E+07 5.476E+07 5.476E+07 3.412E+07 42.8401 1.00000
  4.467E+13 4.467E+13 5.108E+00 4.024E+05 7.091E+06 5.521E+07 6.270E+07 6.270E+07 3.420E+07 43.0703 1.00000
  5.012E+13 5.012E+13 5.132E+00 4.515E+05 7.956E+06 6.340E+07 7.180E+07 7.180E+07 3.428E+07 43.3006 1.00000
  5.623E+13 5.623E+13 5.157E+00 5.065E+05 8.926E+06 7.280E+07 8.223E+07 8.223E+07 3.436E+07 43.5308 1.00000
  6.310E+13 6.310E+13 5.182E+00 5.683E+05 1.001E+07 8.360E+07 9.419E+07 9.419E+07 3.444E+07 43.7611 1.00000
  7.079E+13 7.079E+13 5.207E+00 6.377E+05 1.124E+07 9.602E+07 1.079E+08 1.079E+08 3.452E+07 43.9913 1.00000
  7.943E+13 7.943E+13 5.232E+00 7.155E+05 1.261E+07 1.103E+08 1.236E+08 1.236E+08 3.459E+07 44.2216 1.00000
  8.913E+13 8.913E+13 5.257E+00 8.028E+05 1.414E+07 1.267E+08 1.416E+08 1.416E+08 3.466E+07 44.4519 1.00000
