 Incident particle is a Tau with M = 1776.82000 MeV
 Index = 0: Freon13
      Absorber with <Z/A> = 0.47866
 Sternheimer coef:  a     k=m_s   x_0    x_1    I[eV]   Cbar  delta0
                 0.0724  3.5551  0.3659  3.2337  126.6  4.7483 0.00

 *** Table generated with PUMAS v1.00 ***

      T         p     Ionization  brems     pair     photonuc  Radloss    dE/dx   CSDA Range  delta   beta
    [MeV]    [MeV/c]  -----------------------[MeV cm^2/g]------------------------  [g/cm^2]
  1.000E+05 1.018E+05 2.108E+00 2.063E-04 3.266E-03 8.172E-03 1.164E-02 2.120E+00 2.358E+04  3.6361 0.99985
  1.122E+05 1.140E+05 2.128E+00 2.385E-04 3.930E-03 9.217E-03 1.339E-02 2.141E+00 2.931E+04  3.8298 0.99988
  1.259E+05 1.277E+05 2.147E+00 2.756E-04 4.712E-03 1.034E-02 1.533E-02 2.163E+00 3.567E+04  4.0267 0.99990
  1.413E+05 1.430E+05 2.167E+00 3.182E-04 5.633E-03 1.160E-02 1.756E-02 2.184E+00 4.274E+04  4.2265 0.99992
  1.585E+05 1.603E+05 2.186E+00 3.673E-04 6.715E-03 1.302E-02 2.010E-02 2.206E+00 5.059E+04  4.4290 0.99994
  1.778E+05 1.796E+05 2.205E+00 4.238E-04 7.982E-03 1.459E-02 2.300E-02 2.228E+00 5.932E+04  4.6342 0.99995
  1.995E+05 2.013E+05 2.224E+00 4.887E-04 9.465E-03 1.639E-02 2.634E-02 2.250E+00 6.901E+04  4.8418 0.99996
  2.239E+05 2.256E+05 2.242E+00 5.633E-04 1.120E-02 1.835E-02 3.011E-02 2.273E+00 7.977E+04  5.0517 0.99997
  2.512E+05 2.530E+05 2.261E+00 6.489E-04 1.322E-02 2.054E-02 3.441E-02 2.295E+00 9.173E+04  5.2638 0.99998
  2.818E+05 2.836E+05 2.280E+00 7.473E-04 1.556E-02 2.301E-02 3.932E-02 2.319E+00 1.050E+05  5.4778 0.99998
  3.162E+05 3.180E+05 2.298E+00 8.601E-04 1.829E-02 2.580E-02 4.495E-02 2.343E+00 1.198E+05  5.6938 0.99998
  3.548E+05 3.566E+05 2.316E+00 9.895E-04 2.145E-02 2.893E-02 5.137E-02 2.368E+00 1.362E+05  5.9114 0.99999
  3.981E+05 3.999E+05 2.334E+00 1.138E-03 2.511E-02 3.242E-02 5.867E-02 2.393E+00 1.543E+05  6.1306 0.99999
  4.467E+05 4.485E+05 2.352E+00 1.308E-03 2.934E-02 3.633E-02 6.698E-02 2.419E+00 1.745E+05  6.3513 0.99999
  5.012E+05 5.030E+05 2.370E+00 1.503E-03 3.422E-02 4.073E-02 7.645E-02 2.447E+00 1.969E+05  6.5733 0.99999
  5.623E+05 5.641E+05 2.388E+00 1.726E-03 3.985E-02 4.548E-02 8.706E-02 2.475E+00 2.218E+05  6.7964 1.00000
  6.310E+05 6.327E+05 2.406E+00 1.981E-03 4.633E-02 5.084E-02 9.916E-02 2.505E+00 2.494E+05  7.0207 1.00000
  7.079E+05 7.097E+05 2.423E+00 2.274E-03 5.379E-02 5.689E-02 1.130E-01 2.536E+00 2.799E+05  7.2460 1.00000
  7.943E+05 7.961E+05 2.440E+00 2.608E-03 6.235E-02 6.371E-02 1.287E-01 2.569E+00 3.137E+05  7.4721 1.00000
  8.913E+05 8.930E+05 2.458E+00 2.991E-03 7.217E-02 7.142E-02 1.466E-01 2.604E+00 3.512E+05  7.6990 1.00000
  1.000E+06 1.002E+06 2.475E+00 3.429E-03 8.342E-02 8.014E-02 1.670E-01 2.642E+00 3.927E+05  7.9265 1.00000
  1.122E+06 1.124E+06 2.492E+00 3.929E-03 9.630E-02 9.000E-02 1.902E-01 2.682E+00 4.385E+05  8.1547 1.00000
  1.259E+06 1.261E+06 2.509E+00 4.501E-03 1.110E-01 1.012E-01 2.167E-01 2.726E+00 4.891E+05  8.3833 1.00000
  1.413E+06 1.414E+06 2.526E+00 5.155E-03 1.278E-01 1.138E-01 2.468E-01 2.772E+00 5.450E+05  8.6123 1.00000
  1.585E+06 1.587E+06 2.542E+00 5.901E-03 1.470E-01 1.281E-01 2.811E-01 2.823E+00 6.066E+05  8.8416 1.00000
  1.778E+06 1.780E+06 2.559E+00 6.754E-03 1.689E-01 1.444E-01 3.201E-01 2.879E+00 6.745E+05  9.0713 1.00000
  1.995E+06 1.997E+06 2.575E+00 7.727E-03 1.938E-01 1.629E-01 3.644E-01 2.940E+00 7.491E+05  9.3011 1.00000
  2.239E+06 2.240E+06 2.591E+00 8.837E-03 2.222E-01 1.838E-01 4.148E-01 3.006E+00 8.310E+05  9.5310 1.00000
  2.512E+06 2.514E+06 2.607E+00 1.010E-02 2.544E-01 2.076E-01 4.721E-01 3.080E+00 9.208E+05  9.7611 1.00000
  2.818E+06 2.820E+06 2.623E+00 1.155E-02 2.910E-01 2.347E-01 5.372E-01 3.161E+00 1.019E+06  9.9911 1.00000
  3.162E+06 3.164E+06 2.639E+00 1.320E-02 3.325E-01 2.654E-01 6.111E-01 3.250E+00 1.126E+06 10.2213 1.00000
  3.548E+06 3.550E+06 2.655E+00 1.508E-02 3.796E-01 3.004E-01 6.951E-01 3.350E+00 1.243E+06 10.4514 1.00000
  3.981E+06 3.983E+06 2.670E+00 1.722E-02 4.330E-01 3.402E-01 7.904E-01 3.461E+00 1.370E+06 10.6816 1.00000
  4.467E+06 4.469E+06 2.686E+00 1.966E-02 4.935E-01 3.854E-01 8.986E-01 3.584E+00 1.508E+06 10.9117 1.00000
  5.012E+06 5.014E+06 2.701E+00 2.244E-02 5.619E-01 4.370E-01 1.021E+00 3.722E+00 1.658E+06 11.1419 1.00000
  5.623E+06 5.625E+06 2.716E+00 2.561E-02 6.393E-01 4.957E-01 1.161E+00 3.877E+00 1.819E+06 11.3721 1.00000
  6.310E+06 6.311E+06 2.731E+00 2.921E-02 7.268E-01 5.625E-01 1.319E+00 4.049E+00 1.992E+06 11.6023 1.00000
  7.079E+06 7.081E+06 2.746E+00 3.332E-02 8.257E-01 6.386E-01 1.498E+00 4.243E+00 2.178E+06 11.8325 1.00000
  7.943E+06 7.945E+06 2.760E+00 3.798E-02 9.373E-01 7.253E-01 1.701E+00 4.461E+00 2.376E+06 12.0627 1.00000
  8.913E+06 8.914E+06 2.775E+00 4.330E-02 1.063E+00 8.241E-01 1.931E+00 4.705E+00 2.588E+06 12.2929 1.00000
  1.000E+07 1.000E+07 2.789E+00 4.934E-02 1.205E+00 9.368E-01 2.191E+00 4.980E+00 2.813E+06 12.5231 1.00000
  1.122E+07 1.122E+07 2.803E+00 5.620E-02 1.366E+00 1.065E+00 2.487E+00 5.290E+00 3.050E+06 12.7533 1.00000
  1.259E+07 1.259E+07 2.817E+00 6.401E-02 1.546E+00 1.212E+00 2.822E+00 5.639E+00 3.301E+06 12.9835 1.00000
  1.413E+07 1.413E+07 2.831E+00 7.287E-02 1.750E+00 1.378E+00 3.201E+00 6.032E+00 3.565E+06 13.2138 1.00000
  1.585E+07 1.585E+07 2.845E+00 8.295E-02 1.979E+00 1.569E+00 3.631E+00 6.476E+00 3.841E+06 13.4440 1.00000
  1.778E+07 1.778E+07 2.859E+00 9.438E-02 2.237E+00 1.786E+00 4.117E+00 6.976E+00 4.129E+06 13.6742 1.00000
  1.995E+07 1.995E+07 2.872E+00 1.074E-01 2.528E+00 2.034E+00 4.669E+00 7.541E+00 4.428E+06 13.9045 1.00000
  2.239E+07 2.239E+07 2.886E+00 1.221E-01 2.855E+00 2.316E+00 5.293E+00 8.179E+00 4.738E+06 14.1347 1.00000
  2.512E+07 2.512E+07 2.900E+00 1.388E-01 3.223E+00 2.638E+00 6.000E+00 8.899E+00 5.059E+06 14.3649 1.00000
  2.818E+07 2.819E+07 2.913E+00 1.578E-01 3.636E+00 3.006E+00 6.800E+00 9.713E+00 5.389E+06 14.5952 1.00000
  3.162E+07 3.162E+07 2.926E+00 1.793E-01 4.102E+00 3.426E+00 7.707E+00 1.063E+01 5.727E+06 14.8254 1.00000
  3.548E+07 3.548E+07 2.940E+00 2.037E-01 4.625E+00 3.905E+00 8.734E+00 1.167E+01 6.074E+06 15.0557 1.00000
  3.981E+07 3.981E+07 2.953E+00 2.313E-01 5.213E+00 4.452E+00 9.896E+00 1.285E+01 6.428E+06 15.2859 1.00000
  4.467E+07 4.467E+07 2.966E+00 2.626E-01 5.874E+00 5.075E+00 1.121E+01 1.418E+01 6.788E+06 15.5162 1.00000
  5.012E+07 5.012E+07 2.980E+00 2.980E-01 6.617E+00 5.788E+00 1.270E+01 1.568E+01 7.154E+06 15.7464 1.00000
  5.623E+07 5.624E+07 2.993E+00 3.381E-01 7.452E+00 6.601E+00 1.439E+01 1.738E+01 7.525E+06 15.9767 1.00000
  6.310E+07 6.310E+07 3.006E+00 3.835E-01 8.389E+00 7.529E+00 1.630E+01 1.931E+01 7.900E+06 16.2069 1.00000
  7.079E+07 7.080E+07 3.020E+00 4.349E-01 9.442E+00 8.589E+00 1.847E+01 2.149E+01 8.279E+06 16.4372 1.00000
  7.943E+07 7.943E+07 3.033E+00 4.931E-01 1.063E+01 9.799E+00 2.092E+01 2.395E+01 8.660E+06 16.6674 1.00000
  8.913E+07 8.913E+07 3.046E+00 5.588E-01 1.195E+01 1.118E+01 2.369E+01 2.674E+01 9.044E+06 16.8977 1.00000
  1.000E+08 1.000E+08 3.060E+00 6.331E-01 1.345E+01 1.276E+01 2.684E+01 2.990E+01 9.429E+06 17.1279 1.00000
  1.122E+08 1.122E+08 3.073E+00 7.171E-01 1.512E+01 1.456E+01 3.040E+01 3.347E+01 9.815E+06 17.3582 1.00000
  1.259E+08 1.259E+08 3.086E+00 8.120E-01 1.700E+01 1.662E+01 3.443E+01 3.752E+01 1.020E+07 17.5884 1.00000
  1.413E+08 1.413E+08 3.100E+00 9.192E-01 1.911E+01 1.897E+01 3.900E+01 4.210E+01 1.059E+07 17.8187 1.00000
  1.585E+08 1.585E+08 3.113E+00 1.040E+00 2.148E+01 2.166E+01 4.418E+01 4.729E+01 1.098E+07 18.0490 1.00000
  1.778E+08 1.778E+08 3.127E+00 1.177E+00 2.415E+01 2.472E+01 5.005E+01 5.317E+01 1.136E+07 18.2792 1.00000
  1.995E+08 1.995E+08 3.140E+00 1.331E+00 2.713E+01 2.823E+01 5.669E+01 5.983E+01 1.175E+07 18.5095 1.00000
  2.239E+08 2.239E+08 3.154E+00 1.505E+00 3.049E+01 3.223E+01 6.422E+01 6.738E+01 1.213E+07 18.7397 1.00000
  2.512E+08 2.512E+08 3.168E+00 1.702E+00 3.425E+01 3.680E+01 7.276E+01 7.592E+01 1.251E+07 18.9700 1.00000
  2.818E+08 2.818E+08 3.182E+00 1.923E+00 3.848E+01 4.203E+01 8.243E+01 8.561E+01 1.290E+07 19.2002 1.00000
  3.162E+08 3.162E+08 3.195E+00 2.173E+00 4.322E+01 4.800E+01 9.339E+01 9.659E+01 1.327E+07 19.4305 1.00000
  3.548E+08 3.548E+08 3.209E+00 2.455E+00 4.854E+01 5.482E+01 1.058E+02 1.090E+02 1.365E+07 19.6608 1.00000
  3.981E+08 3.981E+08 3.223E+00 2.772E+00 5.451E+01 6.262E+01 1.199E+02 1.231E+02 1.403E+07 19.8910 1.00000
  4.467E+08 4.467E+08 3.237E+00 3.130E+00 6.121E+01 7.153E+01 1.359E+02 1.391E+02 1.440E+07 20.1213 1.00000
  5.012E+08 5.012E+08 3.251E+00 3.532E+00 6.874E+01 8.171E+01 1.540E+02 1.572E+02 1.477E+07 20.3515 1.00000
  5.623E+08 5.623E+08 3.265E+00 3.986E+00 7.718E+01 9.335E+01 1.745E+02 1.778E+02 1.513E+07 20.5818 1.00000
  6.310E+08 6.310E+08 3.280E+00 4.497E+00 8.665E+01 1.066E+02 1.978E+02 2.011E+02 1.550E+07 20.8120 1.00000
  7.079E+08 7.079E+08 3.294E+00 5.072E+00 9.728E+01 1.219E+02 2.242E+02 2.275E+02 1.586E+07 21.0423 1.00000
  7.943E+08 7.943E+08 3.308E+00 5.719E+00 1.092E+02 1.392E+02 2.542E+02 2.575E+02 1.621E+07 21.2726 1.00000
  8.913E+08 8.913E+08 3.323E+00 6.447E+00 1.226E+02 1.591E+02 2.881E+02 2.915E+02 1.657E+07 21.5028 1.00000
  1.000E+09 1.000E+09 3.337E+00 7.267E+00 1.376E+02 1.818E+02 3.267E+02 3.300E+02 1.692E+07 21.7331 1.00000
  1.122E+09 1.122E+09 3.352E+00 8.189E+00 1.545E+02 2.078E+02 3.704E+02 3.738E+02 1.727E+07 21.9633 1.00000
  1.259E+09 1.259E+09 3.367E+00 9.226E+00 1.734E+02 2.375E+02 4.201E+02 4.234E+02 1.761E+07 22.1936 1.00000
  1.413E+09 1.413E+09 3.381E+00 1.039E+01 1.946E+02 2.714E+02 4.764E+02 4.798E+02 1.796E+07 22.4238 1.00000
  1.585E+09 1.585E+09 3.396E+00 1.170E+01 2.184E+02 3.102E+02 5.403E+02 5.437E+02 1.829E+07 22.6541 1.00000
  1.778E+09 1.778E+09 3.411E+00 1.318E+01 2.451E+02 3.546E+02 6.129E+02 6.163E+02 1.863E+07 22.8844 1.00000
  1.995E+09 1.995E+09 3.426E+00 1.484E+01 2.751E+02 4.054E+02 6.953E+02 6.987E+02 1.896E+07 23.1146 1.00000
  2.239E+09 2.239E+09 3.441E+00 1.670E+01 3.087E+02 4.634E+02 7.889E+02 7.923E+02 1.929E+07 23.3449 1.00000
  2.512E+09 2.512E+09 3.456E+00 1.879E+01 3.465E+02 5.298E+02 8.951E+02 8.985E+02 1.961E+07 23.5751 1.00000
  2.818E+09 2.818E+09 3.471E+00 2.115E+01 3.888E+02 6.057E+02 1.016E+03 1.019E+03 1.993E+07 23.8054 1.00000
  3.162E+09 3.162E+09 3.487E+00 2.379E+01 4.363E+02 6.926E+02 1.153E+03 1.156E+03 2.025E+07 24.0357 1.00000
  3.548E+09 3.548E+09 3.502E+00 2.676E+01 4.897E+02 7.919E+02 1.308E+03 1.312E+03 2.056E+07 24.2659 1.00000
  3.981E+09 3.981E+09 3.518E+00 3.010E+01 5.495E+02 9.056E+02 1.485E+03 1.489E+03 2.087E+07 24.4962 1.00000
  4.467E+09 4.467E+09 3.533E+00 3.385E+01 6.166E+02 1.036E+03 1.686E+03 1.690E+03 2.118E+07 24.7264 1.00000
  5.012E+09 5.012E+09 3.549E+00 3.806E+01 6.919E+02 1.184E+03 1.914E+03 1.918E+03 2.148E+07 24.9567 1.00000
  5.623E+09 5.623E+09 3.565E+00 4.279E+01 7.764E+02 1.355E+03 2.174E+03 2.177E+03 2.178E+07 25.1869 1.00000
  6.310E+09 6.310E+09 3.581E+00 4.810E+01 8.712E+02 1.549E+03 2.469E+03 2.472E+03 2.208E+07 25.4172 1.00000
  7.079E+09 7.079E+09 3.596E+00 5.406E+01 9.776E+02 1.772E+03 2.804E+03 2.807E+03 2.237E+07 25.6475 1.00000
  7.943E+09 7.943E+09 3.613E+00 6.076E+01 1.097E+03 2.027E+03 3.185E+03 3.188E+03 2.266E+07 25.8777 1.00000
  8.913E+09 8.913E+09 3.629E+00 6.828E+01 1.231E+03 2.319E+03 3.618E+03 3.622E+03 2.295E+07 26.1080 1.00000
  1.000E+10 1.000E+10 3.645E+00 7.672E+01 1.381E+03 2.653E+03 4.110E+03 4.114E+03 2.323E+07 26.3382 1.00000
  1.122E+10 1.122E+10 3.661E+00 8.619E+01 1.550E+03 3.035E+03 4.671E+03 4.674E+03 2.351E+07 26.5685 1.00000
  1.259E+10 1.259E+10 3.678E+00 9.683E+01 1.739E+03 3.472E+03 5.308E+03 5.311E+03 2.379E+07 26.7988 1.00000
  1.413E+10 1.413E+10 3.694E+00 1.088E+02 1.951E+03 3.973E+03 6.032E+03 6.036E+03 2.406E+07 27.0290 1.00000
  1.585E+10 1.585E+10 3.711E+00 1.222E+02 2.189E+03 4.545E+03 6.857E+03 6.861E+03 2.433E+07 27.2593 1.00000
  1.778E+10 1.778E+10 3.727E+00 1.372E+02 2.457E+03 5.201E+03 7.795E+03 7.799E+03 2.459E+07 27.4895 1.00000
  1.995E+10 1.995E+10 3.744E+00 1.541E+02 2.756E+03 5.952E+03 8.863E+03 8.866E+03 2.485E+07 27.7198 1.00000
  2.239E+10 2.239E+10 3.761E+00 1.731E+02 3.093E+03 6.812E+03 1.008E+04 1.008E+04 2.511E+07 27.9501 1.00000
  2.512E+10 2.512E+10 3.778E+00 1.944E+02 3.470E+03 7.796E+03 1.146E+04 1.146E+04 2.536E+07 28.1803 1.00000
  2.818E+10 2.818E+10 3.795E+00 2.182E+02 3.894E+03 8.922E+03 1.303E+04 1.304E+04 2.562E+07 28.4106 1.00000
  3.162E+10 3.162E+10 3.812E+00 2.450E+02 4.369E+03 1.021E+04 1.483E+04 1.483E+04 2.586E+07 28.6408 1.00000
  3.548E+10 3.548E+10 3.829E+00 2.751E+02 4.902E+03 1.169E+04 1.687E+04 1.687E+04 2.611E+07 28.8711 1.00000
  3.981E+10 3.981E+10 3.847E+00 3.089E+02 5.500E+03 1.338E+04 1.919E+04 1.919E+04 2.635E+07 29.1013 1.00000
  4.467E+10 4.467E+10 3.864E+00 3.468E+02 6.171E+03 1.532E+04 2.184E+04 2.184E+04 2.659E+07 29.3316 1.00000
  5.012E+10 5.012E+10 3.882E+00 3.893E+02 6.924E+03 1.754E+04 2.485E+04 2.485E+04 2.682E+07 29.5619 1.00000
  5.623E+10 5.623E+10 3.899E+00 4.370E+02 7.768E+03 2.008E+04 2.828E+04 2.829E+04 2.705E+07 29.7921 1.00000
  6.310E+10 6.310E+10 3.917E+00 4.905E+02 8.716E+03 2.299E+04 3.219E+04 3.220E+04 2.728E+07 30.0224 1.00000
  7.079E+10 7.079E+10 3.935E+00 5.506E+02 9.780E+03 2.632E+04 3.665E+04 3.666E+04 2.750E+07 30.2526 1.00000
  7.943E+10 7.943E+10 3.953E+00 6.180E+02 1.097E+04 3.014E+04 4.173E+04 4.173E+04 2.773E+07 30.4829 1.00000
  8.913E+10 8.913E+10 3.971E+00 6.937E+02 1.231E+04 3.451E+04 4.752E+04 4.752E+04 2.794E+07 30.7132 1.00000
  1.000E+11 1.000E+11 3.989E+00 7.786E+02 1.381E+04 3.952E+04 5.412E+04 5.412E+04 2.816E+07 30.9434 1.00000
  1.122E+11 1.122E+11 4.007E+00 8.738E+02 1.550E+04 4.527E+04 6.164E+04 6.164E+04 2.837E+07 31.1737 1.00000
  1.259E+11 1.259E+11 4.025E+00 9.807E+02 1.739E+04 5.184E+04 7.021E+04 7.022E+04 2.858E+07 31.4039 1.00000
  1.413E+11 1.413E+11 4.044E+00 1.101E+03 1.951E+04 5.938E+04 7.999E+04 7.999E+04 2.878E+07 31.6342 1.00000
  1.585E+11 1.585E+11 4.062E+00 1.235E+03 2.189E+04 6.801E+04 9.114E+04 9.114E+04 2.899E+07 31.8644 1.00000
  1.778E+11 1.778E+11 4.081E+00 1.386E+03 2.456E+04 7.791E+04 1.039E+05 1.039E+05 2.919E+07 32.0947 1.00000
  1.995E+11 1.995E+11 4.100E+00 1.556E+03 2.756E+04 8.925E+04 1.184E+05 1.184E+05 2.938E+07 32.3250 1.00000
  2.239E+11 2.239E+11 4.119E+00 1.746E+03 3.092E+04 1.022E+05 1.349E+05 1.349E+05 2.958E+07 32.5552 1.00000
  2.512E+11 2.512E+11 4.138E+00 1.959E+03 3.469E+04 1.171E+05 1.538E+05 1.538E+05 2.977E+07 32.7855 1.00000
  2.818E+11 2.818E+11 4.157E+00 2.199E+03 3.892E+04 1.342E+05 1.753E+05 1.753E+05 2.995E+07 33.0157 1.00000
  3.162E+11 3.162E+11 4.176E+00 2.467E+03 4.367E+04 1.538E+05 1.999E+05 1.999E+05 3.014E+07 33.2460 1.00000
  3.548E+11 3.548E+11 4.195E+00 2.768E+03 4.900E+04 1.762E+05 2.280E+05 2.280E+05 3.032E+07 33.4763 1.00000
  3.981E+11 3.981E+11 4.215E+00 3.107E+03 5.498E+04 2.019E+05 2.600E+05 2.600E+05 3.050E+07 33.7065 1.00000
  4.467E+11 4.467E+11 4.234E+00 3.486E+03 6.168E+04 2.314E+05 2.965E+05 2.965E+05 3.067E+07 33.9368 1.00000
  5.012E+11 5.012E+11 4.254E+00 3.912E+03 6.921E+04 2.652E+05 3.383E+05 3.383E+05 3.084E+07 34.1670 1.00000
  5.623E+11 5.623E+11 4.273E+00 4.389E+03 7.765E+04 3.039E+05 3.859E+05 3.859E+05 3.101E+07 34.3973 1.00000
  6.310E+11 6.310E+11 4.293E+00 4.925E+03 8.712E+04 3.483E+05 4.403E+05 4.403E+05 3.118E+07 34.6275 1.00000
  7.079E+11 7.079E+11 4.313E+00 5.527E+03 9.775E+04 3.992E+05 5.025E+05 5.025E+05 3.134E+07 34.8578 1.00000
  7.943E+11 7.943E+11 4.333E+00 6.201E+03 1.097E+05 4.576E+05 5.735E+05 5.735E+05 3.151E+07 35.0881 1.00000
  8.913E+11 8.913E+11 4.353E+00 6.959E+03 1.230E+05 5.245E+05 6.545E+05 6.546E+05 3.166E+07 35.3183 1.00000
  1.000E+12 1.000E+12 4.374E+00 7.808E+03 1.381E+05 6.013E+05 7.472E+05 7.472E+05 3.182E+07 35.5486 1.00000
  1.122E+12 1.122E+12 4.394E+00 8.761E+03 1.549E+05 6.894E+05 8.530E+05 8.530E+05 3.197E+07 35.7788 1.00000
  1.259E+12 1.259E+12 4.415E+00 9.831E+03 1.738E+05 7.904E+05 9.740E+05 9.740E+05 3.212E+07 36.0091 1.00000
  1.413E+12 1.413E+12 4.435E+00 1.103E+04 1.950E+05 9.062E+05 1.112E+06 1.112E+06 3.227E+07 36.2394 1.00000
  1.585E+12 1.585E+12 4.456E+00 1.238E+04 2.188E+05 1.039E+06 1.270E+06 1.270E+06 3.242E+07 36.4696 1.00000
  1.778E+12 1.778E+12 4.477E+00 1.389E+04 2.455E+05 1.191E+06 1.451E+06 1.451E+06 3.256E+07 36.6999 1.00000
  1.995E+12 1.995E+12 4.498E+00 1.558E+04 2.754E+05 1.366E+06 1.657E+06 1.657E+06 3.270E+07 36.9301 1.00000
  2.239E+12 2.239E+12 4.519E+00 1.748E+04 3.090E+05 1.567E+06 1.893E+06 1.893E+06 3.284E+07 37.1604 1.00000
  2.512E+12 2.512E+12 4.540E+00 1.962E+04 3.467E+05 1.797E+06 2.163E+06 2.163E+06 3.297E+07 37.3906 1.00000
  2.818E+12 2.818E+12 4.561E+00 2.201E+04 3.889E+05 2.061E+06 2.472E+06 2.472E+06 3.311E+07 37.6209 1.00000
  3.162E+12 3.162E+12 4.583E+00 2.470E+04 4.364E+05 2.364E+06 2.825E+06 2.825E+06 3.324E+07 37.8512 1.00000
  3.548E+12 3.548E+12 4.604E+00 2.771E+04 4.896E+05 2.711E+06 3.228E+06 3.228E+06 3.336E+07 38.0814 1.00000
  3.981E+12 3.981E+12 4.626E+00 3.109E+04 5.493E+05 3.110E+06 3.690E+06 3.690E+06 3.349E+07 38.3117 1.00000
  4.467E+12 4.467E+12 4.648E+00 3.489E+04 6.163E+05 3.567E+06 4.218E+06 4.218E+06 3.361E+07 38.5419 1.00000
  5.012E+12 5.012E+12 4.670E+00 3.915E+04 6.915E+05 4.092E+06 4.823E+06 4.823E+06 3.373E+07 38.7722 1.00000
  5.623E+12 5.623E+12 4.692E+00 4.392E+04 7.759E+05 4.695E+06 5.515E+06 5.515E+06 3.385E+07 39.0025 1.00000
  6.310E+12 6.310E+12 4.714E+00 4.928E+04 8.705E+05 5.386E+06 6.306E+06 6.306E+06 3.397E+07 39.2327 1.00000
  7.079E+12 7.079E+12 4.736E+00 5.530E+04 9.766E+05 6.180E+06 7.212E+06 7.212E+06 3.408E+07 39.4630 1.00000
  7.943E+12 7.943E+12 4.759E+00 6.205E+04 1.096E+06 7.091E+06 8.249E+06 8.249E+06 3.420E+07 39.6932 1.00000
  8.913E+12 8.913E+12 4.781E+00 6.962E+04 1.229E+06 8.137E+06 9.436E+06 9.436E+06 3.431E+07 39.9235 1.00000
  1.000E+13 1.000E+13 4.804E+00 7.811E+04 1.379E+06 9.337E+06 1.079E+07 1.079E+07 3.441E+07 40.1538 1.00000
  1.122E+13 1.122E+13 4.826E+00 8.764E+04 1.548E+06 1.071E+07 1.235E+07 1.235E+07 3.452E+07 40.3840 1.00000
  1.259E+13 1.259E+13 4.849E+00 9.834E+04 1.736E+06 1.230E+07 1.413E+07 1.413E+07 3.462E+07 40.6143 1.00000
  1.413E+13 1.413E+13 4.872E+00 1.103E+05 1.948E+06 1.411E+07 1.617E+07 1.617E+07 3.473E+07 40.8445 1.00000
  1.585E+13 1.585E+13 4.896E+00 1.238E+05 2.186E+06 1.620E+07 1.851E+07 1.851E+07 3.483E+07 41.0748 1.00000
  1.778E+13 1.778E+13 4.919E+00 1.389E+05 2.452E+06 1.859E+07 2.118E+07 2.118E+07 3.492E+07 41.3050 1.00000
  1.995E+13 1.995E+13 4.942E+00 1.559E+05 2.751E+06 2.134E+07 2.425E+07 2.425E+07 3.502E+07 41.5353 1.00000
  2.239E+13 2.239E+13 4.966E+00 1.749E+05 3.087E+06 2.450E+07 2.776E+07 2.776E+07 3.511E+07 41.7656 1.00000
  2.512E+13 2.512E+13 4.989E+00 1.962E+05 3.463E+06 2.812E+07 3.178E+07 3.178E+07 3.521E+07 41.9958 1.00000
  2.818E+13 2.818E+13 5.013E+00 2.202E+05 3.886E+06 3.228E+07 3.639E+07 3.639E+07 3.530E+07 42.2261 1.00000
  3.162E+13 3.162E+13 5.037E+00 2.470E+05 4.360E+06 3.706E+07 4.167E+07 4.167E+07 3.538E+07 42.4563 1.00000
  3.548E+13 3.548E+13 5.061E+00 2.772E+05 4.891E+06 4.255E+07 4.772E+07 4.772E+07 3.547E+07 42.6866 1.00000
  3.981E+13 3.981E+13 5.085E+00 3.110E+05 5.488E+06 4.886E+07 5.466E+07 5.466E+07 3.556E+07 42.9169 1.00000
  4.467E+13 4.467E+13 5.109E+00 3.489E+05 6.157E+06 5.610E+07 6.261E+07 6.261E+07 3.564E+07 43.1471 1.00000
  5.012E+13 5.012E+13 5.134E+00 3.915E+05 6.908E+06 6.442E+07 7.172E+07 7.172E+07 3.572E+07 43.3774 1.00000
  5.623E+13 5.623E+13 5.158E+00 4.393E+05 7.750E+06 7.398E+07 8.217E+07 8.217E+07 3.580E+07 43.6076 1.00000
  6.310E+13 6.310E+13 5.183E+00 4.929E+05 8.696E+06 8.496E+07 9.415E+07 9.415E+07 3.588E+07 43.8379 1.00000
  7.079E+13 7.079E+13 5.208E+00 5.530E+05 9.756E+06 9.757E+07 1.079E+08 1.079E+08 3.596E+07 44.0681 1.00000
  7.943E+13 7.943E+13 5.233E+00 6.205E+05 1.095E+07 1.121E+08 1.236E+08 1.236E+08 3.603E+07 44.2984 1.00000
  8.913E+13 8.913E+13 5.258E+00 6.962E+05 1.228E+07 1.287E+08 1.417E+08 1.417E+08 3.610E+07 44.5287 1.00000
