 Incident particle is a Tau with M = 1776.82000 MeV
 Index = 0: Freon13b1
      Absorber with <Z/A> = 0.45665
 Sternheimer coef:  a     k=m_s   x_0    x_1    I[eV]   Cbar  delta0
                 0.0393  3.7194  0.3522  3.7554  210.5  5.3555 0.00

 *** Table generated with PUMAS v1.00 ***

      T         p     Ionization  brems     pair     photonuc  Radloss    dE/dx   CSDA Range  delta   beta
    [MeV]    [MeV/c]  -----------------------[MeV cm^2/g]------------------------  [g/cm^2]
  1.000E+05 1.018E+05 1.967E+00 3.586E-04 5.932E-03 8.007E-03 1.430E-02 1.981E+00 2.524E+04  3.2553 0.99985
  1.122E+05 1.140E+05 1.986E+00 4.151E-04 7.118E-03 9.019E-03 1.655E-02 2.003E+00 3.136E+04  3.4362 0.99988
  1.259E+05 1.277E+05 2.006E+00 4.802E-04 8.515E-03 1.011E-02 1.910E-02 2.025E+00 3.816E+04  3.6205 0.99990
  1.413E+05 1.430E+05 2.025E+00 5.552E-04 1.016E-02 1.133E-02 2.204E-02 2.047E+00 4.571E+04  3.8079 0.99992
  1.585E+05 1.603E+05 2.044E+00 6.416E-04 1.208E-02 1.269E-02 2.541E-02 2.070E+00 5.408E+04  3.9984 0.99994
  1.778E+05 1.796E+05 2.063E+00 7.410E-04 1.434E-02 1.421E-02 2.929E-02 2.092E+00 6.337E+04  4.1918 0.99995
  1.995E+05 2.013E+05 2.082E+00 8.554E-04 1.697E-02 1.594E-02 3.376E-02 2.116E+00 7.368E+04  4.3880 0.99996
  2.239E+05 2.256E+05 2.101E+00 9.870E-04 2.004E-02 1.782E-02 3.885E-02 2.139E+00 8.513E+04  4.5868 0.99997
  2.512E+05 2.530E+05 2.119E+00 1.138E-03 2.362E-02 1.993E-02 4.469E-02 2.164E+00 9.782E+04  4.7881 0.99998
  2.818E+05 2.836E+05 2.138E+00 1.312E-03 2.777E-02 2.230E-02 5.138E-02 2.189E+00 1.119E+05  4.9918 0.99998
  3.162E+05 3.180E+05 2.156E+00 1.511E-03 3.259E-02 2.497E-02 5.907E-02 2.215E+00 1.275E+05  5.1977 0.99998
  3.548E+05 3.566E+05 2.174E+00 1.740E-03 3.816E-02 2.797E-02 6.787E-02 2.242E+00 1.448E+05  5.4057 0.99999
  3.981E+05 3.999E+05 2.192E+00 2.002E-03 4.461E-02 3.131E-02 7.792E-02 2.270E+00 1.640E+05  5.6157 0.99999
  4.467E+05 4.485E+05 2.210E+00 2.303E-03 5.205E-02 3.504E-02 8.940E-02 2.299E+00 1.853E+05  5.8276 0.99999
  5.012E+05 5.030E+05 2.227E+00 2.648E-03 6.063E-02 3.924E-02 1.025E-01 2.330E+00 2.089E+05  6.0412 0.99999
  5.623E+05 5.641E+05 2.245E+00 3.044E-03 7.051E-02 4.378E-02 1.173E-01 2.362E+00 2.349E+05  6.2565 1.00000
  6.310E+05 6.327E+05 2.262E+00 3.496E-03 8.186E-02 4.888E-02 1.342E-01 2.396E+00 2.638E+05  6.4733 1.00000
  7.079E+05 7.097E+05 2.279E+00 4.014E-03 9.490E-02 5.464E-02 1.536E-01 2.433E+00 2.957E+05  6.6915 1.00000
  7.943E+05 7.961E+05 2.296E+00 4.607E-03 1.098E-01 6.114E-02 1.756E-01 2.472E+00 3.309E+05  6.9111 1.00000
  8.913E+05 8.930E+05 2.313E+00 5.286E-03 1.270E-01 6.847E-02 2.007E-01 2.514E+00 3.698E+05  7.1319 1.00000
  1.000E+06 1.002E+06 2.330E+00 6.062E-03 1.466E-01 7.675E-02 2.294E-01 2.559E+00 4.126E+05  7.3538 1.00000
  1.122E+06 1.124E+06 2.347E+00 6.948E-03 1.690E-01 8.612E-02 2.620E-01 2.609E+00 4.599E+05  7.5768 1.00000
  1.259E+06 1.261E+06 2.363E+00 7.962E-03 1.945E-01 9.673E-02 2.992E-01 2.662E+00 5.118E+05  7.8007 1.00000
  1.413E+06 1.414E+06 2.379E+00 9.120E-03 2.237E-01 1.087E-01 3.415E-01 2.721E+00 5.689E+05  8.0255 1.00000
  1.585E+06 1.587E+06 2.395E+00 1.044E-02 2.569E-01 1.223E-01 3.897E-01 2.785E+00 6.315E+05  8.2511 1.00000
  1.778E+06 1.780E+06 2.411E+00 1.195E-02 2.947E-01 1.378E-01 4.444E-01 2.856E+00 7.001E+05  8.4774 1.00000
  1.995E+06 1.997E+06 2.427E+00 1.368E-02 3.377E-01 1.553E-01 5.066E-01 2.934E+00 7.751E+05  8.7044 1.00000
  2.239E+06 2.240E+06 2.443E+00 1.564E-02 3.865E-01 1.752E-01 5.773E-01 3.020E+00 8.568E+05  8.9319 1.00000
  2.512E+06 2.514E+06 2.458E+00 1.788E-02 4.420E-01 1.977E-01 6.576E-01 3.116E+00 9.459E+05  9.1599 1.00000
  2.818E+06 2.820E+06 2.474E+00 2.044E-02 5.049E-01 2.234E-01 7.487E-01 3.222E+00 1.043E+06  9.3883 1.00000
  3.162E+06 3.164E+06 2.489E+00 2.336E-02 5.762E-01 2.525E-01 8.521E-01 3.341E+00 1.147E+06  9.6172 1.00000
  3.548E+06 3.550E+06 2.504E+00 2.668E-02 6.570E-01 2.856E-01 9.693E-01 3.473E+00 1.261E+06  9.8463 1.00000
  3.981E+06 3.983E+06 2.519E+00 3.046E-02 7.484E-01 3.233E-01 1.102E+00 3.621E+00 1.383E+06 10.0757 1.00000
  4.467E+06 4.469E+06 2.533E+00 3.477E-02 8.518E-01 3.662E-01 1.253E+00 3.786E+00 1.514E+06 10.3053 1.00000
  5.012E+06 5.014E+06 2.548E+00 3.968E-02 9.687E-01 4.150E-01 1.423E+00 3.971E+00 1.655E+06 10.5352 1.00000
  5.623E+06 5.625E+06 2.562E+00 4.526E-02 1.101E+00 4.706E-01 1.617E+00 4.179E+00 1.805E+06 10.7651 1.00000
  6.310E+06 6.311E+06 2.577E+00 5.162E-02 1.250E+00 5.339E-01 1.836E+00 4.412E+00 1.965E+06 10.9952 1.00000
  7.079E+06 7.081E+06 2.591E+00 5.885E-02 1.418E+00 6.060E-01 2.083E+00 4.674E+00 2.134E+06 11.2253 1.00000
  7.943E+06 7.945E+06 2.605E+00 6.707E-02 1.608E+00 6.881E-01 2.363E+00 4.968E+00 2.314E+06 11.4555 1.00000
  8.913E+06 8.914E+06 2.618E+00 7.641E-02 1.823E+00 7.816E-01 2.681E+00 5.299E+00 2.503E+06 11.6857 1.00000
  1.000E+07 1.000E+07 2.632E+00 8.704E-02 2.064E+00 8.883E-01 3.039E+00 5.671E+00 2.701E+06 11.9159 1.00000
  1.122E+07 1.122E+07 2.646E+00 9.910E-02 2.336E+00 1.010E+00 3.445E+00 6.091E+00 2.909E+06 12.1461 1.00000
  1.259E+07 1.259E+07 2.659E+00 1.128E-01 2.643E+00 1.148E+00 3.904E+00 6.563E+00 3.126E+06 12.3763 1.00000
  1.413E+07 1.413E+07 2.672E+00 1.284E-01 2.988E+00 1.306E+00 4.422E+00 7.095E+00 3.351E+06 12.6066 1.00000
  1.585E+07 1.585E+07 2.686E+00 1.460E-01 3.376E+00 1.487E+00 5.009E+00 7.694E+00 3.584E+06 12.8368 1.00000
  1.778E+07 1.778E+07 2.699E+00 1.661E-01 3.813E+00 1.692E+00 5.671E+00 8.370E+00 3.826E+06 13.0670 1.00000
  1.995E+07 1.995E+07 2.712E+00 1.888E-01 4.305E+00 1.926E+00 6.420E+00 9.132E+00 4.074E+06 13.2973 1.00000
  2.239E+07 2.239E+07 2.725E+00 2.146E-01 4.858E+00 2.194E+00 7.267E+00 9.991E+00 4.329E+06 13.5275 1.00000
  2.512E+07 2.512E+07 2.738E+00 2.438E-01 5.481E+00 2.499E+00 8.223E+00 1.096E+01 4.590E+06 13.7577 1.00000
  2.818E+07 2.819E+07 2.750E+00 2.770E-01 6.180E+00 2.847E+00 9.304E+00 1.205E+01 4.857E+06 13.9880 1.00000
  3.162E+07 3.162E+07 2.763E+00 3.145E-01 6.966E+00 3.244E+00 1.053E+01 1.329E+01 5.129E+06 14.2182 1.00000
  3.548E+07 3.548E+07 2.776E+00 3.570E-01 7.850E+00 3.698E+00 1.190E+01 1.468E+01 5.406E+06 14.4485 1.00000
  3.981E+07 3.981E+07 2.789E+00 4.052E-01 8.843E+00 4.215E+00 1.346E+01 1.625E+01 5.687E+06 14.6787 1.00000
  4.467E+07 4.467E+07 2.801E+00 4.597E-01 9.959E+00 4.805E+00 1.522E+01 1.803E+01 5.971E+06 14.9090 1.00000
  5.012E+07 5.012E+07 2.814E+00 5.213E-01 1.121E+01 5.479E+00 1.721E+01 2.003E+01 6.258E+06 15.1392 1.00000
  5.623E+07 5.624E+07 2.827E+00 5.911E-01 1.262E+01 6.249E+00 1.946E+01 2.229E+01 6.548E+06 15.3695 1.00000
  6.310E+07 6.310E+07 2.839E+00 6.700E-01 1.420E+01 7.127E+00 2.200E+01 2.484E+01 6.840E+06 15.5997 1.00000
  7.079E+07 7.080E+07 2.852E+00 7.592E-01 1.598E+01 8.130E+00 2.487E+01 2.772E+01 7.134E+06 15.8300 1.00000
  7.943E+07 7.943E+07 2.865E+00 8.601E-01 1.797E+01 9.276E+00 2.811E+01 3.098E+01 7.429E+06 16.0602 1.00000
  8.913E+07 8.913E+07 2.877E+00 9.740E-01 2.022E+01 1.058E+01 3.177E+01 3.465E+01 7.725E+06 16.2905 1.00000
  1.000E+08 1.000E+08 2.890E+00 1.103E+00 2.273E+01 1.208E+01 3.591E+01 3.880E+01 8.022E+06 16.5207 1.00000
  1.122E+08 1.122E+08 2.903E+00 1.248E+00 2.555E+01 1.378E+01 4.058E+01 4.349E+01 8.320E+06 16.7510 1.00000
  1.259E+08 1.259E+08 2.916E+00 1.412E+00 2.872E+01 1.573E+01 4.587E+01 4.878E+01 8.618E+06 16.9812 1.00000
  1.413E+08 1.413E+08 2.929E+00 1.597E+00 3.228E+01 1.795E+01 5.184E+01 5.476E+01 8.915E+06 17.2115 1.00000
  1.585E+08 1.585E+08 2.941E+00 1.806E+00 3.628E+01 2.050E+01 5.858E+01 6.152E+01 9.213E+06 17.4418 1.00000
  1.778E+08 1.778E+08 2.954E+00 2.042E+00 4.076E+01 2.340E+01 6.620E+01 6.916E+01 9.510E+06 17.6720 1.00000
  1.995E+08 1.995E+08 2.967E+00 2.308E+00 4.580E+01 2.671E+01 7.482E+01 7.779E+01 9.806E+06 17.9023 1.00000
  2.239E+08 2.239E+08 2.980E+00 2.608E+00 5.145E+01 3.050E+01 8.456E+01 8.754E+01 1.010E+07 18.1325 1.00000
  2.512E+08 2.512E+08 2.993E+00 2.946E+00 5.779E+01 3.483E+01 9.557E+01 9.856E+01 1.040E+07 18.3628 1.00000
  2.818E+08 2.818E+08 3.007E+00 3.327E+00 6.491E+01 3.978E+01 1.080E+02 1.110E+02 1.069E+07 18.5930 1.00000
  3.162E+08 3.162E+08 3.020E+00 3.756E+00 7.289E+01 4.543E+01 1.221E+02 1.251E+02 1.098E+07 18.8233 1.00000
  3.548E+08 3.548E+08 3.033E+00 4.240E+00 8.186E+01 5.188E+01 1.380E+02 1.410E+02 1.127E+07 19.0536 1.00000
  3.981E+08 3.981E+08 3.046E+00 4.784E+00 9.192E+01 5.926E+01 1.560E+02 1.590E+02 1.156E+07 19.2838 1.00000
  4.467E+08 4.467E+08 3.060E+00 5.397E+00 1.032E+02 6.769E+01 1.763E+02 1.794E+02 1.185E+07 19.5141 1.00000
  5.012E+08 5.012E+08 3.073E+00 6.087E+00 1.159E+02 7.733E+01 1.993E+02 2.024E+02 1.214E+07 19.7443 1.00000
  5.623E+08 5.623E+08 3.087E+00 6.864E+00 1.301E+02 8.834E+01 2.253E+02 2.284E+02 1.242E+07 19.9746 1.00000
  6.310E+08 6.310E+08 3.100E+00 7.738E+00 1.460E+02 1.009E+02 2.547E+02 2.578E+02 1.271E+07 20.2048 1.00000
  7.079E+08 7.079E+08 3.114E+00 8.722E+00 1.639E+02 1.153E+02 2.880E+02 2.911E+02 1.299E+07 20.4351 1.00000
  7.943E+08 7.943E+08 3.128E+00 9.828E+00 1.840E+02 1.318E+02 3.256E+02 3.287E+02 1.327E+07 20.6654 1.00000
  8.913E+08 8.913E+08 3.141E+00 1.107E+01 2.066E+02 1.506E+02 3.682E+02 3.713E+02 1.355E+07 20.8956 1.00000
  1.000E+09 1.000E+09 3.155E+00 1.247E+01 2.319E+02 1.721E+02 4.164E+02 4.195E+02 1.382E+07 21.1259 1.00000
  1.122E+09 1.122E+09 3.169E+00 1.405E+01 2.602E+02 1.966E+02 4.709E+02 4.741E+02 1.410E+07 21.3561 1.00000
  1.259E+09 1.259E+09 3.183E+00 1.581E+01 2.921E+02 2.247E+02 5.326E+02 5.358E+02 1.437E+07 21.5864 1.00000
  1.413E+09 1.413E+09 3.197E+00 1.780E+01 3.278E+02 2.568E+02 6.025E+02 6.057E+02 1.464E+07 21.8166 1.00000
  1.585E+09 1.585E+09 3.211E+00 2.004E+01 3.679E+02 2.936E+02 6.815E+02 6.847E+02 1.491E+07 22.0469 1.00000
  1.778E+09 1.778E+09 3.226E+00 2.255E+01 4.129E+02 3.356E+02 7.710E+02 7.743E+02 1.517E+07 22.2772 1.00000
  1.995E+09 1.995E+09 3.240E+00 2.537E+01 4.634E+02 3.836E+02 8.724E+02 8.756E+02 1.544E+07 22.5074 1.00000
  2.239E+09 2.239E+09 3.254E+00 2.854E+01 5.200E+02 4.385E+02 9.871E+02 9.904E+02 1.570E+07 22.7377 1.00000
  2.512E+09 2.512E+09 3.269E+00 3.210E+01 5.836E+02 5.014E+02 1.117E+03 1.120E+03 1.596E+07 22.9679 1.00000
  2.818E+09 2.818E+09 3.283E+00 3.610E+01 6.549E+02 5.732E+02 1.264E+03 1.268E+03 1.622E+07 23.1982 1.00000
  3.162E+09 3.162E+09 3.298E+00 4.060E+01 7.349E+02 6.554E+02 1.431E+03 1.434E+03 1.647E+07 23.4285 1.00000
  3.548E+09 3.548E+09 3.312E+00 4.565E+01 8.247E+02 7.494E+02 1.620E+03 1.623E+03 1.672E+07 23.6587 1.00000
  3.981E+09 3.981E+09 3.327E+00 5.131E+01 9.254E+02 8.570E+02 1.834E+03 1.837E+03 1.698E+07 23.8890 1.00000
  4.467E+09 4.467E+09 3.342E+00 5.768E+01 1.038E+03 9.800E+02 2.076E+03 2.079E+03 1.722E+07 24.1192 1.00000
  5.012E+09 5.012E+09 3.357E+00 6.483E+01 1.165E+03 1.121E+03 2.351E+03 2.354E+03 1.747E+07 24.3495 1.00000
  5.623E+09 5.623E+09 3.372E+00 7.285E+01 1.308E+03 1.282E+03 2.662E+03 2.666E+03 1.772E+07 24.5797 1.00000
  6.310E+09 6.310E+09 3.387E+00 8.186E+01 1.467E+03 1.466E+03 3.015E+03 3.018E+03 1.796E+07 24.8100 1.00000
  7.079E+09 7.079E+09 3.402E+00 9.198E+01 1.646E+03 1.677E+03 3.415E+03 3.419E+03 1.820E+07 25.0403 1.00000
  7.943E+09 7.943E+09 3.418E+00 1.033E+02 1.847E+03 1.918E+03 3.869E+03 3.872E+03 1.844E+07 25.2705 1.00000
  8.913E+09 8.913E+09 3.433E+00 1.161E+02 2.073E+03 2.194E+03 4.383E+03 4.387E+03 1.867E+07 25.5008 1.00000
  1.000E+10 1.000E+10 3.449E+00 1.304E+02 2.326E+03 2.510E+03 4.966E+03 4.970E+03 1.891E+07 25.7310 1.00000
  1.122E+10 1.122E+10 3.464E+00 1.465E+02 2.610E+03 2.872E+03 5.628E+03 5.631E+03 1.914E+07 25.9613 1.00000
  1.259E+10 1.259E+10 3.480E+00 1.645E+02 2.928E+03 3.286E+03 6.378E+03 6.382E+03 1.937E+07 26.1916 1.00000
  1.413E+10 1.413E+10 3.495E+00 1.847E+02 3.286E+03 3.759E+03 7.230E+03 7.233E+03 1.959E+07 26.4218 1.00000
  1.585E+10 1.585E+10 3.511E+00 2.074E+02 3.687E+03 4.301E+03 8.195E+03 8.199E+03 1.982E+07 26.6521 1.00000
  1.778E+10 1.778E+10 3.527E+00 2.329E+02 4.136E+03 4.922E+03 9.291E+03 9.295E+03 2.004E+07 26.8823 1.00000
  1.995E+10 1.995E+10 3.543E+00 2.616E+02 4.641E+03 5.633E+03 1.054E+04 1.054E+04 2.026E+07 27.1126 1.00000
  2.239E+10 2.239E+10 3.559E+00 2.937E+02 5.208E+03 6.446E+03 1.195E+04 1.195E+04 2.047E+07 27.3429 1.00000
  2.512E+10 2.512E+10 3.575E+00 3.297E+02 5.843E+03 7.377E+03 1.355E+04 1.355E+04 2.069E+07 27.5731 1.00000
  2.818E+10 2.818E+10 3.592E+00 3.701E+02 6.556E+03 8.443E+03 1.537E+04 1.537E+04 2.090E+07 27.8034 1.00000
  3.162E+10 3.162E+10 3.608E+00 4.155E+02 7.356E+03 9.664E+03 1.744E+04 1.744E+04 2.111E+07 28.0336 1.00000
  3.548E+10 3.548E+10 3.624E+00 4.665E+02 8.254E+03 1.106E+04 1.978E+04 1.979E+04 2.132E+07 28.2639 1.00000
  3.981E+10 3.981E+10 3.641E+00 5.236E+02 9.261E+03 1.266E+04 2.245E+04 2.245E+04 2.153E+07 28.4941 1.00000
  4.467E+10 4.467E+10 3.658E+00 5.878E+02 1.039E+04 1.450E+04 2.547E+04 2.548E+04 2.173E+07 28.7244 1.00000
  5.012E+10 5.012E+10 3.674E+00 6.597E+02 1.166E+04 1.660E+04 2.891E+04 2.892E+04 2.193E+07 28.9547 1.00000
  5.623E+10 5.623E+10 3.691E+00 7.405E+02 1.308E+04 1.900E+04 3.282E+04 3.282E+04 2.213E+07 29.1849 1.00000
  6.310E+10 6.310E+10 3.708E+00 8.311E+02 1.468E+04 2.175E+04 3.726E+04 3.726E+04 2.233E+07 29.4152 1.00000
  7.079E+10 7.079E+10 3.725E+00 9.328E+02 1.647E+04 2.491E+04 4.231E+04 4.231E+04 2.252E+07 29.6454 1.00000
  7.943E+10 7.943E+10 3.742E+00 1.047E+03 1.848E+04 2.852E+04 4.804E+04 4.805E+04 2.271E+07 29.8757 1.00000
  8.913E+10 8.913E+10 3.759E+00 1.175E+03 2.073E+04 3.266E+04 5.457E+04 5.457E+04 2.290E+07 30.1060 1.00000
  1.000E+11 1.000E+11 3.777E+00 1.319E+03 2.326E+04 3.740E+04 6.198E+04 6.198E+04 2.309E+07 30.3362 1.00000
  1.122E+11 1.122E+11 3.794E+00 1.480E+03 2.610E+04 4.283E+04 7.041E+04 7.041E+04 2.328E+07 30.5665 1.00000
  1.259E+11 1.259E+11 3.812E+00 1.661E+03 2.928E+04 4.906E+04 8.000E+04 8.000E+04 2.346E+07 30.7967 1.00000
  1.413E+11 1.413E+11 3.829E+00 1.864E+03 3.285E+04 5.619E+04 9.091E+04 9.091E+04 2.364E+07 31.0270 1.00000
  1.585E+11 1.585E+11 3.847E+00 2.091E+03 3.686E+04 6.436E+04 1.033E+05 1.033E+05 2.382E+07 31.2572 1.00000
  1.778E+11 1.778E+11 3.865E+00 2.347E+03 4.136E+04 7.372E+04 1.174E+05 1.174E+05 2.399E+07 31.4875 1.00000
  1.995E+11 1.995E+11 3.883E+00 2.634E+03 4.640E+04 8.445E+04 1.335E+05 1.335E+05 2.417E+07 31.7178 1.00000
  2.239E+11 2.239E+11 3.901E+00 2.955E+03 5.206E+04 9.675E+04 1.518E+05 1.518E+05 2.434E+07 31.9480 1.00000
  2.512E+11 2.512E+11 3.919E+00 3.316E+03 5.841E+04 1.108E+05 1.726E+05 1.726E+05 2.451E+07 32.1783 1.00000
  2.818E+11 2.818E+11 3.937E+00 3.721E+03 6.554E+04 1.270E+05 1.963E+05 1.963E+05 2.467E+07 32.4085 1.00000
  3.162E+11 3.162E+11 3.955E+00 4.176E+03 7.353E+04 1.455E+05 2.232E+05 2.232E+05 2.484E+07 32.6388 1.00000
  3.548E+11 3.548E+11 3.974E+00 4.686E+03 8.250E+04 1.667E+05 2.539E+05 2.539E+05 2.500E+07 32.8691 1.00000
  3.981E+11 3.981E+11 3.992E+00 5.258E+03 9.257E+04 1.911E+05 2.889E+05 2.889E+05 2.516E+07 33.0993 1.00000
  4.467E+11 4.467E+11 4.011E+00 5.900E+03 1.039E+05 2.189E+05 3.287E+05 3.287E+05 2.532E+07 33.3296 1.00000
  5.012E+11 5.012E+11 4.029E+00 6.620E+03 1.165E+05 2.509E+05 3.741E+05 3.741E+05 2.548E+07 33.5598 1.00000
  5.623E+11 5.623E+11 4.048E+00 7.429E+03 1.307E+05 2.876E+05 4.257E+05 4.257E+05 2.563E+07 33.7901 1.00000
  6.310E+11 6.310E+11 4.067E+00 8.335E+03 1.467E+05 3.296E+05 4.846E+05 4.846E+05 2.578E+07 34.0203 1.00000
  7.079E+11 7.079E+11 4.086E+00 9.353E+03 1.646E+05 3.778E+05 5.517E+05 5.517E+05 2.593E+07 34.2506 1.00000
  7.943E+11 7.943E+11 4.105E+00 1.049E+04 1.847E+05 4.330E+05 6.282E+05 6.282E+05 2.608E+07 34.4809 1.00000
  8.913E+11 8.913E+11 4.125E+00 1.178E+04 2.072E+05 4.964E+05 7.153E+05 7.153E+05 2.622E+07 34.7111 1.00000
  1.000E+12 1.000E+12 4.144E+00 1.321E+04 2.324E+05 5.690E+05 8.147E+05 8.147E+05 2.636E+07 34.9414 1.00000
  1.122E+12 1.122E+12 4.163E+00 1.483E+04 2.608E+05 6.524E+05 9.280E+05 9.280E+05 2.650E+07 35.1716 1.00000
  1.259E+12 1.259E+12 4.183E+00 1.663E+04 2.926E+05 7.479E+05 1.057E+06 1.057E+06 2.664E+07 35.4019 1.00000
  1.413E+12 1.413E+12 4.203E+00 1.867E+04 3.283E+05 8.575E+05 1.204E+06 1.204E+06 2.678E+07 35.6322 1.00000
  1.585E+12 1.585E+12 4.222E+00 2.094E+04 3.684E+05 9.832E+05 1.373E+06 1.373E+06 2.691E+07 35.8624 1.00000
  1.778E+12 1.778E+12 4.242E+00 2.350E+04 4.133E+05 1.127E+06 1.564E+06 1.564E+06 2.705E+07 36.0927 1.00000
  1.995E+12 1.995E+12 4.262E+00 2.637E+04 4.637E+05 1.293E+06 1.783E+06 1.783E+06 2.718E+07 36.3229 1.00000
  2.239E+12 2.239E+12 4.282E+00 2.958E+04 5.202E+05 1.483E+06 2.032E+06 2.032E+06 2.730E+07 36.5532 1.00000
  2.512E+12 2.512E+12 4.303E+00 3.319E+04 5.837E+05 1.700E+06 2.317E+06 2.317E+06 2.743E+07 36.7834 1.00000
  2.818E+12 2.818E+12 4.323E+00 3.725E+04 6.549E+05 1.950E+06 2.642E+06 2.642E+06 2.755E+07 37.0137 1.00000
  3.162E+12 3.162E+12 4.343E+00 4.179E+04 7.348E+05 2.237E+06 3.013E+06 3.013E+06 2.768E+07 37.2440 1.00000
  3.548E+12 3.548E+12 4.364E+00 4.689E+04 8.244E+05 2.565E+06 3.437E+06 3.437E+06 2.780E+07 37.4742 1.00000
  3.981E+12 3.981E+12 4.385E+00 5.261E+04 9.249E+05 2.943E+06 3.920E+06 3.920E+06 2.792E+07 37.7045 1.00000
  4.467E+12 4.467E+12 4.405E+00 5.903E+04 1.038E+06 3.376E+06 4.472E+06 4.472E+06 2.803E+07 37.9347 1.00000
  5.012E+12 5.012E+12 4.426E+00 6.624E+04 1.164E+06 3.873E+06 5.103E+06 5.103E+06 2.815E+07 38.1650 1.00000
  5.623E+12 5.623E+12 4.447E+00 7.432E+04 1.306E+06 4.443E+06 5.823E+06 5.823E+06 2.826E+07 38.3953 1.00000
  6.310E+12 6.310E+12 4.468E+00 8.339E+04 1.466E+06 5.097E+06 6.646E+06 6.646E+06 2.837E+07 38.6255 1.00000
  7.079E+12 7.079E+12 4.490E+00 9.356E+04 1.644E+06 5.848E+06 7.586E+06 7.586E+06 2.848E+07 38.8558 1.00000
  7.943E+12 7.943E+12 4.511E+00 1.050E+05 1.845E+06 6.710E+06 8.660E+06 8.660E+06 2.858E+07 39.0860 1.00000
  8.913E+12 8.913E+12 4.533E+00 1.178E+05 2.070E+06 7.700E+06 9.887E+06 9.887E+06 2.869E+07 39.3163 1.00000
  1.000E+13 1.000E+13 4.554E+00 1.322E+05 2.322E+06 8.835E+06 1.129E+07 1.129E+07 2.879E+07 39.5466 1.00000
  1.122E+13 1.122E+13 4.576E+00 1.483E+05 2.606E+06 1.014E+07 1.289E+07 1.289E+07 2.889E+07 39.7768 1.00000
  1.259E+13 1.259E+13 4.598E+00 1.664E+05 2.924E+06 1.164E+07 1.473E+07 1.473E+07 2.899E+07 40.0071 1.00000
  1.413E+13 1.413E+13 4.620E+00 1.867E+05 3.280E+06 1.335E+07 1.682E+07 1.682E+07 2.909E+07 40.2373 1.00000
  1.585E+13 1.585E+13 4.642E+00 2.095E+05 3.680E+06 1.533E+07 1.922E+07 1.922E+07 2.919E+07 40.4676 1.00000
  1.778E+13 1.778E+13 4.664E+00 2.350E+05 4.129E+06 1.759E+07 2.196E+07 2.196E+07 2.928E+07 40.6978 1.00000
  1.995E+13 1.995E+13 4.686E+00 2.637E+05 4.633E+06 2.019E+07 2.509E+07 2.509E+07 2.937E+07 40.9281 1.00000
  2.239E+13 2.239E+13 4.709E+00 2.959E+05 5.198E+06 2.318E+07 2.867E+07 2.867E+07 2.947E+07 41.1584 1.00000
  2.512E+13 2.512E+13 4.731E+00 3.320E+05 5.831E+06 2.661E+07 3.277E+07 3.277E+07 2.955E+07 41.3886 1.00000
  2.818E+13 2.818E+13 4.754E+00 3.725E+05 6.543E+06 3.055E+07 3.747E+07 3.747E+07 2.964E+07 41.6189 1.00000
  3.162E+13 3.162E+13 4.777E+00 4.179E+05 7.341E+06 3.507E+07 4.283E+07 4.283E+07 2.973E+07 41.8491 1.00000
  3.548E+13 3.548E+13 4.800E+00 4.689E+05 8.236E+06 4.027E+07 4.897E+07 4.897E+07 2.981E+07 42.0794 1.00000
  3.981E+13 3.981E+13 4.823E+00 5.262E+05 9.240E+06 4.624E+07 5.600E+07 5.600E+07 2.990E+07 42.3097 1.00000
  4.467E+13 4.467E+13 4.846E+00 5.904E+05 1.037E+07 5.309E+07 6.405E+07 6.405E+07 2.998E+07 42.5399 1.00000
  5.012E+13 5.012E+13 4.869E+00 6.624E+05 1.163E+07 6.096E+07 7.326E+07 7.326E+07 3.006E+07 42.7702 1.00000
  5.623E+13 5.623E+13 4.892E+00 7.432E+05 1.305E+07 7.001E+07 8.380E+07 8.380E+07 3.013E+07 43.0004 1.00000
  6.310E+13 6.310E+13 4.916E+00 8.339E+05 1.464E+07 8.039E+07 9.587E+07 9.587E+07 3.021E+07 43.2307 1.00000
  7.079E+13 7.079E+13 4.940E+00 9.357E+05 1.643E+07 9.233E+07 1.097E+08 1.097E+08 3.029E+07 43.4609 1.00000
  7.943E+13 7.943E+13 4.963E+00 1.050E+06 1.843E+07 1.060E+08 1.255E+08 1.255E+08 3.036E+07 43.6912 1.00000
  8.913E+13 8.913E+13 4.987E+00 1.178E+06 2.068E+07 1.218E+08 1.436E+08 1.436E+08 3.043E+07 43.9215 1.00000
