 Incident particle is a Tau with M = 1776.82000 MeV
 Index = 0: Gadolinium
      Absorber with <Z/A> = 0.40699
 Sternheimer coef:  a     k=m_s   x_0    x_1    I[eV]   Cbar  delta0
                 0.2511  2.5977  0.1058  3.3932  591.0  5.8737 0.14

 *** Table generated with PUMAS v1.00 ***

      T         p     Ionization  brems     pair     photonuc  Radloss    dE/dx   CSDA Range  delta   beta
    [MeV]    [MeV/c]  -----------------------[MeV cm^2/g]------------------------  [g/cm^2]
  1.000E+05 1.018E+05 1.632E+00 8.567E-04 1.499E-02 7.619E-03 2.347E-02 1.656E+00 3.020E+04  3.1228 0.99985
  1.122E+05 1.140E+05 1.651E+00 9.931E-04 1.795E-02 8.556E-03 2.750E-02 1.679E+00 3.752E+04  3.2806 0.99988
  1.259E+05 1.277E+05 1.670E+00 1.151E-03 2.144E-02 9.558E-03 3.215E-02 1.702E+00 4.562E+04  3.4420 0.99990
  1.413E+05 1.430E+05 1.688E+00 1.332E-03 2.553E-02 1.068E-02 3.754E-02 1.726E+00 5.458E+04  3.6070 0.99992
  1.585E+05 1.603E+05 1.707E+00 1.542E-03 3.032E-02 1.193E-02 4.378E-02 1.751E+00 6.450E+04  3.7754 0.99994
  1.778E+05 1.796E+05 1.725E+00 1.783E-03 3.591E-02 1.331E-02 5.101E-02 1.776E+00 7.546E+04  3.9472 0.99995
  1.995E+05 2.013E+05 1.743E+00 2.061E-03 4.245E-02 1.488E-02 5.939E-02 1.803E+00 8.759E+04  4.1222 0.99996
  2.239E+05 2.256E+05 1.761E+00 2.381E-03 5.006E-02 1.659E-02 6.903E-02 1.830E+00 1.010E+05  4.3005 0.99997
  2.512E+05 2.530E+05 1.779E+00 2.749E-03 5.890E-02 1.850E-02 8.015E-02 1.859E+00 1.158E+05  4.4820 0.99998
  2.818E+05 2.836E+05 1.796E+00 3.172E-03 6.916E-02 2.063E-02 9.297E-02 1.889E+00 1.322E+05  4.6665 0.99998
  3.162E+05 3.180E+05 1.814E+00 3.658E-03 8.104E-02 2.304E-02 1.077E-01 1.921E+00 1.502E+05  4.8540 0.99998
  3.548E+05 3.566E+05 1.831E+00 4.217E-03 9.477E-02 2.572E-02 1.247E-01 1.956E+00 1.701E+05  5.0444 0.99999
  3.981E+05 3.999E+05 1.848E+00 4.858E-03 1.106E-01 2.871E-02 1.442E-01 1.992E+00 1.921E+05  5.2376 0.99999
  4.467E+05 4.485E+05 1.865E+00 5.594E-03 1.289E-01 3.204E-02 1.665E-01 2.031E+00 2.162E+05  5.4336 0.99999
  5.012E+05 5.030E+05 1.882E+00 6.437E-03 1.499E-01 3.577E-02 1.921E-01 2.074E+00 2.428E+05  5.6323 0.99999
  5.623E+05 5.641E+05 1.898E+00 7.404E-03 1.741E-01 3.980E-02 2.213E-01 2.119E+00 2.719E+05  5.8335 1.00000
  6.310E+05 6.327E+05 1.914E+00 8.512E-03 2.018E-01 4.432E-02 2.547E-01 2.169E+00 3.039E+05  6.0372 1.00000
  7.079E+05 7.097E+05 1.930E+00 9.782E-03 2.337E-01 4.941E-02 2.928E-01 2.223E+00 3.390E+05  6.2433 1.00000
  7.943E+05 7.961E+05 1.946E+00 1.123E-02 2.701E-01 5.514E-02 3.364E-01 2.283E+00 3.773E+05  6.4517 1.00000
  8.913E+05 8.930E+05 1.962E+00 1.290E-02 3.117E-01 6.160E-02 3.862E-01 2.348E+00 4.192E+05  6.6624 1.00000
  1.000E+06 1.002E+06 1.977E+00 1.480E-02 3.593E-01 6.889E-02 4.430E-01 2.420E+00 4.648E+05  6.8751 1.00000
  1.122E+06 1.124E+06 1.993E+00 1.697E-02 4.135E-01 7.712E-02 5.076E-01 2.500E+00 5.144E+05  7.0900 1.00000
  1.259E+06 1.261E+06 2.008E+00 1.946E-02 4.754E-01 8.642E-02 5.813E-01 2.589E+00 5.683E+05  7.3067 1.00000
  1.413E+06 1.414E+06 2.023E+00 2.230E-02 5.458E-01 9.695E-02 6.651E-01 2.688E+00 6.265E+05  7.5253 1.00000
  1.585E+06 1.587E+06 2.038E+00 2.554E-02 6.259E-01 1.089E-01 7.603E-01 2.798E+00 6.894E+05  7.7456 1.00000
  1.778E+06 1.780E+06 2.052E+00 2.925E-02 7.170E-01 1.224E-01 8.686E-01 2.921E+00 7.570E+05  7.9676 1.00000
  1.995E+06 1.997E+06 2.066E+00 3.347E-02 8.203E-01 1.377E-01 9.915E-01 3.058E+00 8.297E+05  8.1910 1.00000
  2.239E+06 2.240E+06 2.080E+00 3.830E-02 9.376E-01 1.550E-01 1.131E+00 3.211E+00 9.074E+05  8.4159 1.00000
  2.512E+06 2.514E+06 2.094E+00 4.380E-02 1.071E+00 1.747E-01 1.289E+00 3.383E+00 9.903E+05  8.6420 1.00000
  2.818E+06 2.820E+06 2.108E+00 5.007E-02 1.221E+00 1.971E-01 1.468E+00 3.576E+00 1.078E+06  8.8692 1.00000
  3.162E+06 3.164E+06 2.122E+00 5.721E-02 1.392E+00 2.225E-01 1.671E+00 3.793E+00 1.172E+06  9.0975 1.00000
  3.548E+06 3.550E+06 2.135E+00 6.536E-02 1.585E+00 2.514E-01 1.901E+00 4.036E+00 1.270E+06  9.3265 1.00000
  3.981E+06 3.983E+06 2.148E+00 7.463E-02 1.803E+00 2.843E-01 2.161E+00 4.310E+00 1.374E+06  9.5562 1.00000
  4.467E+06 4.469E+06 2.161E+00 8.519E-02 2.049E+00 3.216E-01 2.456E+00 4.617E+00 1.483E+06  9.7863 1.00000
  5.012E+06 5.014E+06 2.174E+00 9.721E-02 2.327E+00 3.641E-01 2.788E+00 4.963E+00 1.597E+06 10.0165 1.00000
  5.623E+06 5.625E+06 2.187E+00 1.109E-01 2.641E+00 4.125E-01 3.164E+00 5.352E+00 1.716E+06 10.2467 1.00000
  6.310E+06 6.311E+06 2.200E+00 1.264E-01 2.995E+00 4.676E-01 3.589E+00 5.789E+00 1.839E+06 10.4769 1.00000
  7.079E+06 7.081E+06 2.212E+00 1.441E-01 3.395E+00 5.303E-01 4.069E+00 6.281E+00 1.967E+06 10.7071 1.00000
  7.943E+06 7.945E+06 2.225E+00 1.642E-01 3.845E+00 6.017E-01 4.611E+00 6.836E+00 2.099E+06 10.9373 1.00000
  8.913E+06 8.914E+06 2.237E+00 1.871E-01 4.352E+00 6.831E-01 5.222E+00 7.459E+00 2.235E+06 11.1675 1.00000
  1.000E+07 1.000E+07 2.249E+00 2.130E-01 4.923E+00 7.759E-01 5.912E+00 8.161E+00 2.374E+06 11.3977 1.00000
  1.122E+07 1.122E+07 2.261E+00 2.425E-01 5.567E+00 8.815E-01 6.691E+00 8.952E+00 2.517E+06 11.6279 1.00000
  1.259E+07 1.259E+07 2.273E+00 2.759E-01 6.291E+00 1.002E+00 7.569E+00 9.842E+00 2.663E+06 11.8581 1.00000
  1.413E+07 1.413E+07 2.285E+00 3.139E-01 7.106E+00 1.139E+00 8.559E+00 1.084E+01 2.812E+06 12.0884 1.00000
  1.585E+07 1.585E+07 2.297E+00 3.569E-01 8.023E+00 1.296E+00 9.675E+00 1.197E+01 2.964E+06 12.3186 1.00000
  1.778E+07 1.778E+07 2.309E+00 4.058E-01 9.054E+00 1.475E+00 1.093E+01 1.324E+01 3.117E+06 12.5488 1.00000
  1.995E+07 1.995E+07 2.320E+00 4.611E-01 1.021E+01 1.678E+00 1.235E+01 1.467E+01 3.273E+06 12.7791 1.00000
  2.239E+07 2.239E+07 2.332E+00 5.239E-01 1.152E+01 1.911E+00 1.395E+01 1.628E+01 3.431E+06 13.0093 1.00000
  2.512E+07 2.512E+07 2.343E+00 5.950E-01 1.298E+01 2.176E+00 1.575E+01 1.810E+01 3.590E+06 13.2395 1.00000
  2.818E+07 2.819E+07 2.355E+00 6.755E-01 1.463E+01 2.478E+00 1.778E+01 2.014E+01 3.751E+06 13.4698 1.00000
  3.162E+07 3.162E+07 2.366E+00 7.666E-01 1.648E+01 2.823E+00 2.007E+01 2.244E+01 3.913E+06 13.7000 1.00000
  3.548E+07 3.548E+07 2.377E+00 8.698E-01 1.856E+01 3.217E+00 2.265E+01 2.502E+01 4.076E+06 13.9303 1.00000
  3.981E+07 3.981E+07 2.389E+00 9.866E-01 2.090E+01 3.667E+00 2.555E+01 2.794E+01 4.240E+06 14.1605 1.00000
  4.467E+07 4.467E+07 2.400E+00 1.119E+00 2.352E+01 4.180E+00 2.882E+01 3.122E+01 4.405E+06 14.3908 1.00000
  5.012E+07 5.012E+07 2.411E+00 1.268E+00 2.647E+01 4.765E+00 3.250E+01 3.491E+01 4.570E+06 14.6210 1.00000
  5.623E+07 5.624E+07 2.423E+00 1.437E+00 2.978E+01 5.434E+00 3.665E+01 3.907E+01 4.736E+06 14.8513 1.00000
  6.310E+07 6.310E+07 2.434E+00 1.628E+00 3.349E+01 6.197E+00 4.132E+01 4.375E+01 4.903E+06 15.0815 1.00000
  7.079E+07 7.080E+07 2.445E+00 1.843E+00 3.767E+01 7.068E+00 4.658E+01 4.902E+01 5.069E+06 15.3118 1.00000
  7.943E+07 7.943E+07 2.457E+00 2.087E+00 4.235E+01 8.063E+00 5.250E+01 5.496E+01 5.236E+06 15.5420 1.00000
  8.913E+07 8.913E+07 2.468E+00 2.362E+00 4.761E+01 9.199E+00 5.918E+01 6.164E+01 5.402E+06 15.7723 1.00000
  1.000E+08 1.000E+08 2.479E+00 2.672E+00 5.352E+01 1.050E+01 6.669E+01 6.917E+01 5.569E+06 16.0025 1.00000
  1.122E+08 1.122E+08 2.491E+00 3.022E+00 6.015E+01 1.198E+01 7.515E+01 7.764E+01 5.736E+06 16.2328 1.00000
  1.259E+08 1.259E+08 2.502E+00 3.417E+00 6.759E+01 1.367E+01 8.468E+01 8.718E+01 5.903E+06 16.4630 1.00000
  1.413E+08 1.413E+08 2.513E+00 3.863E+00 7.595E+01 1.560E+01 9.541E+01 9.793E+01 6.069E+06 16.6933 1.00000
  1.585E+08 1.585E+08 2.525E+00 4.365E+00 8.533E+01 1.781E+01 1.075E+02 1.100E+02 6.236E+06 16.9236 1.00000
  1.778E+08 1.778E+08 2.536E+00 4.932E+00 9.585E+01 2.033E+01 1.211E+02 1.237E+02 6.402E+06 17.1538 1.00000
  1.995E+08 1.995E+08 2.548E+00 5.570E+00 1.077E+02 2.321E+01 1.364E+02 1.390E+02 6.568E+06 17.3841 1.00000
  2.239E+08 2.239E+08 2.560E+00 6.290E+00 1.209E+02 2.650E+01 1.537E+02 1.563E+02 6.733E+06 17.6143 1.00000
  2.512E+08 2.512E+08 2.571E+00 7.100E+00 1.358E+02 3.026E+01 1.732E+02 1.757E+02 6.898E+06 17.8446 1.00000
  2.818E+08 2.818E+08 2.583E+00 8.012E+00 1.525E+02 3.456E+01 1.951E+02 1.977E+02 7.063E+06 18.0748 1.00000
  3.162E+08 3.162E+08 2.595E+00 9.039E+00 1.712E+02 3.946E+01 2.197E+02 2.223E+02 7.227E+06 18.3051 1.00000
  3.548E+08 3.548E+08 2.607E+00 1.020E+01 1.923E+02 4.507E+01 2.475E+02 2.501E+02 7.391E+06 18.5354 1.00000
  3.981E+08 3.981E+08 2.618E+00 1.150E+01 2.159E+02 5.148E+01 2.788E+02 2.815E+02 7.555E+06 18.7656 1.00000
  4.467E+08 4.467E+08 2.630E+00 1.296E+01 2.424E+02 5.880E+01 3.141E+02 3.168E+02 7.717E+06 18.9959 1.00000
  5.012E+08 5.012E+08 2.642E+00 1.461E+01 2.721E+02 6.717E+01 3.539E+02 3.565E+02 7.880E+06 19.2261 1.00000
  5.623E+08 5.623E+08 2.654E+00 1.646E+01 3.054E+02 7.674E+01 3.986E+02 4.013E+02 8.042E+06 19.4564 1.00000
  6.310E+08 6.310E+08 2.666E+00 1.855E+01 3.428E+02 8.767E+01 4.491E+02 4.517E+02 8.203E+06 19.6866 1.00000
  7.079E+08 7.079E+08 2.679E+00 2.089E+01 3.848E+02 1.002E+02 5.059E+02 5.086E+02 8.364E+06 19.9169 1.00000
  7.943E+08 7.943E+08 2.691E+00 2.353E+01 4.320E+02 1.144E+02 5.699E+02 5.726E+02 8.525E+06 20.1472 1.00000
  8.913E+08 8.913E+08 2.703E+00 2.649E+01 4.848E+02 1.308E+02 6.421E+02 6.448E+02 8.684E+06 20.3774 1.00000
  1.000E+09 1.000E+09 2.715E+00 2.982E+01 5.442E+02 1.494E+02 7.234E+02 7.261E+02 8.844E+06 20.6077 1.00000
  1.122E+09 1.122E+09 2.728E+00 3.356E+01 6.107E+02 1.708E+02 8.151E+02 8.178E+02 9.002E+06 20.8379 1.00000
  1.259E+09 1.259E+09 2.740E+00 3.776E+01 6.854E+02 1.952E+02 9.184E+02 9.211E+02 9.160E+06 21.0682 1.00000
  1.413E+09 1.413E+09 2.753E+00 4.249E+01 7.692E+02 2.231E+02 1.035E+03 1.038E+03 9.318E+06 21.2984 1.00000
  1.585E+09 1.585E+09 2.765E+00 4.780E+01 8.633E+02 2.550E+02 1.166E+03 1.169E+03 9.474E+06 21.5287 1.00000
  1.778E+09 1.778E+09 2.778E+00 5.376E+01 9.688E+02 2.915E+02 1.314E+03 1.317E+03 9.631E+06 21.7590 1.00000
  1.995E+09 1.995E+09 2.791E+00 6.046E+01 1.087E+03 3.332E+02 1.481E+03 1.484E+03 9.786E+06 21.9892 1.00000
  2.239E+09 2.239E+09 2.804E+00 6.798E+01 1.220E+03 3.809E+02 1.669E+03 1.672E+03 9.941E+06 22.2195 1.00000
  2.512E+09 2.512E+09 2.817E+00 7.642E+01 1.369E+03 4.355E+02 1.881E+03 1.884E+03 1.010E+07 22.4497 1.00000
  2.818E+09 2.818E+09 2.829E+00 8.591E+01 1.536E+03 4.979E+02 2.120E+03 2.123E+03 1.025E+07 22.6800 1.00000
  3.162E+09 3.162E+09 2.842E+00 9.656E+01 1.724E+03 5.693E+02 2.390E+03 2.393E+03 1.040E+07 22.9103 1.00000
  3.548E+09 3.548E+09 2.856E+00 1.085E+02 1.935E+03 6.509E+02 2.694E+03 2.697E+03 1.055E+07 23.1405 1.00000
  3.981E+09 3.981E+09 2.869E+00 1.219E+02 2.171E+03 7.443E+02 3.037E+03 3.040E+03 1.071E+07 23.3708 1.00000
  4.467E+09 4.467E+09 2.882E+00 1.370E+02 2.436E+03 8.512E+02 3.424E+03 3.427E+03 1.086E+07 23.6010 1.00000
  5.012E+09 5.012E+09 2.895E+00 1.539E+02 2.733E+03 9.735E+02 3.861E+03 3.864E+03 1.101E+07 23.8313 1.00000
  5.623E+09 5.623E+09 2.909E+00 1.729E+02 3.067E+03 1.113E+03 4.353E+03 4.356E+03 1.116E+07 24.0615 1.00000
  6.310E+09 6.310E+09 2.922E+00 1.943E+02 3.441E+03 1.273E+03 4.909E+03 4.912E+03 1.130E+07 24.2918 1.00000
  7.079E+09 7.079E+09 2.936E+00 2.182E+02 3.861E+03 1.456E+03 5.536E+03 5.539E+03 1.145E+07 24.5221 1.00000
  7.943E+09 7.943E+09 2.949E+00 2.451E+02 4.333E+03 1.666E+03 6.244E+03 6.247E+03 1.160E+07 24.7523 1.00000
  8.913E+09 8.913E+09 2.963E+00 2.752E+02 4.862E+03 1.906E+03 7.043E+03 7.046E+03 1.175E+07 24.9826 1.00000
  1.000E+10 1.000E+10 2.977E+00 3.091E+02 5.455E+03 2.180E+03 7.944E+03 7.947E+03 1.189E+07 25.2128 1.00000
  1.122E+10 1.122E+10 2.991E+00 3.470E+02 6.121E+03 2.494E+03 8.962E+03 8.965E+03 1.204E+07 25.4431 1.00000
  1.259E+10 1.259E+10 3.005E+00 3.897E+02 6.868E+03 2.854E+03 1.011E+04 1.011E+04 1.218E+07 25.6734 1.00000
  1.413E+10 1.413E+10 3.019E+00 4.375E+02 7.706E+03 3.265E+03 1.141E+04 1.141E+04 1.232E+07 25.9036 1.00000
  1.585E+10 1.585E+10 3.033E+00 4.912E+02 8.646E+03 3.736E+03 1.287E+04 1.288E+04 1.247E+07 26.1339 1.00000
  1.778E+10 1.778E+10 3.047E+00 5.514E+02 9.701E+03 4.275E+03 1.453E+04 1.453E+04 1.261E+07 26.3641 1.00000
  1.995E+10 1.995E+10 3.061E+00 6.190E+02 1.089E+04 4.892E+03 1.640E+04 1.640E+04 1.275E+07 26.5944 1.00000
  2.239E+10 2.239E+10 3.075E+00 6.949E+02 1.221E+04 5.599E+03 1.851E+04 1.851E+04 1.289E+07 26.8247 1.00000
  2.512E+10 2.512E+10 3.090E+00 7.801E+02 1.370E+04 6.408E+03 2.089E+04 2.089E+04 1.303E+07 27.0549 1.00000
  2.818E+10 2.818E+10 3.104E+00 8.756E+02 1.538E+04 7.334E+03 2.358E+04 2.359E+04 1.317E+07 27.2852 1.00000
  3.162E+10 3.162E+10 3.119E+00 9.828E+02 1.725E+04 8.394E+03 2.663E+04 2.663E+04 1.330E+07 27.5154 1.00000
  3.548E+10 3.548E+10 3.134E+00 1.103E+03 1.936E+04 9.608E+03 3.007E+04 3.007E+04 1.344E+07 27.7457 1.00000
  3.981E+10 3.981E+10 3.148E+00 1.238E+03 2.172E+04 1.100E+04 3.395E+04 3.396E+04 1.358E+07 27.9759 1.00000
  4.467E+10 4.467E+10 3.163E+00 1.390E+03 2.437E+04 1.259E+04 3.835E+04 3.835E+04 1.371E+07 28.2062 1.00000
  5.012E+10 5.012E+10 3.178E+00 1.560E+03 2.734E+04 1.441E+04 4.331E+04 4.332E+04 1.384E+07 28.4365 1.00000
  5.623E+10 5.623E+10 3.193E+00 1.750E+03 3.068E+04 1.650E+04 4.893E+04 4.893E+04 1.398E+07 28.6667 1.00000
  6.310E+10 6.310E+10 3.208E+00 1.964E+03 3.442E+04 1.889E+04 5.528E+04 5.528E+04 1.411E+07 28.8970 1.00000
  7.079E+10 7.079E+10 3.223E+00 2.204E+03 3.862E+04 2.163E+04 6.246E+04 6.246E+04 1.424E+07 29.1272 1.00000
  7.943E+10 7.943E+10 3.239E+00 2.474E+03 4.333E+04 2.477E+04 7.058E+04 7.058E+04 1.437E+07 29.3575 1.00000
  8.913E+10 8.913E+10 3.254E+00 2.776E+03 4.862E+04 2.837E+04 7.976E+04 7.976E+04 1.450E+07 29.5878 1.00000
  1.000E+11 1.000E+11 3.269E+00 3.115E+03 5.455E+04 3.249E+04 9.015E+04 9.015E+04 1.463E+07 29.8180 1.00000
  1.122E+11 1.122E+11 3.285E+00 3.496E+03 6.120E+04 3.720E+04 1.019E+05 1.019E+05 1.476E+07 30.0483 1.00000
  1.259E+11 1.259E+11 3.300E+00 3.923E+03 6.867E+04 4.261E+04 1.152E+05 1.152E+05 1.488E+07 30.2785 1.00000
  1.413E+11 1.413E+11 3.316E+00 4.402E+03 7.704E+04 4.880E+04 1.302E+05 1.303E+05 1.501E+07 30.5088 1.00000
  1.585E+11 1.585E+11 3.332E+00 4.940E+03 8.644E+04 5.590E+04 1.473E+05 1.473E+05 1.513E+07 30.7390 1.00000
  1.778E+11 1.778E+11 3.348E+00 5.543E+03 9.699E+04 6.403E+04 1.666E+05 1.666E+05 1.526E+07 30.9693 1.00000
  1.995E+11 1.995E+11 3.364E+00 6.220E+03 1.088E+05 7.335E+04 1.884E+05 1.884E+05 1.538E+07 31.1996 1.00000
  2.239E+11 2.239E+11 3.380E+00 6.980E+03 1.221E+05 8.404E+04 2.131E+05 2.131E+05 1.550E+07 31.4298 1.00000
  2.512E+11 2.512E+11 3.396E+00 7.832E+03 1.370E+05 9.628E+04 2.411E+05 2.411E+05 1.562E+07 31.6601 1.00000
  2.818E+11 2.818E+11 3.412E+00 8.788E+03 1.537E+05 1.103E+05 2.728E+05 2.728E+05 1.574E+07 31.8903 1.00000
  3.162E+11 3.162E+11 3.428E+00 9.861E+03 1.724E+05 1.264E+05 3.087E+05 3.087E+05 1.586E+07 32.1206 1.00000
  3.548E+11 3.548E+11 3.445E+00 1.107E+04 1.935E+05 1.448E+05 3.494E+05 3.494E+05 1.598E+07 32.3509 1.00000
  3.981E+11 3.981E+11 3.461E+00 1.242E+04 2.171E+05 1.659E+05 3.954E+05 3.954E+05 1.610E+07 32.5811 1.00000
  4.467E+11 4.467E+11 3.478E+00 1.393E+04 2.436E+05 1.902E+05 4.477E+05 4.477E+05 1.621E+07 32.8114 1.00000
  5.012E+11 5.012E+11 3.495E+00 1.563E+04 2.733E+05 2.179E+05 5.068E+05 5.068E+05 1.633E+07 33.0416 1.00000
  5.623E+11 5.623E+11 3.511E+00 1.754E+04 3.066E+05 2.498E+05 5.739E+05 5.739E+05 1.644E+07 33.2719 1.00000
  6.310E+11 6.310E+11 3.528E+00 1.968E+04 3.440E+05 2.863E+05 6.500E+05 6.500E+05 1.655E+07 33.5021 1.00000
  7.079E+11 7.079E+11 3.545E+00 2.208E+04 3.860E+05 3.281E+05 7.362E+05 7.362E+05 1.666E+07 33.7324 1.00000
  7.943E+11 7.943E+11 3.562E+00 2.478E+04 4.330E+05 3.761E+05 8.339E+05 8.339E+05 1.677E+07 33.9627 1.00000
  8.913E+11 8.913E+11 3.579E+00 2.780E+04 4.859E+05 4.311E+05 9.448E+05 9.448E+05 1.688E+07 34.1929 1.00000
  1.000E+12 1.000E+12 3.597E+00 3.119E+04 5.451E+05 4.942E+05 1.071E+06 1.071E+06 1.699E+07 34.4232 1.00000
  1.122E+12 1.122E+12 3.614E+00 3.500E+04 6.116E+05 5.666E+05 1.213E+06 1.213E+06 1.710E+07 34.6534 1.00000
  1.259E+12 1.259E+12 3.631E+00 3.927E+04 6.862E+05 6.496E+05 1.375E+06 1.375E+06 1.720E+07 34.8837 1.00000
  1.413E+12 1.413E+12 3.649E+00 4.407E+04 7.699E+05 7.448E+05 1.559E+06 1.559E+06 1.731E+07 35.1140 1.00000
  1.585E+12 1.585E+12 3.667E+00 4.944E+04 8.638E+05 8.540E+05 1.767E+06 1.767E+06 1.741E+07 35.3442 1.00000
  1.778E+12 1.778E+12 3.684E+00 5.548E+04 9.692E+05 9.793E+05 2.004E+06 2.004E+06 1.752E+07 35.5745 1.00000
  1.995E+12 1.995E+12 3.702E+00 6.225E+04 1.087E+06 1.123E+06 2.273E+06 2.273E+06 1.762E+07 35.8047 1.00000
  2.239E+12 2.239E+12 3.720E+00 6.984E+04 1.220E+06 1.288E+06 2.578E+06 2.578E+06 1.772E+07 36.0350 1.00000
  2.512E+12 2.512E+12 3.738E+00 7.837E+04 1.369E+06 1.477E+06 2.924E+06 2.924E+06 1.782E+07 36.2652 1.00000
  2.818E+12 2.818E+12 3.756E+00 8.793E+04 1.536E+06 1.694E+06 3.318E+06 3.318E+06 1.792E+07 36.4955 1.00000
  3.162E+12 3.162E+12 3.774E+00 9.866E+04 1.723E+06 1.943E+06 3.764E+06 3.764E+06 1.802E+07 36.7258 1.00000
  3.548E+12 3.548E+12 3.793E+00 1.107E+05 1.933E+06 2.228E+06 4.272E+06 4.272E+06 1.811E+07 36.9560 1.00000
  3.981E+12 3.981E+12 3.811E+00 1.242E+05 2.169E+06 2.556E+06 4.849E+06 4.849E+06 1.821E+07 37.1863 1.00000
  4.467E+12 4.467E+12 3.830E+00 1.394E+05 2.434E+06 2.932E+06 5.505E+06 5.505E+06 1.830E+07 37.4165 1.00000
  5.012E+12 5.012E+12 3.848E+00 1.564E+05 2.731E+06 3.364E+06 6.250E+06 6.250E+06 1.839E+07 37.6468 1.00000
  5.623E+12 5.623E+12 3.867E+00 1.754E+05 3.064E+06 3.859E+06 7.098E+06 7.098E+06 1.849E+07 37.8771 1.00000
  6.310E+12 6.310E+12 3.886E+00 1.969E+05 3.437E+06 4.427E+06 8.061E+06 8.061E+06 1.858E+07 38.1073 1.00000
  7.079E+12 7.079E+12 3.905E+00 2.209E+05 3.856E+06 5.079E+06 9.157E+06 9.157E+06 1.867E+07 38.3376 1.00000
  7.943E+12 7.943E+12 3.924E+00 2.478E+05 4.327E+06 5.828E+06 1.040E+07 1.040E+07 1.876E+07 38.5678 1.00000
  8.913E+12 8.913E+12 3.943E+00 2.781E+05 4.855E+06 6.688E+06 1.182E+07 1.182E+07 1.884E+07 38.7981 1.00000
  1.000E+13 1.000E+13 3.962E+00 3.120E+05 5.447E+06 7.674E+06 1.343E+07 1.343E+07 1.893E+07 39.0284 1.00000
  1.122E+13 1.122E+13 3.982E+00 3.501E+05 6.111E+06 8.807E+06 1.527E+07 1.527E+07 1.902E+07 39.2586 1.00000
  1.259E+13 1.259E+13 4.001E+00 3.928E+05 6.856E+06 1.011E+07 1.736E+07 1.736E+07 1.910E+07 39.4889 1.00000
  1.413E+13 1.413E+13 4.021E+00 4.407E+05 7.692E+06 1.160E+07 1.973E+07 1.973E+07 1.918E+07 39.7191 1.00000
  1.585E+13 1.585E+13 4.040E+00 4.945E+05 8.631E+06 1.331E+07 2.244E+07 2.244E+07 1.926E+07 39.9494 1.00000
  1.778E+13 1.778E+13 4.060E+00 5.548E+05 9.683E+06 1.528E+07 2.552E+07 2.552E+07 1.935E+07 40.1796 1.00000
  1.995E+13 1.995E+13 4.080E+00 6.225E+05 1.086E+07 1.754E+07 2.903E+07 2.903E+07 1.943E+07 40.4099 1.00000
  2.239E+13 2.239E+13 4.100E+00 6.985E+05 1.219E+07 2.013E+07 3.302E+07 3.302E+07 1.950E+07 40.6402 1.00000
  2.512E+13 2.512E+13 4.120E+00 7.837E+05 1.368E+07 2.311E+07 3.757E+07 3.757E+07 1.958E+07 40.8704 1.00000
  2.818E+13 2.818E+13 4.140E+00 8.793E+05 1.534E+07 2.653E+07 4.276E+07 4.276E+07 1.966E+07 41.1007 1.00000
  3.162E+13 3.162E+13 4.161E+00 9.866E+05 1.721E+07 3.046E+07 4.867E+07 4.867E+07 1.973E+07 41.3309 1.00000
  3.548E+13 3.548E+13 4.181E+00 1.107E+06 1.931E+07 3.498E+07 5.540E+07 5.540E+07 1.981E+07 41.5612 1.00000
  3.981E+13 3.981E+13 4.201E+00 1.242E+06 2.167E+07 4.016E+07 6.307E+07 6.307E+07 1.988E+07 41.7915 1.00000
  4.467E+13 4.467E+13 4.222E+00 1.394E+06 2.431E+07 4.611E+07 7.182E+07 7.182E+07 1.995E+07 42.0217 1.00000
  5.012E+13 5.012E+13 4.243E+00 1.564E+06 2.728E+07 5.295E+07 8.179E+07 8.179E+07 2.003E+07 42.2520 1.00000
  5.623E+13 5.623E+13 4.264E+00 1.755E+06 3.060E+07 6.080E+07 9.316E+07 9.316E+07 2.010E+07 42.4822 1.00000
  6.310E+13 6.310E+13 4.285E+00 1.969E+06 3.434E+07 6.983E+07 1.061E+08 1.061E+08 2.017E+07 42.7125 1.00000
  7.079E+13 7.079E+13 4.306E+00 2.209E+06 3.852E+07 8.019E+07 1.209E+08 1.209E+08 2.023E+07 42.9427 1.00000
  7.943E+13 7.943E+13 4.327E+00 2.478E+06 4.322E+07 9.210E+07 1.378E+08 1.378E+08 2.030E+07 43.1730 1.00000
  8.913E+13 8.913E+13 4.348E+00 2.781E+06 4.849E+07 1.058E+08 1.571E+08 1.571E+08 2.037E+07 43.4033 1.00000
