 Incident particle is a Tau with M = 1776.82000 MeV
 Index = 0: GadoliniumOxysulfide
      Absorber with <Z/A> = 0.42264
 Sternheimer coef:  a     k=m_s   x_0    x_1    I[eV]   Cbar  delta0
                 0.2216  2.6300  0.1774  3.4045  493.3  5.5347 0.00

 *** Table generated with PUMAS v1.00 ***

      T         p     Ionization  brems     pair     photonuc  Radloss    dE/dx   CSDA Range  delta   beta
    [MeV]    [MeV/c]  -----------------------[MeV cm^2/g]------------------------  [g/cm^2]
  1.000E+05 1.018E+05 1.702E+00 7.502E-04 1.306E-02 7.712E-03 2.153E-02 1.723E+00 2.902E+04  3.3835 0.99985
  1.122E+05 1.140E+05 1.721E+00 8.695E-04 1.565E-02 8.667E-03 2.518E-02 1.746E+00 3.605E+04  3.5469 0.99988
  1.259E+05 1.277E+05 1.740E+00 1.007E-03 1.869E-02 9.689E-03 2.938E-02 1.769E+00 4.384E+04  3.7138 0.99990
  1.413E+05 1.430E+05 1.759E+00 1.166E-03 2.225E-02 1.083E-02 3.425E-02 1.793E+00 5.247E+04  3.8839 0.99992
  1.585E+05 1.603E+05 1.778E+00 1.349E-03 2.643E-02 1.211E-02 3.989E-02 1.817E+00 6.202E+04  4.0573 0.99994
  1.778E+05 1.796E+05 1.796E+00 1.560E-03 3.132E-02 1.353E-02 4.641E-02 1.843E+00 7.258E+04  4.2338 0.99995
  1.995E+05 2.013E+05 1.815E+00 1.803E-03 3.703E-02 1.514E-02 5.397E-02 1.869E+00 8.428E+04  4.4134 0.99996
  2.239E+05 2.256E+05 1.833E+00 2.083E-03 4.367E-02 1.689E-02 6.264E-02 1.896E+00 9.721E+04  4.5960 0.99997
  2.512E+05 2.530E+05 1.851E+00 2.405E-03 5.139E-02 1.884E-02 7.264E-02 1.924E+00 1.115E+05  4.7815 0.99998
  2.818E+05 2.836E+05 1.869E+00 2.775E-03 6.035E-02 2.103E-02 8.416E-02 1.953E+00 1.273E+05  4.9699 0.99998
  3.162E+05 3.180E+05 1.887E+00 3.200E-03 7.073E-02 2.350E-02 9.742E-02 1.984E+00 1.448E+05  5.1610 0.99998
  3.548E+05 3.566E+05 1.905E+00 3.688E-03 8.272E-02 2.626E-02 1.127E-01 2.017E+00 1.641E+05  5.3549 0.99999
  3.981E+05 3.999E+05 1.922E+00 4.248E-03 9.657E-02 2.933E-02 1.301E-01 2.052E+00 1.854E+05  5.5513 0.99999
  4.467E+05 4.485E+05 1.939E+00 4.891E-03 1.125E-01 3.276E-02 1.502E-01 2.090E+00 2.088E+05  5.7503 0.99999
  5.012E+05 5.030E+05 1.957E+00 5.628E-03 1.309E-01 3.660E-02 1.731E-01 2.130E+00 2.347E+05  5.9517 0.99999
  5.623E+05 5.641E+05 1.974E+00 6.473E-03 1.520E-01 4.075E-02 1.993E-01 2.173E+00 2.631E+05  6.1555 1.00000
  6.310E+05 6.327E+05 1.990E+00 7.441E-03 1.763E-01 4.541E-02 2.292E-01 2.219E+00 2.943E+05  6.3616 1.00000
  7.079E+05 7.097E+05 2.007E+00 8.550E-03 2.041E-01 5.066E-02 2.633E-01 2.270E+00 3.286E+05  6.5699 1.00000
  7.943E+05 7.961E+05 2.023E+00 9.820E-03 2.359E-01 5.658E-02 3.023E-01 2.326E+00 3.662E+05  6.7803 1.00000
  8.913E+05 8.930E+05 2.039E+00 1.127E-02 2.724E-01 6.324E-02 3.469E-01 2.386E+00 4.074E+05  6.9927 1.00000
  1.000E+06 1.002E+06 2.055E+00 1.293E-02 3.140E-01 7.077E-02 3.977E-01 2.453E+00 4.523E+05  7.2071 1.00000
  1.122E+06 1.124E+06 2.071E+00 1.483E-02 3.614E-01 7.928E-02 4.555E-01 2.527E+00 5.013E+05  7.4233 1.00000
  1.259E+06 1.261E+06 2.087E+00 1.701E-02 4.155E-01 8.889E-02 5.214E-01 2.608E+00 5.547E+05  7.6413 1.00000
  1.413E+06 1.414E+06 2.102E+00 1.949E-02 4.772E-01 9.978E-02 5.964E-01 2.699E+00 6.126E+05  7.8609 1.00000
  1.585E+06 1.587E+06 2.117E+00 2.232E-02 5.473E-01 1.121E-01 6.817E-01 2.799E+00 6.753E+05  8.0822 1.00000
  1.778E+06 1.780E+06 2.133E+00 2.556E-02 6.270E-01 1.261E-01 7.786E-01 2.911E+00 7.431E+05  8.3048 1.00000
  1.995E+06 1.997E+06 2.147E+00 2.925E-02 7.175E-01 1.419E-01 8.886E-01 3.036E+00 8.161E+05  8.5289 1.00000
  2.239E+06 2.240E+06 2.162E+00 3.346E-02 8.202E-01 1.599E-01 1.013E+00 3.175E+00 8.945E+05  8.7542 1.00000
  2.512E+06 2.514E+06 2.176E+00 3.827E-02 9.366E-01 1.802E-01 1.155E+00 3.332E+00 9.785E+05  8.9807 1.00000
  2.818E+06 2.820E+06 2.191E+00 4.375E-02 1.068E+00 2.034E-01 1.316E+00 3.506E+00 1.068E+06  9.2081 1.00000
  3.162E+06 3.164E+06 2.205E+00 4.999E-02 1.218E+00 2.297E-01 1.498E+00 3.702E+00 1.164E+06  9.4365 1.00000
  3.548E+06 3.550E+06 2.219E+00 5.711E-02 1.387E+00 2.596E-01 1.704E+00 3.922E+00 1.265E+06  9.6656 1.00000
  3.981E+06 3.983E+06 2.232E+00 6.521E-02 1.578E+00 2.936E-01 1.937E+00 4.169E+00 1.372E+06  9.8953 1.00000
  4.467E+06 4.469E+06 2.246E+00 7.444E-02 1.794E+00 3.323E-01 2.200E+00 4.446E+00 1.485E+06 10.1253 1.00000
  5.012E+06 5.014E+06 2.259E+00 8.494E-02 2.037E+00 3.763E-01 2.499E+00 4.758E+00 1.604E+06 10.3555 1.00000
  5.623E+06 5.625E+06 2.273E+00 9.689E-02 2.313E+00 4.264E-01 2.836E+00 5.109E+00 1.728E+06 10.5857 1.00000
  6.310E+06 6.311E+06 2.286E+00 1.105E-01 2.623E+00 4.835E-01 3.217E+00 5.503E+00 1.857E+06 10.8159 1.00000
  7.079E+06 7.081E+06 2.299E+00 1.259E-01 2.973E+00 5.484E-01 3.648E+00 5.946E+00 1.992E+06 11.0461 1.00000
  7.943E+06 7.945E+06 2.312E+00 1.435E-01 3.368E+00 6.224E-01 4.134E+00 6.446E+00 2.132E+06 11.2763 1.00000
  8.913E+06 8.914E+06 2.324E+00 1.635E-01 3.813E+00 7.067E-01 4.683E+00 7.007E+00 2.276E+06 11.5065 1.00000
  1.000E+07 1.000E+07 2.337E+00 1.861E-01 4.314E+00 8.028E-01 5.303E+00 7.640E+00 2.425E+06 11.7367 1.00000
  1.122E+07 1.122E+07 2.350E+00 2.119E-01 4.878E+00 9.123E-01 6.002E+00 8.352E+00 2.578E+06 11.9669 1.00000
  1.259E+07 1.259E+07 2.362E+00 2.411E-01 5.513E+00 1.037E+00 6.791E+00 9.153E+00 2.734E+06 12.1971 1.00000
  1.413E+07 1.413E+07 2.374E+00 2.743E-01 6.227E+00 1.179E+00 7.681E+00 1.006E+01 2.895E+06 12.4274 1.00000
  1.585E+07 1.585E+07 2.387E+00 3.120E-01 7.032E+00 1.342E+00 8.685E+00 1.107E+01 3.058E+06 12.6576 1.00000
  1.778E+07 1.778E+07 2.399E+00 3.547E-01 7.936E+00 1.527E+00 9.817E+00 1.222E+01 3.225E+06 12.8878 1.00000
  1.995E+07 1.995E+07 2.411E+00 4.031E-01 8.953E+00 1.738E+00 1.109E+01 1.350E+01 3.394E+06 13.1181 1.00000
  2.239E+07 2.239E+07 2.423E+00 4.579E-01 1.010E+01 1.979E+00 1.253E+01 1.496E+01 3.565E+06 13.3483 1.00000
  2.512E+07 2.512E+07 2.435E+00 5.201E-01 1.138E+01 2.253E+00 1.416E+01 1.659E+01 3.739E+06 13.5785 1.00000
  2.818E+07 2.819E+07 2.447E+00 5.905E-01 1.283E+01 2.567E+00 1.598E+01 1.843E+01 3.914E+06 13.8088 1.00000
  3.162E+07 3.162E+07 2.458E+00 6.703E-01 1.445E+01 2.924E+00 1.805E+01 2.050E+01 4.092E+06 14.0390 1.00000
  3.548E+07 3.548E+07 2.470E+00 7.605E-01 1.627E+01 3.332E+00 2.037E+01 2.284E+01 4.270E+06 14.2693 1.00000
  3.981E+07 3.981E+07 2.482E+00 8.627E-01 1.832E+01 3.798E+00 2.299E+01 2.547E+01 4.450E+06 14.4995 1.00000
  4.467E+07 4.467E+07 2.494E+00 9.782E-01 2.063E+01 4.330E+00 2.593E+01 2.843E+01 4.631E+06 14.7298 1.00000
  5.012E+07 5.012E+07 2.506E+00 1.109E+00 2.321E+01 4.937E+00 2.926E+01 3.176E+01 4.812E+06 14.9600 1.00000
  5.623E+07 5.624E+07 2.517E+00 1.257E+00 2.612E+01 5.629E+00 3.300E+01 3.552E+01 4.995E+06 15.1903 1.00000
  6.310E+07 6.310E+07 2.529E+00 1.424E+00 2.938E+01 6.420E+00 3.722E+01 3.975E+01 5.178E+06 15.4205 1.00000
  7.079E+07 7.080E+07 2.541E+00 1.612E+00 3.304E+01 7.323E+00 4.198E+01 4.452E+01 5.361E+06 15.6508 1.00000
  7.943E+07 7.943E+07 2.552E+00 1.825E+00 3.715E+01 8.354E+00 4.733E+01 4.988E+01 5.545E+06 15.8810 1.00000
  8.913E+07 8.913E+07 2.564E+00 2.066E+00 4.177E+01 9.531E+00 5.337E+01 5.593E+01 5.728E+06 16.1113 1.00000
  1.000E+08 1.000E+08 2.576E+00 2.338E+00 4.695E+01 1.088E+01 6.017E+01 6.274E+01 5.912E+06 16.3415 1.00000
  1.122E+08 1.122E+08 2.588E+00 2.644E+00 5.277E+01 1.241E+01 6.783E+01 7.041E+01 6.096E+06 16.5718 1.00000
  1.259E+08 1.259E+08 2.600E+00 2.990E+00 5.930E+01 1.416E+01 7.646E+01 7.906E+01 6.280E+06 16.8020 1.00000
  1.413E+08 1.413E+08 2.612E+00 3.380E+00 6.663E+01 1.617E+01 8.618E+01 8.879E+01 6.464E+06 17.0323 1.00000
  1.585E+08 1.585E+08 2.624E+00 3.820E+00 7.486E+01 1.845E+01 9.714E+01 9.976E+01 6.647E+06 17.2626 1.00000
  1.778E+08 1.778E+08 2.635E+00 4.316E+00 8.410E+01 2.107E+01 1.095E+02 1.121E+02 6.830E+06 17.4928 1.00000
  1.995E+08 1.995E+08 2.647E+00 4.875E+00 9.447E+01 2.405E+01 1.234E+02 1.260E+02 7.013E+06 17.7231 1.00000
  2.239E+08 2.239E+08 2.660E+00 5.505E+00 1.061E+02 2.746E+01 1.391E+02 1.417E+02 7.195E+06 17.9533 1.00000
  2.512E+08 2.512E+08 2.672E+00 6.214E+00 1.192E+02 3.136E+01 1.567E+02 1.594E+02 7.378E+06 18.1836 1.00000
  2.818E+08 2.818E+08 2.684E+00 7.013E+00 1.338E+02 3.581E+01 1.766E+02 1.793E+02 7.559E+06 18.4138 1.00000
  3.162E+08 3.162E+08 2.696E+00 7.913E+00 1.503E+02 4.089E+01 1.991E+02 2.018E+02 7.740E+06 18.6441 1.00000
  3.548E+08 3.548E+08 2.708E+00 8.926E+00 1.687E+02 4.670E+01 2.243E+02 2.271E+02 7.921E+06 18.8744 1.00000
  3.981E+08 3.981E+08 2.721E+00 1.007E+01 1.894E+02 5.335E+01 2.528E+02 2.556E+02 8.101E+06 19.1046 1.00000
  4.467E+08 4.467E+08 2.733E+00 1.135E+01 2.127E+02 6.093E+01 2.850E+02 2.877E+02 8.280E+06 19.3349 1.00000
  5.012E+08 5.012E+08 2.745E+00 1.279E+01 2.388E+02 6.961E+01 3.212E+02 3.239E+02 8.459E+06 19.5651 1.00000
  5.623E+08 5.623E+08 2.758E+00 1.442E+01 2.680E+02 7.952E+01 3.620E+02 3.647E+02 8.637E+06 19.7954 1.00000
  6.310E+08 6.310E+08 2.770E+00 1.624E+01 3.009E+02 9.085E+01 4.080E+02 4.107E+02 8.815E+06 20.0256 1.00000
  7.079E+08 7.079E+08 2.783E+00 1.830E+01 3.377E+02 1.038E+02 4.598E+02 4.626E+02 8.992E+06 20.2559 1.00000
  7.943E+08 7.943E+08 2.796E+00 2.061E+01 3.791E+02 1.186E+02 5.183E+02 5.211E+02 9.168E+06 20.4862 1.00000
  8.913E+08 8.913E+08 2.808E+00 2.320E+01 4.255E+02 1.355E+02 5.842E+02 5.870E+02 9.344E+06 20.7164 1.00000
  1.000E+09 1.000E+09 2.821E+00 2.612E+01 4.775E+02 1.549E+02 6.585E+02 6.613E+02 9.519E+06 20.9467 1.00000
  1.122E+09 1.122E+09 2.834E+00 2.940E+01 5.360E+02 1.770E+02 7.423E+02 7.452E+02 9.693E+06 21.1769 1.00000
  1.259E+09 1.259E+09 2.847E+00 3.309E+01 6.015E+02 2.023E+02 8.369E+02 8.397E+02 9.866E+06 21.4072 1.00000
  1.413E+09 1.413E+09 2.860E+00 3.723E+01 6.751E+02 2.312E+02 9.435E+02 9.463E+02 1.004E+07 21.6374 1.00000
  1.585E+09 1.585E+09 2.873E+00 4.188E+01 7.576E+02 2.642E+02 1.064E+03 1.067E+03 1.021E+07 21.8677 1.00000
  1.778E+09 1.778E+09 2.886E+00 4.711E+01 8.502E+02 3.021E+02 1.199E+03 1.202E+03 1.038E+07 22.0980 1.00000
  1.995E+09 1.995E+09 2.900E+00 5.298E+01 9.541E+02 3.453E+02 1.352E+03 1.355E+03 1.055E+07 22.3282 1.00000
  2.239E+09 2.239E+09 2.913E+00 5.957E+01 1.071E+03 3.947E+02 1.525E+03 1.528E+03 1.072E+07 22.5585 1.00000
  2.512E+09 2.512E+09 2.926E+00 6.698E+01 1.202E+03 4.513E+02 1.720E+03 1.723E+03 1.089E+07 22.7887 1.00000
  2.818E+09 2.818E+09 2.940E+00 7.529E+01 1.348E+03 5.160E+02 1.940E+03 1.942E+03 1.106E+07 23.0190 1.00000
  3.162E+09 3.162E+09 2.953E+00 8.463E+01 1.513E+03 5.899E+02 2.188E+03 2.190E+03 1.123E+07 23.2493 1.00000
  3.548E+09 3.548E+09 2.967E+00 9.512E+01 1.698E+03 6.746E+02 2.467E+03 2.470E+03 1.139E+07 23.4795 1.00000
  3.981E+09 3.981E+09 2.981E+00 1.069E+02 1.905E+03 7.714E+02 2.783E+03 2.786E+03 1.156E+07 23.7098 1.00000
  4.467E+09 4.467E+09 2.994E+00 1.201E+02 2.138E+03 8.821E+02 3.140E+03 3.143E+03 1.172E+07 23.9400 1.00000
  5.012E+09 5.012E+09 3.008E+00 1.349E+02 2.399E+03 1.009E+03 3.542E+03 3.545E+03 1.188E+07 24.1703 1.00000
  5.623E+09 5.623E+09 3.022E+00 1.516E+02 2.692E+03 1.154E+03 3.997E+03 4.000E+03 1.205E+07 24.4005 1.00000
  6.310E+09 6.310E+09 3.036E+00 1.703E+02 3.020E+03 1.320E+03 4.510E+03 4.513E+03 1.221E+07 24.6308 1.00000
  7.079E+09 7.079E+09 3.050E+00 1.913E+02 3.389E+03 1.509E+03 5.090E+03 5.093E+03 1.237E+07 24.8611 1.00000
  7.943E+09 7.943E+09 3.064E+00 2.149E+02 3.803E+03 1.726E+03 5.744E+03 5.747E+03 1.253E+07 25.0913 1.00000
  8.913E+09 8.913E+09 3.079E+00 2.413E+02 4.267E+03 1.975E+03 6.483E+03 6.486E+03 1.269E+07 25.3216 1.00000
  1.000E+10 1.000E+10 3.093E+00 2.710E+02 4.787E+03 2.259E+03 7.318E+03 7.321E+03 1.285E+07 25.5518 1.00000
  1.122E+10 1.122E+10 3.107E+00 3.043E+02 5.372E+03 2.585E+03 8.261E+03 8.264E+03 1.300E+07 25.7821 1.00000
  1.259E+10 1.259E+10 3.122E+00 3.417E+02 6.027E+03 2.957E+03 9.326E+03 9.329E+03 1.316E+07 26.0124 1.00000
  1.413E+10 1.413E+10 3.136E+00 3.836E+02 6.763E+03 3.384E+03 1.053E+04 1.053E+04 1.332E+07 26.2426 1.00000
  1.585E+10 1.585E+10 3.151E+00 4.307E+02 7.588E+03 3.872E+03 1.189E+04 1.189E+04 1.347E+07 26.4729 1.00000
  1.778E+10 1.778E+10 3.166E+00 4.836E+02 8.514E+03 4.430E+03 1.343E+04 1.343E+04 1.362E+07 26.7031 1.00000
  1.995E+10 1.995E+10 3.180E+00 5.429E+02 9.553E+03 5.070E+03 1.517E+04 1.517E+04 1.378E+07 26.9334 1.00000
  2.239E+10 2.239E+10 3.195E+00 6.094E+02 1.072E+04 5.802E+03 1.713E+04 1.713E+04 1.393E+07 27.1637 1.00000
  2.512E+10 2.512E+10 3.210E+00 6.841E+02 1.203E+04 6.640E+03 1.935E+04 1.935E+04 1.408E+07 27.3939 1.00000
  2.818E+10 2.818E+10 3.225E+00 7.679E+02 1.349E+04 7.600E+03 2.186E+04 2.186E+04 1.423E+07 27.6242 1.00000
  3.162E+10 3.162E+10 3.240E+00 8.619E+02 1.514E+04 8.699E+03 2.470E+04 2.470E+04 1.437E+07 27.8544 1.00000
  3.548E+10 3.548E+10 3.256E+00 9.674E+02 1.699E+04 9.957E+03 2.791E+04 2.792E+04 1.452E+07 28.0847 1.00000
  3.981E+10 3.981E+10 3.271E+00 1.086E+03 1.906E+04 1.140E+04 3.154E+04 3.155E+04 1.467E+07 28.3149 1.00000
  4.467E+10 4.467E+10 3.286E+00 1.219E+03 2.139E+04 1.305E+04 3.565E+04 3.566E+04 1.481E+07 28.5452 1.00000
  5.012E+10 5.012E+10 3.302E+00 1.368E+03 2.400E+04 1.494E+04 4.030E+04 4.030E+04 1.496E+07 28.7755 1.00000
  5.623E+10 5.623E+10 3.317E+00 1.535E+03 2.692E+04 1.710E+04 4.556E+04 4.556E+04 1.510E+07 29.0057 1.00000
  6.310E+10 6.310E+10 3.333E+00 1.723E+03 3.021E+04 1.958E+04 5.151E+04 5.151E+04 1.524E+07 29.2360 1.00000
  7.079E+10 7.079E+10 3.349E+00 1.933E+03 3.389E+04 2.242E+04 5.825E+04 5.825E+04 1.538E+07 29.4662 1.00000
  7.943E+10 7.943E+10 3.365E+00 2.170E+03 3.803E+04 2.567E+04 6.587E+04 6.587E+04 1.552E+07 29.6965 1.00000
  8.913E+10 8.913E+10 3.381E+00 2.435E+03 4.267E+04 2.940E+04 7.450E+04 7.450E+04 1.566E+07 29.9268 1.00000
  1.000E+11 1.000E+11 3.397E+00 2.733E+03 4.787E+04 3.367E+04 8.427E+04 8.427E+04 1.580E+07 30.1570 1.00000
  1.122E+11 1.122E+11 3.413E+00 3.066E+03 5.371E+04 3.856E+04 9.533E+04 9.534E+04 1.594E+07 30.3873 1.00000
  1.259E+11 1.259E+11 3.429E+00 3.441E+03 6.026E+04 4.416E+04 1.079E+05 1.079E+05 1.607E+07 30.6175 1.00000
  1.413E+11 1.413E+11 3.445E+00 3.861E+03 6.762E+04 5.058E+04 1.221E+05 1.221E+05 1.620E+07 30.8478 1.00000
  1.585E+11 1.585E+11 3.462E+00 4.333E+03 7.586E+04 5.793E+04 1.381E+05 1.381E+05 1.634E+07 31.0780 1.00000
  1.778E+11 1.778E+11 3.478E+00 4.862E+03 8.512E+04 6.636E+04 1.563E+05 1.563E+05 1.647E+07 31.3083 1.00000
  1.995E+11 1.995E+11 3.495E+00 5.456E+03 9.550E+04 7.602E+04 1.770E+05 1.770E+05 1.660E+07 31.5386 1.00000
  2.239E+11 2.239E+11 3.511E+00 6.122E+03 1.072E+05 8.709E+04 2.004E+05 2.004E+05 1.673E+07 31.7688 1.00000
  2.512E+11 2.512E+11 3.528E+00 6.870E+03 1.202E+05 9.977E+04 2.269E+05 2.269E+05 1.686E+07 31.9991 1.00000
  2.818E+11 2.818E+11 3.545E+00 7.708E+03 1.349E+05 1.143E+05 2.569E+05 2.569E+05 1.699E+07 32.2293 1.00000
  3.162E+11 3.162E+11 3.562E+00 8.650E+03 1.513E+05 1.310E+05 2.910E+05 2.910E+05 1.711E+07 32.4596 1.00000
  3.548E+11 3.548E+11 3.579E+00 9.706E+03 1.698E+05 1.501E+05 3.296E+05 3.296E+05 1.724E+07 32.6899 1.00000
  3.981E+11 3.981E+11 3.596E+00 1.089E+04 1.905E+05 1.720E+05 3.734E+05 3.734E+05 1.736E+07 32.9201 1.00000
  4.467E+11 4.467E+11 3.613E+00 1.222E+04 2.138E+05 1.971E+05 4.230E+05 4.231E+05 1.748E+07 33.1504 1.00000
  5.012E+11 5.012E+11 3.630E+00 1.371E+04 2.398E+05 2.258E+05 4.794E+05 4.794E+05 1.760E+07 33.3806 1.00000
  5.623E+11 5.623E+11 3.648E+00 1.538E+04 2.691E+05 2.588E+05 5.433E+05 5.433E+05 1.772E+07 33.6109 1.00000
  6.310E+11 6.310E+11 3.665E+00 1.726E+04 3.019E+05 2.967E+05 6.158E+05 6.158E+05 1.784E+07 33.8411 1.00000
  7.079E+11 7.079E+11 3.683E+00 1.937E+04 3.387E+05 3.400E+05 6.981E+05 6.981E+05 1.796E+07 34.0714 1.00000
  7.943E+11 7.943E+11 3.701E+00 2.173E+04 3.801E+05 3.898E+05 7.915E+05 7.916E+05 1.808E+07 34.3017 1.00000
  8.913E+11 8.913E+11 3.719E+00 2.439E+04 4.264E+05 4.468E+05 8.976E+05 8.976E+05 1.819E+07 34.5319 1.00000
  1.000E+12 1.000E+12 3.736E+00 2.736E+04 4.784E+05 5.122E+05 1.018E+06 1.018E+06 1.831E+07 34.7622 1.00000
  1.122E+12 1.122E+12 3.754E+00 3.070E+04 5.368E+05 5.872E+05 1.155E+06 1.155E+06 1.842E+07 34.9924 1.00000
  1.259E+12 1.259E+12 3.773E+00 3.445E+04 6.023E+05 6.732E+05 1.310E+06 1.310E+06 1.853E+07 35.2227 1.00000
  1.413E+12 1.413E+12 3.791E+00 3.865E+04 6.757E+05 7.718E+05 1.486E+06 1.486E+06 1.864E+07 35.4530 1.00000
  1.585E+12 1.585E+12 3.809E+00 4.337E+04 7.581E+05 8.850E+05 1.687E+06 1.687E+06 1.875E+07 35.6832 1.00000
  1.778E+12 1.778E+12 3.827E+00 4.866E+04 8.506E+05 1.015E+06 1.914E+06 1.914E+06 1.886E+07 35.9135 1.00000
  1.995E+12 1.995E+12 3.846E+00 5.460E+04 9.544E+05 1.164E+06 2.173E+06 2.173E+06 1.896E+07 36.1437 1.00000
  2.239E+12 2.239E+12 3.865E+00 6.126E+04 1.071E+06 1.334E+06 2.467E+06 2.467E+06 1.907E+07 36.3740 1.00000
  2.512E+12 2.512E+12 3.883E+00 6.874E+04 1.201E+06 1.530E+06 2.801E+06 2.801E+06 1.917E+07 36.6042 1.00000
  2.818E+12 2.818E+12 3.902E+00 7.713E+04 1.348E+06 1.755E+06 3.180E+06 3.180E+06 1.928E+07 36.8345 1.00000
  3.162E+12 3.162E+12 3.921E+00 8.654E+04 1.512E+06 2.013E+06 3.612E+06 3.612E+06 1.938E+07 37.0648 1.00000
  3.548E+12 3.548E+12 3.940E+00 9.710E+04 1.697E+06 2.309E+06 4.103E+06 4.103E+06 1.948E+07 37.2950 1.00000
  3.981E+12 3.981E+12 3.959E+00 1.089E+05 1.904E+06 2.649E+06 4.661E+06 4.661E+06 1.958E+07 37.5253 1.00000
  4.467E+12 4.467E+12 3.978E+00 1.222E+05 2.136E+06 3.038E+06 5.297E+06 5.297E+06 1.968E+07 37.7555 1.00000
  5.012E+12 5.012E+12 3.998E+00 1.372E+05 2.396E+06 3.486E+06 6.019E+06 6.019E+06 1.977E+07 37.9858 1.00000
  5.623E+12 5.623E+12 4.017E+00 1.539E+05 2.689E+06 3.999E+06 6.841E+06 6.841E+06 1.987E+07 38.2161 1.00000
  6.310E+12 6.310E+12 4.037E+00 1.727E+05 3.017E+06 4.588E+06 7.777E+06 7.777E+06 1.996E+07 38.4463 1.00000
  7.079E+12 7.079E+12 4.056E+00 1.937E+05 3.385E+06 5.264E+06 8.842E+06 8.842E+06 2.005E+07 38.6766 1.00000
  7.943E+12 7.943E+12 4.076E+00 2.174E+05 3.797E+06 6.040E+06 1.005E+07 1.005E+07 2.015E+07 38.9068 1.00000
  8.913E+12 8.913E+12 4.096E+00 2.439E+05 4.261E+06 6.930E+06 1.143E+07 1.143E+07 2.024E+07 39.1371 1.00000
  1.000E+13 1.000E+13 4.116E+00 2.737E+05 4.780E+06 7.953E+06 1.301E+07 1.301E+07 2.033E+07 39.3674 1.00000
  1.122E+13 1.122E+13 4.136E+00 3.071E+05 5.363E+06 9.126E+06 1.480E+07 1.480E+07 2.041E+07 39.5976 1.00000
  1.259E+13 1.259E+13 4.156E+00 3.445E+05 6.017E+06 1.047E+07 1.684E+07 1.684E+07 2.050E+07 39.8279 1.00000
  1.413E+13 1.413E+13 4.177E+00 3.866E+05 6.751E+06 1.202E+07 1.916E+07 1.916E+07 2.059E+07 40.0581 1.00000
  1.585E+13 1.585E+13 4.197E+00 4.337E+05 7.574E+06 1.380E+07 2.180E+07 2.180E+07 2.067E+07 40.2884 1.00000
  1.778E+13 1.778E+13 4.218E+00 4.867E+05 8.498E+06 1.584E+07 2.482E+07 2.482E+07 2.076E+07 40.5186 1.00000
  1.995E+13 1.995E+13 4.238E+00 5.461E+05 9.535E+06 1.818E+07 2.826E+07 2.826E+07 2.084E+07 40.7489 1.00000
  2.239E+13 2.239E+13 4.259E+00 6.127E+05 1.070E+07 2.087E+07 3.218E+07 3.218E+07 2.092E+07 40.9792 1.00000
  2.512E+13 2.512E+13 4.280E+00 6.874E+05 1.200E+07 2.395E+07 3.664E+07 3.664E+07 2.100E+07 41.2094 1.00000
  2.818E+13 2.818E+13 4.301E+00 7.713E+05 1.347E+07 2.750E+07 4.174E+07 4.174E+07 2.108E+07 41.4397 1.00000
  3.162E+13 3.162E+13 4.322E+00 8.654E+05 1.511E+07 3.157E+07 4.754E+07 4.754E+07 2.115E+07 41.6699 1.00000
  3.548E+13 3.548E+13 4.343E+00 9.710E+05 1.695E+07 3.625E+07 5.417E+07 5.417E+07 2.123E+07 41.9002 1.00000
  3.981E+13 3.981E+13 4.365E+00 1.090E+06 1.902E+07 4.162E+07 6.172E+07 6.172E+07 2.131E+07 42.1305 1.00000
  4.467E+13 4.467E+13 4.386E+00 1.222E+06 2.134E+07 4.779E+07 7.035E+07 7.035E+07 2.138E+07 42.3607 1.00000
  5.012E+13 5.012E+13 4.408E+00 1.372E+06 2.394E+07 5.487E+07 8.018E+07 8.018E+07 2.145E+07 42.5910 1.00000
  5.623E+13 5.623E+13 4.429E+00 1.539E+06 2.686E+07 6.301E+07 9.141E+07 9.141E+07 2.152E+07 42.8212 1.00000
  6.310E+13 6.310E+13 4.451E+00 1.727E+06 3.013E+07 7.236E+07 1.042E+08 1.042E+08 2.159E+07 43.0515 1.00000
  7.079E+13 7.079E+13 4.473E+00 1.937E+06 3.381E+07 8.310E+07 1.189E+08 1.189E+08 2.166E+07 43.2817 1.00000
  7.943E+13 7.943E+13 4.495E+00 2.174E+06 3.793E+07 9.545E+07 1.356E+08 1.356E+08 2.173E+07 43.5120 1.00000
  8.913E+13 8.913E+13 4.517E+00 2.439E+06 4.256E+07 1.096E+08 1.546E+08 1.546E+08 2.180E+07 43.7423 1.00000
