 Incident particle is a Tau with M = 1776.82000 MeV
 Index = 0: GadoliniumSilicate
      Absorber with <Z/A> = 0.43068
 Sternheimer coef:  a     k=m_s   x_0    x_1    I[eV]   Cbar  delta0
                 0.1961  3.0000  0.2039  3.0000  405.4  5.2267 0.00

 *** Table generated with PUMAS v1.00 ***

      T         p     Ionization  brems     pair     photonuc  Radloss    dE/dx   CSDA Range  delta   beta
    [MeV]    [MeV/c]  -----------------------[MeV cm^2/g]------------------------  [g/cm^2]
  1.000E+05 1.018E+05 1.769E+00 6.847E-04 1.190E-02 7.775E-03 2.036E-02 1.789E+00 2.794E+04  3.2447 0.99985
  1.122E+05 1.140E+05 1.787E+00 7.936E-04 1.425E-02 8.742E-03 2.379E-02 1.811E+00 3.472E+04  3.4283 0.99988
  1.259E+05 1.277E+05 1.805E+00 9.193E-04 1.702E-02 9.778E-03 2.772E-02 1.833E+00 4.223E+04  3.6156 0.99990
  1.413E+05 1.430E+05 1.823E+00 1.064E-03 2.027E-02 1.094E-02 3.228E-02 1.856E+00 5.056E+04  3.8065 0.99992
  1.585E+05 1.603E+05 1.841E+00 1.231E-03 2.409E-02 1.223E-02 3.755E-02 1.879E+00 5.979E+04  4.0009 0.99994
  1.778E+05 1.796E+05 1.859E+00 1.424E-03 2.854E-02 1.367E-02 4.364E-02 1.902E+00 7.002E+04  4.1984 0.99995
  1.995E+05 2.013E+05 1.876E+00 1.645E-03 3.374E-02 1.531E-02 5.070E-02 1.927E+00 8.136E+04  4.3991 0.99996
  2.239E+05 2.256E+05 1.893E+00 1.901E-03 3.980E-02 1.709E-02 5.879E-02 1.952E+00 9.391E+04  4.6027 0.99997
  2.512E+05 2.530E+05 1.911E+00 2.194E-03 4.684E-02 1.907E-02 6.811E-02 1.979E+00 1.078E+05  4.8091 0.99998
  2.818E+05 2.836E+05 1.928E+00 2.531E-03 5.501E-02 2.130E-02 7.885E-02 2.006E+00 1.232E+05  5.0181 0.99998
  3.162E+05 3.180E+05 1.944E+00 2.919E-03 6.448E-02 2.381E-02 9.121E-02 2.036E+00 1.402E+05  5.2296 0.99998
  3.548E+05 3.566E+05 1.961E+00 3.364E-03 7.542E-02 2.662E-02 1.054E-01 2.066E+00 1.590E+05  5.4433 0.99999
  3.981E+05 3.999E+05 1.978E+00 3.875E-03 8.806E-02 2.975E-02 1.217E-01 2.099E+00 1.798E+05  5.6593 0.99999
  4.467E+05 4.485E+05 1.994E+00 4.461E-03 1.026E-01 3.325E-02 1.403E-01 2.134E+00 2.028E+05  5.8772 0.99999
  5.012E+05 5.030E+05 2.010E+00 5.133E-03 1.194E-01 3.717E-02 1.617E-01 2.172E+00 2.281E+05  6.0970 0.99999
  5.623E+05 5.641E+05 2.026E+00 5.904E-03 1.387E-01 4.140E-02 1.860E-01 2.212E+00 2.560E+05  6.3184 1.00000
  6.310E+05 6.327E+05 2.042E+00 6.787E-03 1.608E-01 4.616E-02 2.137E-01 2.256E+00 2.867E+05  6.5414 1.00000
  7.079E+05 7.097E+05 2.058E+00 7.798E-03 1.862E-01 5.152E-02 2.455E-01 2.304E+00 3.205E+05  6.7658 1.00000
  7.943E+05 7.961E+05 2.074E+00 8.955E-03 2.152E-01 5.756E-02 2.817E-01 2.355E+00 3.576E+05  6.9914 1.00000
  8.913E+05 8.930E+05 2.089E+00 1.028E-02 2.485E-01 6.437E-02 3.231E-01 2.412E+00 3.982E+05  7.2181 1.00000
  1.000E+06 1.002E+06 2.105E+00 1.179E-02 2.865E-01 7.206E-02 3.703E-01 2.475E+00 4.427E+05  7.4457 1.00000
  1.122E+06 1.124E+06 2.120E+00 1.353E-02 3.298E-01 8.075E-02 4.241E-01 2.544E+00 4.914E+05  7.6741 1.00000
  1.259E+06 1.261E+06 2.135E+00 1.551E-02 3.792E-01 9.058E-02 4.853E-01 2.620E+00 5.444E+05  7.9031 1.00000
  1.413E+06 1.414E+06 2.150E+00 1.777E-02 4.355E-01 1.017E-01 5.549E-01 2.705E+00 6.021E+05  8.1326 1.00000
  1.585E+06 1.587E+06 2.165E+00 2.035E-02 4.995E-01 1.143E-01 6.342E-01 2.799E+00 6.647E+05  8.3625 1.00000
  1.778E+06 1.780E+06 2.180E+00 2.330E-02 5.723E-01 1.286E-01 7.242E-01 2.904E+00 7.326E+05  8.5924 1.00000
  1.995E+06 1.997E+06 2.195E+00 2.667E-02 6.549E-01 1.448E-01 8.264E-01 3.021E+00 8.058E+05  8.8225 1.00000
  2.239E+06 2.240E+06 2.209E+00 3.051E-02 7.487E-01 1.631E-01 9.424E-01 3.152E+00 8.848E+05  9.0526 1.00000
  2.512E+06 2.514E+06 2.224E+00 3.490E-02 8.551E-01 1.840E-01 1.074E+00 3.298E+00 9.695E+05  9.2826 1.00000
  2.818E+06 2.820E+06 2.238E+00 3.989E-02 9.756E-01 2.077E-01 1.223E+00 3.461E+00 1.060E+06  9.5127 1.00000
  3.162E+06 3.164E+06 2.252E+00 4.559E-02 1.112E+00 2.346E-01 1.392E+00 3.645E+00 1.157E+06  9.7429 1.00000
  3.548E+06 3.550E+06 2.266E+00 5.208E-02 1.266E+00 2.652E-01 1.584E+00 3.850E+00 1.260E+06  9.9730 1.00000
  3.981E+06 3.983E+06 2.280E+00 5.947E-02 1.441E+00 3.000E-01 1.800E+00 4.081E+00 1.369E+06 10.2032 1.00000
  4.467E+06 4.469E+06 2.294E+00 6.788E-02 1.638E+00 3.396E-01 2.046E+00 4.340E+00 1.485E+06 10.4333 1.00000
  5.012E+06 5.014E+06 2.308E+00 7.746E-02 1.861E+00 3.847E-01 2.323E+00 4.631E+00 1.607E+06 10.6635 1.00000
  5.623E+06 5.625E+06 2.321E+00 8.836E-02 2.113E+00 4.360E-01 2.637E+00 4.958E+00 1.734E+06 10.8937 1.00000
  6.310E+06 6.311E+06 2.335E+00 1.008E-01 2.396E+00 4.943E-01 2.991E+00 5.326E+00 1.868E+06 11.1239 1.00000
  7.079E+06 7.081E+06 2.348E+00 1.149E-01 2.716E+00 5.608E-01 3.392E+00 5.740E+00 2.007E+06 11.3541 1.00000
  7.943E+06 7.945E+06 2.361E+00 1.309E-01 3.077E+00 6.366E-01 3.845E+00 6.206E+00 2.152E+06 11.5843 1.00000
  8.913E+06 8.914E+06 2.374E+00 1.491E-01 3.484E+00 7.229E-01 4.356E+00 6.730E+00 2.302E+06 11.8145 1.00000
  1.000E+07 1.000E+07 2.387E+00 1.698E-01 3.942E+00 8.212E-01 4.933E+00 7.320E+00 2.457E+06 12.0447 1.00000
  1.122E+07 1.122E+07 2.400E+00 1.933E-01 4.458E+00 9.333E-01 5.584E+00 7.984E+00 2.617E+06 12.2749 1.00000
  1.259E+07 1.259E+07 2.413E+00 2.200E-01 5.038E+00 1.061E+00 6.319E+00 8.732E+00 2.781E+06 12.5051 1.00000
  1.413E+07 1.413E+07 2.425E+00 2.502E-01 5.692E+00 1.207E+00 7.149E+00 9.574E+00 2.949E+06 12.7354 1.00000
  1.585E+07 1.585E+07 2.438E+00 2.846E-01 6.427E+00 1.373E+00 8.084E+00 1.052E+01 3.121E+06 12.9656 1.00000
  1.778E+07 1.778E+07 2.450E+00 3.235E-01 7.254E+00 1.562E+00 9.140E+00 1.159E+01 3.296E+06 13.1958 1.00000
  1.995E+07 1.995E+07 2.462E+00 3.677E-01 8.184E+00 1.778E+00 1.033E+01 1.279E+01 3.475E+06 13.4261 1.00000
  2.239E+07 2.239E+07 2.474E+00 4.178E-01 9.230E+00 2.025E+00 1.167E+01 1.415E+01 3.656E+06 13.6563 1.00000
  2.512E+07 2.512E+07 2.487E+00 4.745E-01 1.041E+01 2.306E+00 1.319E+01 1.567E+01 3.840E+06 13.8865 1.00000
  2.818E+07 2.819E+07 2.499E+00 5.388E-01 1.173E+01 2.627E+00 1.489E+01 1.739E+01 4.026E+06 14.1168 1.00000
  3.162E+07 3.162E+07 2.511E+00 6.116E-01 1.321E+01 2.993E+00 1.682E+01 1.933E+01 4.214E+06 14.3470 1.00000
  3.548E+07 3.548E+07 2.523E+00 6.939E-01 1.488E+01 3.411E+00 1.899E+01 2.151E+01 4.403E+06 14.5773 1.00000
  3.981E+07 3.981E+07 2.535E+00 7.872E-01 1.675E+01 3.888E+00 2.143E+01 2.396E+01 4.594E+06 14.8075 1.00000
  4.467E+07 4.467E+07 2.547E+00 8.926E-01 1.886E+01 4.432E+00 2.419E+01 2.673E+01 4.786E+06 15.0378 1.00000
  5.012E+07 5.012E+07 2.559E+00 1.012E+00 2.123E+01 5.054E+00 2.729E+01 2.985E+01 4.979E+06 15.2680 1.00000
  5.623E+07 5.624E+07 2.571E+00 1.147E+00 2.388E+01 5.763E+00 3.079E+01 3.336E+01 5.174E+06 15.4983 1.00000
  6.310E+07 6.310E+07 2.583E+00 1.299E+00 2.687E+01 6.573E+00 3.474E+01 3.732E+01 5.368E+06 15.7285 1.00000
  7.079E+07 7.080E+07 2.595E+00 1.471E+00 3.022E+01 7.497E+00 3.918E+01 4.178E+01 5.564E+06 15.9588 1.00000
  7.943E+07 7.943E+07 2.607E+00 1.666E+00 3.398E+01 8.553E+00 4.420E+01 4.680E+01 5.759E+06 16.1890 1.00000
  8.913E+07 8.913E+07 2.619E+00 1.886E+00 3.820E+01 9.758E+00 4.984E+01 5.246E+01 5.955E+06 16.4193 1.00000
  1.000E+08 1.000E+08 2.631E+00 2.134E+00 4.294E+01 1.113E+01 5.621E+01 5.884E+01 6.151E+06 16.6495 1.00000
  1.122E+08 1.122E+08 2.643E+00 2.414E+00 4.826E+01 1.271E+01 6.338E+01 6.603E+01 6.347E+06 16.8798 1.00000
  1.259E+08 1.259E+08 2.655E+00 2.729E+00 5.424E+01 1.450E+01 7.147E+01 7.412E+01 6.543E+06 17.1100 1.00000
  1.413E+08 1.413E+08 2.667E+00 3.086E+00 6.094E+01 1.655E+01 8.058E+01 8.325E+01 6.739E+06 17.3403 1.00000
  1.585E+08 1.585E+08 2.679E+00 3.488E+00 6.847E+01 1.889E+01 9.085E+01 9.353E+01 6.935E+06 17.5706 1.00000
  1.778E+08 1.778E+08 2.691E+00 3.941E+00 7.692E+01 2.157E+01 1.024E+02 1.051E+02 7.130E+06 17.8008 1.00000
  1.995E+08 1.995E+08 2.703E+00 4.451E+00 8.640E+01 2.463E+01 1.155E+02 1.182E+02 7.325E+06 18.0311 1.00000
  2.239E+08 2.239E+08 2.716E+00 5.026E+00 9.705E+01 2.812E+01 1.302E+02 1.329E+02 7.520E+06 18.2613 1.00000
  2.512E+08 2.512E+08 2.728E+00 5.675E+00 1.090E+02 3.211E+01 1.468E+02 1.495E+02 7.714E+06 18.4916 1.00000
  2.818E+08 2.818E+08 2.740E+00 6.405E+00 1.224E+02 3.666E+01 1.655E+02 1.682E+02 7.908E+06 18.7218 1.00000
  3.162E+08 3.162E+08 2.753E+00 7.227E+00 1.374E+02 4.187E+01 1.865E+02 1.893E+02 8.101E+06 18.9521 1.00000
  3.548E+08 3.548E+08 2.765E+00 8.152E+00 1.543E+02 4.782E+01 2.103E+02 2.131E+02 8.293E+06 19.1824 1.00000
  3.981E+08 3.981E+08 2.778E+00 9.194E+00 1.733E+02 5.462E+01 2.371E+02 2.399E+02 8.485E+06 19.4126 1.00000
  4.467E+08 4.467E+08 2.790E+00 1.037E+01 1.945E+02 6.239E+01 2.673E+02 2.701E+02 8.676E+06 19.6429 1.00000
  5.012E+08 5.012E+08 2.803E+00 1.169E+01 2.184E+02 7.127E+01 3.013E+02 3.041E+02 8.867E+06 19.8731 1.00000
  5.623E+08 5.623E+08 2.816E+00 1.317E+01 2.452E+02 8.142E+01 3.398E+02 3.426E+02 9.056E+06 20.1034 1.00000
  6.310E+08 6.310E+08 2.829E+00 1.484E+01 2.752E+02 9.302E+01 3.831E+02 3.859E+02 9.246E+06 20.3336 1.00000
  7.079E+08 7.079E+08 2.842E+00 1.671E+01 3.089E+02 1.063E+02 4.319E+02 4.348E+02 9.434E+06 20.5639 1.00000
  7.943E+08 7.943E+08 2.854E+00 1.883E+01 3.467E+02 1.214E+02 4.870E+02 4.899E+02 9.621E+06 20.7942 1.00000
  8.913E+08 8.913E+08 2.867E+00 2.120E+01 3.892E+02 1.388E+02 5.492E+02 5.520E+02 9.808E+06 21.0244 1.00000
  1.000E+09 1.000E+09 2.881E+00 2.386E+01 4.368E+02 1.586E+02 6.193E+02 6.221E+02 9.994E+06 21.2547 1.00000
  1.122E+09 1.122E+09 2.894E+00 2.686E+01 4.903E+02 1.812E+02 6.983E+02 7.012E+02 1.018E+07 21.4849 1.00000
  1.259E+09 1.259E+09 2.907E+00 3.023E+01 5.502E+02 2.071E+02 7.876E+02 7.905E+02 1.036E+07 21.7152 1.00000
  1.413E+09 1.413E+09 2.920E+00 3.402E+01 6.175E+02 2.367E+02 8.882E+02 8.912E+02 1.055E+07 21.9454 1.00000
  1.585E+09 1.585E+09 2.933E+00 3.827E+01 6.930E+02 2.706E+02 1.002E+03 1.005E+03 1.073E+07 22.1757 1.00000
  1.778E+09 1.778E+09 2.947E+00 4.305E+01 7.777E+02 3.093E+02 1.130E+03 1.133E+03 1.091E+07 22.4060 1.00000
  1.995E+09 1.995E+09 2.960E+00 4.841E+01 8.728E+02 3.535E+02 1.275E+03 1.278E+03 1.109E+07 22.6362 1.00000
  2.239E+09 2.239E+09 2.974E+00 5.444E+01 9.794E+02 4.042E+02 1.438E+03 1.441E+03 1.127E+07 22.8665 1.00000
  2.512E+09 2.512E+09 2.988E+00 6.121E+01 1.099E+03 4.621E+02 1.622E+03 1.625E+03 1.145E+07 23.0967 1.00000
  2.818E+09 2.818E+09 3.001E+00 6.881E+01 1.233E+03 5.283E+02 1.830E+03 1.833E+03 1.163E+07 23.3270 1.00000
  3.162E+09 3.162E+09 3.015E+00 7.735E+01 1.384E+03 6.041E+02 2.065E+03 2.068E+03 1.180E+07 23.5573 1.00000
  3.548E+09 3.548E+09 3.029E+00 8.694E+01 1.553E+03 6.907E+02 2.331E+03 2.334E+03 1.198E+07 23.7875 1.00000
  3.981E+09 3.981E+09 3.043E+00 9.770E+01 1.743E+03 7.898E+02 2.630E+03 2.633E+03 1.216E+07 24.0178 1.00000
  4.467E+09 4.467E+09 3.057E+00 1.098E+02 1.956E+03 9.032E+02 2.969E+03 2.972E+03 1.233E+07 24.2480 1.00000
  5.012E+09 5.012E+09 3.071E+00 1.234E+02 2.194E+03 1.033E+03 3.351E+03 3.354E+03 1.250E+07 24.4783 1.00000
  5.623E+09 5.623E+09 3.085E+00 1.386E+02 2.462E+03 1.181E+03 3.782E+03 3.785E+03 1.267E+07 24.7085 1.00000
  6.310E+09 6.310E+09 3.099E+00 1.557E+02 2.763E+03 1.351E+03 4.270E+03 4.273E+03 1.285E+07 24.9388 1.00000
  7.079E+09 7.079E+09 3.114E+00 1.749E+02 3.100E+03 1.545E+03 4.820E+03 4.824E+03 1.302E+07 25.1691 1.00000
  7.943E+09 7.943E+09 3.128E+00 1.964E+02 3.478E+03 1.768E+03 5.443E+03 5.446E+03 1.318E+07 25.3993 1.00000
  8.913E+09 8.913E+09 3.143E+00 2.206E+02 3.903E+03 2.022E+03 6.146E+03 6.149E+03 1.335E+07 25.6296 1.00000
  1.000E+10 1.000E+10 3.157E+00 2.477E+02 4.379E+03 2.313E+03 6.941E+03 6.944E+03 1.352E+07 25.8598 1.00000
  1.122E+10 1.122E+10 3.172E+00 2.782E+02 4.914E+03 2.647E+03 7.839E+03 7.842E+03 1.368E+07 26.0901 1.00000
  1.259E+10 1.259E+10 3.187E+00 3.124E+02 5.514E+03 3.028E+03 8.854E+03 8.857E+03 1.385E+07 26.3204 1.00000
  1.413E+10 1.413E+10 3.201E+00 3.507E+02 6.187E+03 3.465E+03 1.000E+04 1.001E+04 1.401E+07 26.5506 1.00000
  1.585E+10 1.585E+10 3.216E+00 3.938E+02 6.941E+03 3.964E+03 1.130E+04 1.130E+04 1.417E+07 26.7809 1.00000
  1.778E+10 1.778E+10 3.231E+00 4.421E+02 7.789E+03 4.536E+03 1.277E+04 1.277E+04 1.434E+07 27.0111 1.00000
  1.995E+10 1.995E+10 3.246E+00 4.963E+02 8.739E+03 5.191E+03 1.443E+04 1.443E+04 1.450E+07 27.2414 1.00000
  2.239E+10 2.239E+10 3.262E+00 5.572E+02 9.805E+03 5.941E+03 1.630E+04 1.631E+04 1.466E+07 27.4717 1.00000
  2.512E+10 2.512E+10 3.277E+00 6.255E+02 1.100E+04 6.799E+03 1.843E+04 1.843E+04 1.481E+07 27.7019 1.00000
  2.818E+10 2.818E+10 3.292E+00 7.021E+02 1.234E+04 7.782E+03 2.083E+04 2.083E+04 1.497E+07 27.9322 1.00000
  3.162E+10 3.162E+10 3.308E+00 7.881E+02 1.385E+04 8.907E+03 2.355E+04 2.355E+04 1.513E+07 28.1624 1.00000
  3.548E+10 3.548E+10 3.323E+00 8.846E+02 1.554E+04 1.020E+04 2.662E+04 2.662E+04 1.528E+07 28.3927 1.00000
  3.981E+10 3.981E+10 3.339E+00 9.928E+02 1.744E+04 1.167E+04 3.010E+04 3.010E+04 1.543E+07 28.6229 1.00000
  4.467E+10 4.467E+10 3.354E+00 1.114E+03 1.956E+04 1.336E+04 3.404E+04 3.404E+04 1.558E+07 28.8532 1.00000
  5.012E+10 5.012E+10 3.370E+00 1.251E+03 2.195E+04 1.529E+04 3.850E+04 3.850E+04 1.574E+07 29.0835 1.00000
  5.623E+10 5.623E+10 3.386E+00 1.404E+03 2.463E+04 1.751E+04 4.354E+04 4.355E+04 1.589E+07 29.3137 1.00000
  6.310E+10 6.310E+10 3.402E+00 1.575E+03 2.763E+04 2.005E+04 4.926E+04 4.926E+04 1.603E+07 29.5440 1.00000
  7.079E+10 7.079E+10 3.418E+00 1.768E+03 3.100E+04 2.296E+04 5.573E+04 5.573E+04 1.618E+07 29.7742 1.00000
  7.943E+10 7.943E+10 3.434E+00 1.984E+03 3.479E+04 2.629E+04 6.306E+04 6.306E+04 1.633E+07 30.0045 1.00000
  8.913E+10 8.913E+10 3.450E+00 2.227E+03 3.903E+04 3.010E+04 7.136E+04 7.136E+04 1.647E+07 30.2348 1.00000
  1.000E+11 1.000E+11 3.467E+00 2.499E+03 4.379E+04 3.447E+04 8.076E+04 8.077E+04 1.662E+07 30.4650 1.00000
  1.122E+11 1.122E+11 3.483E+00 2.804E+03 4.913E+04 3.948E+04 9.142E+04 9.142E+04 1.676E+07 30.6953 1.00000
  1.259E+11 1.259E+11 3.500E+00 3.147E+03 5.513E+04 4.521E+04 1.035E+05 1.035E+05 1.690E+07 30.9255 1.00000
  1.413E+11 1.413E+11 3.516E+00 3.531E+03 6.185E+04 5.179E+04 1.172E+05 1.172E+05 1.704E+07 31.1558 1.00000
  1.585E+11 1.585E+11 3.533E+00 3.962E+03 6.940E+04 5.932E+04 1.327E+05 1.327E+05 1.718E+07 31.3860 1.00000
  1.778E+11 1.778E+11 3.550E+00 4.446E+03 7.787E+04 6.795E+04 1.503E+05 1.503E+05 1.731E+07 31.6163 1.00000
  1.995E+11 1.995E+11 3.567E+00 4.989E+03 8.736E+04 7.784E+04 1.702E+05 1.702E+05 1.745E+07 31.8466 1.00000
  2.239E+11 2.239E+11 3.584E+00 5.598E+03 9.802E+04 8.917E+04 1.928E+05 1.928E+05 1.758E+07 32.0768 1.00000
  2.512E+11 2.512E+11 3.601E+00 6.282E+03 1.100E+05 1.022E+05 2.184E+05 2.184E+05 1.772E+07 32.3071 1.00000
  2.818E+11 2.818E+11 3.618E+00 7.049E+03 1.234E+05 1.170E+05 2.475E+05 2.475E+05 1.785E+07 32.5373 1.00000
  3.162E+11 3.162E+11 3.635E+00 7.910E+03 1.384E+05 1.341E+05 2.805E+05 2.805E+05 1.798E+07 32.7676 1.00000
  3.548E+11 3.548E+11 3.652E+00 8.875E+03 1.553E+05 1.537E+05 3.179E+05 3.179E+05 1.811E+07 32.9979 1.00000
  3.981E+11 3.981E+11 3.670E+00 9.959E+03 1.743E+05 1.761E+05 3.603E+05 3.603E+05 1.824E+07 33.2281 1.00000
  4.467E+11 4.467E+11 3.687E+00 1.117E+04 1.955E+05 2.018E+05 4.085E+05 4.085E+05 1.837E+07 33.4584 1.00000
  5.012E+11 5.012E+11 3.705E+00 1.254E+04 2.194E+05 2.313E+05 4.632E+05 4.632E+05 1.849E+07 33.6886 1.00000
  5.623E+11 5.623E+11 3.723E+00 1.407E+04 2.462E+05 2.650E+05 5.253E+05 5.253E+05 1.862E+07 33.9189 1.00000
  6.310E+11 6.310E+11 3.741E+00 1.579E+04 2.762E+05 3.038E+05 5.957E+05 5.957E+05 1.874E+07 34.1491 1.00000
  7.079E+11 7.079E+11 3.759E+00 1.771E+04 3.099E+05 3.482E+05 6.758E+05 6.758E+05 1.886E+07 34.3794 1.00000
  7.943E+11 7.943E+11 3.777E+00 1.987E+04 3.477E+05 3.991E+05 7.666E+05 7.666E+05 1.898E+07 34.6097 1.00000
  8.913E+11 8.913E+11 3.795E+00 2.230E+04 3.901E+05 4.575E+05 8.699E+05 8.699E+05 1.910E+07 34.8399 1.00000
  1.000E+12 1.000E+12 3.813E+00 2.502E+04 4.377E+05 5.244E+05 9.871E+05 9.871E+05 1.922E+07 35.0702 1.00000
  1.122E+12 1.122E+12 3.831E+00 2.808E+04 4.910E+05 6.012E+05 1.120E+06 1.120E+06 1.933E+07 35.3004 1.00000
  1.259E+12 1.259E+12 3.850E+00 3.150E+04 5.509E+05 6.893E+05 1.272E+06 1.272E+06 1.945E+07 35.5307 1.00000
  1.413E+12 1.413E+12 3.868E+00 3.535E+04 6.181E+05 7.903E+05 1.444E+06 1.444E+06 1.956E+07 35.7610 1.00000
  1.585E+12 1.585E+12 3.887E+00 3.966E+04 6.935E+05 9.062E+05 1.639E+06 1.639E+06 1.967E+07 35.9912 1.00000
  1.778E+12 1.778E+12 3.906E+00 4.450E+04 7.781E+05 1.039E+06 1.862E+06 1.862E+06 1.978E+07 36.2215 1.00000
  1.995E+12 1.995E+12 3.925E+00 4.993E+04 8.730E+05 1.192E+06 2.115E+06 2.115E+06 1.989E+07 36.4517 1.00000
  2.239E+12 2.239E+12 3.944E+00 5.602E+04 9.795E+05 1.366E+06 2.402E+06 2.402E+06 2.000E+07 36.6820 1.00000
  2.512E+12 2.512E+12 3.963E+00 6.286E+04 1.099E+06 1.567E+06 2.729E+06 2.729E+06 2.011E+07 36.9122 1.00000
  2.818E+12 2.818E+12 3.982E+00 7.053E+04 1.233E+06 1.797E+06 3.101E+06 3.101E+06 2.021E+07 37.1425 1.00000
  3.162E+12 3.162E+12 4.001E+00 7.914E+04 1.383E+06 2.061E+06 3.524E+06 3.524E+06 2.032E+07 37.3728 1.00000
  3.548E+12 3.548E+12 4.021E+00 8.879E+04 1.552E+06 2.364E+06 4.005E+06 4.005E+06 2.042E+07 37.6030 1.00000
  3.981E+12 3.981E+12 4.040E+00 9.963E+04 1.741E+06 2.712E+06 4.553E+06 4.553E+06 2.052E+07 37.8333 1.00000
  4.467E+12 4.467E+12 4.060E+00 1.118E+05 1.954E+06 3.111E+06 5.177E+06 5.177E+06 2.062E+07 38.0635 1.00000
  5.012E+12 5.012E+12 4.079E+00 1.254E+05 2.192E+06 3.569E+06 5.887E+06 5.887E+06 2.072E+07 38.2938 1.00000
  5.623E+12 5.623E+12 4.099E+00 1.407E+05 2.460E+06 4.095E+06 6.695E+06 6.695E+06 2.082E+07 38.5241 1.00000
  6.310E+12 6.310E+12 4.119E+00 1.579E+05 2.760E+06 4.698E+06 7.615E+06 7.615E+06 2.092E+07 38.7543 1.00000
  7.079E+12 7.079E+12 4.139E+00 1.772E+05 3.096E+06 5.390E+06 8.663E+06 8.663E+06 2.101E+07 38.9846 1.00000
  7.943E+12 7.943E+12 4.159E+00 1.988E+05 3.474E+06 6.184E+06 9.857E+06 9.857E+06 2.111E+07 39.2148 1.00000
  8.913E+12 8.913E+12 4.180E+00 2.230E+05 3.897E+06 7.096E+06 1.122E+07 1.122E+07 2.120E+07 39.4451 1.00000
  1.000E+13 1.000E+13 4.200E+00 2.503E+05 4.373E+06 8.143E+06 1.277E+07 1.277E+07 2.129E+07 39.6754 1.00000
  1.122E+13 1.122E+13 4.220E+00 2.808E+05 4.906E+06 9.345E+06 1.453E+07 1.453E+07 2.138E+07 39.9056 1.00000
  1.259E+13 1.259E+13 4.241E+00 3.151E+05 5.504E+06 1.072E+07 1.654E+07 1.654E+07 2.147E+07 40.1359 1.00000
  1.413E+13 1.413E+13 4.262E+00 3.535E+05 6.176E+06 1.231E+07 1.884E+07 1.884E+07 2.155E+07 40.3661 1.00000
  1.585E+13 1.585E+13 4.283E+00 3.966E+05 6.929E+06 1.413E+07 2.145E+07 2.145E+07 2.164E+07 40.5964 1.00000
  1.778E+13 1.778E+13 4.303E+00 4.450E+05 7.774E+06 1.621E+07 2.443E+07 2.443E+07 2.172E+07 40.8266 1.00000
  1.995E+13 1.995E+13 4.325E+00 4.994E+05 8.722E+06 1.861E+07 2.783E+07 2.783E+07 2.181E+07 41.0569 1.00000
  2.239E+13 2.239E+13 4.346E+00 5.603E+05 9.786E+06 2.136E+07 3.171E+07 3.171E+07 2.189E+07 41.2872 1.00000
  2.512E+13 2.512E+13 4.367E+00 6.286E+05 1.098E+07 2.453E+07 3.613E+07 3.613E+07 2.197E+07 41.5174 1.00000
  2.818E+13 2.818E+13 4.388E+00 7.054E+05 1.232E+07 2.816E+07 4.118E+07 4.118E+07 2.205E+07 41.7477 1.00000
  3.162E+13 3.162E+13 4.410E+00 7.914E+05 1.382E+07 3.233E+07 4.694E+07 4.694E+07 2.213E+07 41.9779 1.00000
  3.548E+13 3.548E+13 4.431E+00 8.880E+05 1.551E+07 3.711E+07 5.351E+07 5.351E+07 2.221E+07 42.2082 1.00000
  3.981E+13 3.981E+13 4.453E+00 9.963E+05 1.740E+07 4.261E+07 6.101E+07 6.101E+07 2.228E+07 42.4385 1.00000
  4.467E+13 4.467E+13 4.475E+00 1.118E+06 1.952E+07 4.893E+07 6.957E+07 6.957E+07 2.236E+07 42.6687 1.00000
  5.012E+13 5.012E+13 4.497E+00 1.254E+06 2.190E+07 5.619E+07 7.934E+07 7.934E+07 2.243E+07 42.8990 1.00000
  5.623E+13 5.623E+13 4.519E+00 1.407E+06 2.457E+07 6.452E+07 9.050E+07 9.050E+07 2.250E+07 43.1292 1.00000
  6.310E+13 6.310E+13 4.541E+00 1.579E+06 2.757E+07 7.409E+07 1.032E+08 1.032E+08 2.257E+07 43.3595 1.00000
  7.079E+13 7.079E+13 4.564E+00 1.772E+06 3.093E+07 8.509E+07 1.178E+08 1.178E+08 2.264E+07 43.5897 1.00000
  7.943E+13 7.943E+13 4.586E+00 1.988E+06 3.470E+07 9.773E+07 1.344E+08 1.344E+08 2.271E+07 43.8200 1.00000
  8.913E+13 8.913E+13 4.609E+00 2.231E+06 3.893E+07 1.122E+08 1.534E+08 1.534E+08 2.278E+07 44.0503 1.00000
