 Incident particle is a Tau with M = 1776.82000 MeV
 Index = 0: GalliumArsenide
      Absorber with <Z/A> = 0.44246
 Sternheimer coef:  a     k=m_s   x_0    x_1    I[eV]   Cbar  delta0
                 0.0715  3.3356  0.1764  3.6420  384.9  5.3299 0.00

 *** Table generated with PUMAS v1.00 ***

      T         p     Ionization  brems     pair     photonuc  Radloss    dE/dx   CSDA Range  delta   beta
    [MeV]    [MeV/c]  -----------------------[MeV cm^2/g]------------------------  [g/cm^2]
  1.000E+05 1.018E+05 1.817E+00 4.959E-04 8.269E-03 7.830E-03 1.660E-02 1.833E+00 2.727E+04  3.3572 0.99985
  1.122E+05 1.140E+05 1.836E+00 5.742E-04 9.915E-03 8.807E-03 1.930E-02 1.855E+00 3.389E+04  3.5337 0.99988
  1.259E+05 1.277E+05 1.855E+00 6.644E-04 1.185E-02 9.855E-03 2.237E-02 1.878E+00 4.122E+04  3.7136 0.99990
  1.413E+05 1.430E+05 1.874E+00 7.684E-04 1.413E-02 1.103E-02 2.593E-02 1.900E+00 4.935E+04  3.8968 0.99992
  1.585E+05 1.603E+05 1.893E+00 8.882E-04 1.680E-02 1.234E-02 3.002E-02 1.923E+00 5.837E+04  4.0830 0.99994
  1.778E+05 1.796E+05 1.912E+00 1.026E-03 1.992E-02 1.380E-02 3.474E-02 1.946E+00 6.837E+04  4.2722 0.99995
  1.995E+05 2.013E+05 1.930E+00 1.185E-03 2.356E-02 1.545E-02 4.020E-02 1.970E+00 7.945E+04  4.4643 0.99996
  2.239E+05 2.256E+05 1.948E+00 1.367E-03 2.782E-02 1.726E-02 4.644E-02 1.995E+00 9.173E+04  4.6590 0.99997
  2.512E+05 2.530E+05 1.967E+00 1.577E-03 3.276E-02 1.927E-02 5.361E-02 2.020E+00 1.053E+05  4.8564 0.99998
  2.818E+05 2.836E+05 1.985E+00 1.818E-03 3.851E-02 2.153E-02 6.186E-02 2.047E+00 1.204E+05  5.0563 0.99998
  3.162E+05 3.180E+05 2.003E+00 2.095E-03 4.516E-02 2.408E-02 7.134E-02 2.074E+00 1.371E+05  5.2586 0.99998
  3.548E+05 3.566E+05 2.020E+00 2.412E-03 5.287E-02 2.693E-02 8.221E-02 2.103E+00 1.556E+05  5.4631 0.99999
  3.981E+05 3.999E+05 2.038E+00 2.777E-03 6.178E-02 3.011E-02 9.466E-02 2.133E+00 1.760E+05  5.6698 0.99999
  4.467E+05 4.485E+05 2.055E+00 3.194E-03 7.205E-02 3.365E-02 1.089E-01 2.164E+00 1.986E+05  5.8786 0.99999
  5.012E+05 5.030E+05 2.073E+00 3.673E-03 8.389E-02 3.764E-02 1.252E-01 2.198E+00 2.236E+05  6.0892 0.99999
  5.623E+05 5.641E+05 2.090E+00 4.222E-03 9.752E-02 4.194E-02 1.437E-01 2.234E+00 2.512E+05  6.3017 1.00000
  6.310E+05 6.327E+05 2.107E+00 4.850E-03 1.132E-01 4.677E-02 1.648E-01 2.272E+00 2.817E+05  6.5160 1.00000
  7.079E+05 7.097E+05 2.124E+00 5.569E-03 1.312E-01 5.222E-02 1.889E-01 2.313E+00 3.153E+05  6.7318 1.00000
  7.943E+05 7.961E+05 2.140E+00 6.392E-03 1.518E-01 5.836E-02 2.165E-01 2.357E+00 3.523E+05  6.9492 1.00000
  8.913E+05 8.930E+05 2.157E+00 7.334E-03 1.753E-01 6.529E-02 2.480E-01 2.405E+00 3.930E+05  7.1680 1.00000
  1.000E+06 1.002E+06 2.173E+00 8.411E-03 2.023E-01 7.311E-02 2.838E-01 2.457E+00 4.377E+05  7.3881 1.00000
  1.122E+06 1.124E+06 2.189E+00 9.641E-03 2.331E-01 8.195E-02 3.247E-01 2.514E+00 4.868E+05  7.6095 1.00000
  1.259E+06 1.261E+06 2.205E+00 1.105E-02 2.683E-01 9.195E-02 3.713E-01 2.577E+00 5.406E+05  7.8320 1.00000
  1.413E+06 1.414E+06 2.221E+00 1.265E-02 3.084E-01 1.033E-01 4.243E-01 2.646E+00 5.995E+05  8.0556 1.00000
  1.585E+06 1.587E+06 2.237E+00 1.449E-02 3.541E-01 1.161E-01 4.847E-01 2.722E+00 6.637E+05  8.2801 1.00000
  1.778E+06 1.780E+06 2.253E+00 1.658E-02 4.060E-01 1.306E-01 5.532E-01 2.806E+00 7.337E+05  8.5055 1.00000
  1.995E+06 1.997E+06 2.268E+00 1.897E-02 4.651E-01 1.471E-01 6.312E-01 2.899E+00 8.098E+05  8.7317 1.00000
  2.239E+06 2.240E+06 2.283E+00 2.170E-02 5.322E-01 1.658E-01 7.197E-01 3.003E+00 8.923E+05  8.9586 1.00000
  2.512E+06 2.514E+06 2.298E+00 2.481E-02 6.083E-01 1.870E-01 8.201E-01 3.118E+00 9.816E+05  9.1861 1.00000
  2.818E+06 2.820E+06 2.313E+00 2.835E-02 6.946E-01 2.111E-01 9.341E-01 3.247E+00 1.078E+06  9.4142 1.00000
  3.162E+06 3.164E+06 2.328E+00 3.239E-02 7.924E-01 2.386E-01 1.063E+00 3.391E+00 1.182E+06  9.6428 1.00000
  3.548E+06 3.550E+06 2.342E+00 3.700E-02 9.031E-01 2.697E-01 1.210E+00 3.552E+00 1.293E+06  9.8718 1.00000
  3.981E+06 3.983E+06 2.357E+00 4.224E-02 1.028E+00 3.051E-01 1.376E+00 3.733E+00 1.412E+06 10.1011 1.00000
  4.467E+06 4.469E+06 2.371E+00 4.821E-02 1.170E+00 3.455E-01 1.564E+00 3.935E+00 1.539E+06 10.3307 1.00000
  5.012E+06 5.014E+06 2.385E+00 5.501E-02 1.330E+00 3.913E-01 1.777E+00 4.162E+00 1.673E+06 10.5606 1.00000
  5.623E+06 5.625E+06 2.399E+00 6.274E-02 1.511E+00 4.435E-01 2.017E+00 4.416E+00 1.816E+06 10.7906 1.00000
  6.310E+06 6.311E+06 2.413E+00 7.154E-02 1.715E+00 5.030E-01 2.290E+00 4.703E+00 1.967E+06 11.0207 1.00000
  7.079E+06 7.081E+06 2.426E+00 8.154E-02 1.946E+00 5.707E-01 2.598E+00 5.024E+00 2.125E+06 11.2509 1.00000
  7.943E+06 7.945E+06 2.440E+00 9.292E-02 2.206E+00 6.478E-01 2.946E+00 5.386E+00 2.291E+06 11.4811 1.00000
  8.913E+06 8.914E+06 2.453E+00 1.058E-01 2.499E+00 7.357E-01 3.340E+00 5.793E+00 2.465E+06 11.7113 1.00000
  1.000E+07 1.000E+07 2.467E+00 1.205E-01 2.829E+00 8.359E-01 3.785E+00 6.252E+00 2.646E+06 11.9415 1.00000
  1.122E+07 1.122E+07 2.480E+00 1.372E-01 3.201E+00 9.500E-01 4.288E+00 6.767E+00 2.833E+06 12.1717 1.00000
  1.259E+07 1.259E+07 2.493E+00 1.562E-01 3.619E+00 1.080E+00 4.856E+00 7.348E+00 3.028E+06 12.4019 1.00000
  1.413E+07 1.413E+07 2.506E+00 1.777E-01 4.091E+00 1.229E+00 5.497E+00 8.003E+00 3.228E+06 12.6322 1.00000
  1.585E+07 1.585E+07 2.518E+00 2.021E-01 4.622E+00 1.398E+00 6.221E+00 8.740E+00 3.434E+06 12.8624 1.00000
  1.778E+07 1.778E+07 2.531E+00 2.298E-01 5.219E+00 1.591E+00 7.039E+00 9.570E+00 3.646E+06 13.0926 1.00000
  1.995E+07 1.995E+07 2.544E+00 2.612E-01 5.890E+00 1.811E+00 7.962E+00 1.051E+01 3.863E+06 13.3229 1.00000
  2.239E+07 2.239E+07 2.556E+00 2.968E-01 6.646E+00 2.062E+00 9.004E+00 1.156E+01 4.084E+06 13.5531 1.00000
  2.512E+07 2.512E+07 2.569E+00 3.371E-01 7.495E+00 2.348E+00 1.018E+01 1.275E+01 4.309E+06 13.7833 1.00000
  2.818E+07 2.819E+07 2.581E+00 3.828E-01 8.450E+00 2.675E+00 1.151E+01 1.409E+01 4.538E+06 14.0136 1.00000
  3.162E+07 3.162E+07 2.594E+00 4.346E-01 9.523E+00 3.048E+00 1.301E+01 1.560E+01 4.771E+06 14.2438 1.00000
  3.548E+07 3.548E+07 2.606E+00 4.933E-01 1.073E+01 3.473E+00 1.470E+01 1.730E+01 5.006E+06 14.4741 1.00000
  3.981E+07 3.981E+07 2.618E+00 5.597E-01 1.208E+01 3.959E+00 1.660E+01 1.922E+01 5.243E+06 14.7043 1.00000
  4.467E+07 4.467E+07 2.631E+00 6.348E-01 1.361E+01 4.514E+00 1.875E+01 2.139E+01 5.483E+06 14.9346 1.00000
  5.012E+07 5.012E+07 2.643E+00 7.198E-01 1.532E+01 5.146E+00 2.118E+01 2.383E+01 5.725E+06 15.1648 1.00000
  5.623E+07 5.624E+07 2.655E+00 8.159E-01 1.724E+01 5.869E+00 2.392E+01 2.658E+01 5.969E+06 15.3951 1.00000
  6.310E+07 6.310E+07 2.667E+00 9.246E-01 1.940E+01 6.693E+00 2.701E+01 2.968E+01 6.213E+06 15.6253 1.00000
  7.079E+07 7.080E+07 2.680E+00 1.047E+00 2.182E+01 7.635E+00 3.050E+01 3.318E+01 6.459E+06 15.8556 1.00000
  7.943E+07 7.943E+07 2.692E+00 1.186E+00 2.454E+01 8.710E+00 3.444E+01 3.713E+01 6.705E+06 16.0858 1.00000
  8.913E+07 8.913E+07 2.704E+00 1.343E+00 2.759E+01 9.937E+00 3.887E+01 4.158E+01 6.953E+06 16.3161 1.00000
  1.000E+08 1.000E+08 2.717E+00 1.520E+00 3.102E+01 1.134E+01 4.388E+01 4.660E+01 7.200E+06 16.5463 1.00000
  1.122E+08 1.122E+08 2.729E+00 1.720E+00 3.488E+01 1.294E+01 4.954E+01 5.226E+01 7.448E+06 16.7766 1.00000
  1.259E+08 1.259E+08 2.741E+00 1.946E+00 3.920E+01 1.477E+01 5.591E+01 5.865E+01 7.695E+06 17.0068 1.00000
  1.413E+08 1.413E+08 2.754E+00 2.201E+00 4.405E+01 1.686E+01 6.311E+01 6.586E+01 7.943E+06 17.2371 1.00000
  1.585E+08 1.585E+08 2.766E+00 2.488E+00 4.950E+01 1.924E+01 7.123E+01 7.400E+01 8.190E+06 17.4674 1.00000
  1.778E+08 1.778E+08 2.779E+00 2.812E+00 5.561E+01 2.197E+01 8.039E+01 8.317E+01 8.437E+06 17.6976 1.00000
  1.995E+08 1.995E+08 2.791E+00 3.177E+00 6.248E+01 2.508E+01 9.073E+01 9.352E+01 8.684E+06 17.9279 1.00000
  2.239E+08 2.239E+08 2.804E+00 3.589E+00 7.018E+01 2.864E+01 1.024E+02 1.052E+02 8.929E+06 18.1581 1.00000
  2.512E+08 2.512E+08 2.817E+00 4.053E+00 7.882E+01 3.270E+01 1.156E+02 1.184E+02 9.175E+06 18.3884 1.00000
  2.818E+08 2.818E+08 2.829E+00 4.576E+00 8.853E+01 3.734E+01 1.304E+02 1.333E+02 9.419E+06 18.6186 1.00000
  3.162E+08 3.162E+08 2.842E+00 5.165E+00 9.942E+01 4.264E+01 1.472E+02 1.501E+02 9.663E+06 18.8489 1.00000
  3.548E+08 3.548E+08 2.855E+00 5.829E+00 1.116E+02 4.870E+01 1.662E+02 1.690E+02 9.905E+06 19.0792 1.00000
  3.981E+08 3.981E+08 2.868E+00 6.575E+00 1.254E+02 5.563E+01 1.876E+02 1.904E+02 1.015E+07 19.3094 1.00000
  4.467E+08 4.467E+08 2.881E+00 7.416E+00 1.407E+02 6.354E+01 2.117E+02 2.146E+02 1.039E+07 19.5397 1.00000
  5.012E+08 5.012E+08 2.894E+00 8.362E+00 1.580E+02 7.259E+01 2.390E+02 2.419E+02 1.063E+07 19.7699 1.00000
  5.623E+08 5.623E+08 2.907E+00 9.427E+00 1.774E+02 8.292E+01 2.697E+02 2.726E+02 1.087E+07 20.0002 1.00000
  6.310E+08 6.310E+08 2.920E+00 1.063E+01 1.991E+02 9.474E+01 3.045E+02 3.074E+02 1.110E+07 20.2304 1.00000
  7.079E+08 7.079E+08 2.933E+00 1.197E+01 2.235E+02 1.082E+02 3.438E+02 3.467E+02 1.134E+07 20.4607 1.00000
  7.943E+08 7.943E+08 2.947E+00 1.349E+01 2.509E+02 1.237E+02 3.881E+02 3.910E+02 1.157E+07 20.6910 1.00000
  8.913E+08 8.913E+08 2.960E+00 1.519E+01 2.817E+02 1.413E+02 4.382E+02 4.411E+02 1.181E+07 20.9212 1.00000
  1.000E+09 1.000E+09 2.973E+00 1.711E+01 3.161E+02 1.615E+02 4.947E+02 4.977E+02 1.204E+07 21.1515 1.00000
  1.122E+09 1.122E+09 2.987E+00 1.926E+01 3.548E+02 1.846E+02 5.587E+02 5.616E+02 1.227E+07 21.3817 1.00000
  1.259E+09 1.259E+09 3.000E+00 2.169E+01 3.982E+02 2.109E+02 6.309E+02 6.339E+02 1.250E+07 21.6120 1.00000
  1.413E+09 1.413E+09 3.014E+00 2.441E+01 4.469E+02 2.411E+02 7.124E+02 7.155E+02 1.273E+07 21.8422 1.00000
  1.585E+09 1.585E+09 3.028E+00 2.746E+01 5.016E+02 2.756E+02 8.046E+02 8.077E+02 1.296E+07 22.0725 1.00000
  1.778E+09 1.778E+09 3.042E+00 3.090E+01 5.629E+02 3.150E+02 9.088E+02 9.119E+02 1.318E+07 22.3028 1.00000
  1.995E+09 1.995E+09 3.055E+00 3.476E+01 6.317E+02 3.601E+02 1.027E+03 1.030E+03 1.341E+07 22.5330 1.00000
  2.239E+09 2.239E+09 3.069E+00 3.910E+01 7.089E+02 4.116E+02 1.160E+03 1.163E+03 1.363E+07 22.7633 1.00000
  2.512E+09 2.512E+09 3.083E+00 4.397E+01 7.956E+02 4.706E+02 1.310E+03 1.313E+03 1.385E+07 22.9935 1.00000
  2.818E+09 2.818E+09 3.097E+00 4.944E+01 8.928E+02 5.381E+02 1.480E+03 1.483E+03 1.407E+07 23.2238 1.00000
  3.162E+09 3.162E+09 3.112E+00 5.559E+01 1.002E+03 6.152E+02 1.673E+03 1.676E+03 1.429E+07 23.4541 1.00000
  3.548E+09 3.548E+09 3.126E+00 6.249E+01 1.124E+03 7.035E+02 1.890E+03 1.893E+03 1.451E+07 23.6843 1.00000
  3.981E+09 3.981E+09 3.140E+00 7.024E+01 1.262E+03 8.044E+02 2.136E+03 2.139E+03 1.472E+07 23.9146 1.00000
  4.467E+09 4.467E+09 3.155E+00 7.894E+01 1.416E+03 9.199E+02 2.414E+03 2.418E+03 1.494E+07 24.1448 1.00000
  5.012E+09 5.012E+09 3.169E+00 8.871E+01 1.588E+03 1.052E+03 2.729E+03 2.732E+03 1.515E+07 24.3751 1.00000
  5.623E+09 5.623E+09 3.184E+00 9.968E+01 1.782E+03 1.203E+03 3.085E+03 3.088E+03 1.536E+07 24.6053 1.00000
  6.310E+09 6.310E+09 3.198E+00 1.120E+02 2.000E+03 1.376E+03 3.488E+03 3.491E+03 1.557E+07 24.8356 1.00000
  7.079E+09 7.079E+09 3.213E+00 1.258E+02 2.244E+03 1.574E+03 3.944E+03 3.947E+03 1.578E+07 25.0659 1.00000
  7.943E+09 7.943E+09 3.228E+00 1.413E+02 2.518E+03 1.800E+03 4.460E+03 4.463E+03 1.598E+07 25.2961 1.00000
  8.913E+09 8.913E+09 3.243E+00 1.587E+02 2.826E+03 2.060E+03 5.044E+03 5.047E+03 1.619E+07 25.5264 1.00000
  1.000E+10 1.000E+10 3.258E+00 1.783E+02 3.170E+03 2.356E+03 5.705E+03 5.708E+03 1.639E+07 25.7566 1.00000
  1.122E+10 1.122E+10 3.273E+00 2.002E+02 3.557E+03 2.696E+03 6.453E+03 6.456E+03 1.659E+07 25.9869 1.00000
  1.259E+10 1.259E+10 3.288E+00 2.249E+02 3.992E+03 3.084E+03 7.300E+03 7.304E+03 1.679E+07 26.2172 1.00000
  1.413E+10 1.413E+10 3.303E+00 2.525E+02 4.479E+03 3.529E+03 8.260E+03 8.263E+03 1.699E+07 26.4474 1.00000
  1.585E+10 1.585E+10 3.318E+00 2.835E+02 5.025E+03 4.038E+03 9.346E+03 9.350E+03 1.719E+07 26.6777 1.00000
  1.778E+10 1.778E+10 3.334E+00 3.184E+02 5.639E+03 4.620E+03 1.058E+04 1.058E+04 1.738E+07 26.9079 1.00000
  1.995E+10 1.995E+10 3.349E+00 3.574E+02 6.327E+03 5.287E+03 1.197E+04 1.197E+04 1.758E+07 27.1382 1.00000
  2.239E+10 2.239E+10 3.365E+00 4.013E+02 7.099E+03 6.051E+03 1.355E+04 1.355E+04 1.777E+07 27.3685 1.00000
  2.512E+10 2.512E+10 3.381E+00 4.505E+02 7.965E+03 6.925E+03 1.534E+04 1.534E+04 1.796E+07 27.5987 1.00000
  2.818E+10 2.818E+10 3.396E+00 5.057E+02 8.937E+03 7.925E+03 1.737E+04 1.737E+04 1.814E+07 27.8290 1.00000
  3.162E+10 3.162E+10 3.412E+00 5.677E+02 1.003E+04 9.071E+03 1.967E+04 1.967E+04 1.833E+07 28.0592 1.00000
  3.548E+10 3.548E+10 3.428E+00 6.373E+02 1.125E+04 1.038E+04 2.227E+04 2.227E+04 1.852E+07 28.2895 1.00000
  3.981E+10 3.981E+10 3.444E+00 7.153E+02 1.262E+04 1.189E+04 2.522E+04 2.523E+04 1.870E+07 28.5197 1.00000
  4.467E+10 4.467E+10 3.460E+00 8.029E+02 1.416E+04 1.361E+04 2.857E+04 2.858E+04 1.888E+07 28.7500 1.00000
  5.012E+10 5.012E+10 3.476E+00 9.011E+02 1.589E+04 1.558E+04 3.237E+04 3.237E+04 1.906E+07 28.9803 1.00000
  5.623E+10 5.623E+10 3.493E+00 1.011E+03 1.783E+04 1.783E+04 3.668E+04 3.668E+04 1.924E+07 29.2105 1.00000
  6.310E+10 6.310E+10 3.509E+00 1.135E+03 2.001E+04 2.042E+04 4.156E+04 4.156E+04 1.941E+07 29.4408 1.00000
  7.079E+10 7.079E+10 3.526E+00 1.274E+03 2.245E+04 2.338E+04 4.710E+04 4.710E+04 1.959E+07 29.6710 1.00000
  7.943E+10 7.943E+10 3.542E+00 1.430E+03 2.518E+04 2.677E+04 5.339E+04 5.339E+04 1.976E+07 29.9013 1.00000
  8.913E+10 8.913E+10 3.559E+00 1.605E+03 2.826E+04 3.066E+04 6.052E+04 6.052E+04 1.993E+07 30.1316 1.00000
  1.000E+11 1.000E+11 3.576E+00 1.801E+03 3.170E+04 3.511E+04 6.861E+04 6.862E+04 2.010E+07 30.3618 1.00000
  1.122E+11 1.122E+11 3.593E+00 2.021E+03 3.557E+04 4.021E+04 7.780E+04 7.780E+04 2.027E+07 30.5921 1.00000
  1.259E+11 1.259E+11 3.609E+00 2.268E+03 3.991E+04 4.605E+04 8.823E+04 8.823E+04 2.043E+07 30.8223 1.00000
  1.413E+11 1.413E+11 3.627E+00 2.545E+03 4.478E+04 5.274E+04 1.001E+05 1.001E+05 2.060E+07 31.0526 1.00000
  1.585E+11 1.585E+11 3.644E+00 2.856E+03 5.024E+04 6.041E+04 1.135E+05 1.135E+05 2.076E+07 31.2828 1.00000
  1.778E+11 1.778E+11 3.661E+00 3.205E+03 5.637E+04 6.920E+04 1.288E+05 1.288E+05 2.092E+07 31.5131 1.00000
  1.995E+11 1.995E+11 3.678E+00 3.596E+03 6.325E+04 7.927E+04 1.461E+05 1.461E+05 2.108E+07 31.7434 1.00000
  2.239E+11 2.239E+11 3.696E+00 4.035E+03 7.096E+04 9.082E+04 1.658E+05 1.658E+05 2.123E+07 31.9736 1.00000
  2.512E+11 2.512E+11 3.713E+00 4.528E+03 7.962E+04 1.040E+05 1.882E+05 1.882E+05 2.139E+07 32.2039 1.00000
  2.818E+11 2.818E+11 3.731E+00 5.081E+03 8.933E+04 1.192E+05 2.136E+05 2.136E+05 2.154E+07 32.4341 1.00000
  3.162E+11 3.162E+11 3.749E+00 5.701E+03 1.002E+05 1.366E+05 2.425E+05 2.425E+05 2.169E+07 32.6644 1.00000
  3.548E+11 3.548E+11 3.766E+00 6.398E+03 1.125E+05 1.565E+05 2.754E+05 2.754E+05 2.184E+07 32.8947 1.00000
  3.981E+11 3.981E+11 3.784E+00 7.179E+03 1.262E+05 1.793E+05 3.127E+05 3.127E+05 2.199E+07 33.1249 1.00000
  4.467E+11 4.467E+11 3.802E+00 8.055E+03 1.416E+05 2.055E+05 3.551E+05 3.551E+05 2.214E+07 33.3552 1.00000
  5.012E+11 5.012E+11 3.821E+00 9.038E+03 1.588E+05 2.355E+05 4.034E+05 4.034E+05 2.228E+07 33.5854 1.00000
  5.623E+11 5.623E+11 3.839E+00 1.014E+04 1.782E+05 2.699E+05 4.583E+05 4.583E+05 2.242E+07 33.8157 1.00000
  6.310E+11 6.310E+11 3.857E+00 1.138E+04 1.999E+05 3.094E+05 5.207E+05 5.207E+05 2.257E+07 34.0459 1.00000
  7.079E+11 7.079E+11 3.876E+00 1.277E+04 2.243E+05 3.546E+05 5.917E+05 5.917E+05 2.270E+07 34.2762 1.00000
  7.943E+11 7.943E+11 3.894E+00 1.433E+04 2.517E+05 4.065E+05 6.725E+05 6.725E+05 2.284E+07 34.5065 1.00000
  8.913E+11 8.913E+11 3.913E+00 1.608E+04 2.824E+05 4.659E+05 7.644E+05 7.644E+05 2.298E+07 34.7367 1.00000
  1.000E+12 1.000E+12 3.931E+00 1.804E+04 3.169E+05 5.341E+05 8.690E+05 8.690E+05 2.311E+07 34.9670 1.00000
  1.122E+12 1.122E+12 3.950E+00 2.024E+04 3.555E+05 6.123E+05 9.881E+05 9.881E+05 2.324E+07 35.1972 1.00000
  1.259E+12 1.259E+12 3.969E+00 2.271E+04 3.989E+05 7.020E+05 1.124E+06 1.124E+06 2.337E+07 35.4275 1.00000
  1.413E+12 1.413E+12 3.988E+00 2.548E+04 4.475E+05 8.049E+05 1.278E+06 1.278E+06 2.350E+07 35.6578 1.00000
  1.585E+12 1.585E+12 4.007E+00 2.859E+04 5.021E+05 9.229E+05 1.454E+06 1.454E+06 2.363E+07 35.8880 1.00000
  1.778E+12 1.778E+12 4.027E+00 3.208E+04 5.633E+05 1.058E+06 1.654E+06 1.654E+06 2.375E+07 36.1183 1.00000
  1.995E+12 1.995E+12 4.046E+00 3.599E+04 6.321E+05 1.214E+06 1.882E+06 1.882E+06 2.388E+07 36.3485 1.00000
  2.239E+12 2.239E+12 4.066E+00 4.039E+04 7.092E+05 1.392E+06 2.141E+06 2.141E+06 2.400E+07 36.5788 1.00000
  2.512E+12 2.512E+12 4.085E+00 4.532E+04 7.956E+05 1.596E+06 2.437E+06 2.437E+06 2.412E+07 36.8090 1.00000
  2.818E+12 2.818E+12 4.105E+00 5.085E+04 8.927E+05 1.830E+06 2.774E+06 2.774E+06 2.424E+07 37.0393 1.00000
  3.162E+12 3.162E+12 4.125E+00 5.705E+04 1.002E+06 2.099E+06 3.158E+06 3.158E+06 2.435E+07 37.2696 1.00000
  3.548E+12 3.548E+12 4.145E+00 6.401E+04 1.124E+06 2.408E+06 3.596E+06 3.596E+06 2.447E+07 37.4998 1.00000
  3.981E+12 3.981E+12 4.165E+00 7.182E+04 1.261E+06 2.762E+06 4.095E+06 4.095E+06 2.458E+07 37.7301 1.00000
  4.467E+12 4.467E+12 4.185E+00 8.059E+04 1.415E+06 3.169E+06 4.664E+06 4.664E+06 2.469E+07 37.9603 1.00000
  5.012E+12 5.012E+12 4.205E+00 9.042E+04 1.587E+06 3.635E+06 5.313E+06 5.313E+06 2.480E+07 38.1906 1.00000
  5.623E+12 5.623E+12 4.225E+00 1.015E+05 1.781E+06 4.170E+06 6.052E+06 6.052E+06 2.491E+07 38.4209 1.00000
  6.310E+12 6.310E+12 4.246E+00 1.138E+05 1.998E+06 4.784E+06 6.896E+06 6.896E+06 2.502E+07 38.6511 1.00000
  7.079E+12 7.079E+12 4.267E+00 1.277E+05 2.242E+06 5.489E+06 7.859E+06 7.859E+06 2.512E+07 38.8814 1.00000
  7.943E+12 7.943E+12 4.287E+00 1.433E+05 2.515E+06 6.299E+06 8.957E+06 8.957E+06 2.522E+07 39.1116 1.00000
  8.913E+12 8.913E+12 4.308E+00 1.608E+05 2.822E+06 7.227E+06 1.021E+07 1.021E+07 2.532E+07 39.3419 1.00000
  1.000E+13 1.000E+13 4.329E+00 1.804E+05 3.166E+06 8.294E+06 1.164E+07 1.164E+07 2.542E+07 39.5722 1.00000
  1.122E+13 1.122E+13 4.350E+00 2.024E+05 3.552E+06 9.517E+06 1.327E+07 1.327E+07 2.552E+07 39.8024 1.00000
  1.259E+13 1.259E+13 4.371E+00 2.271E+05 3.985E+06 1.092E+07 1.513E+07 1.513E+07 2.562E+07 40.0327 1.00000
  1.413E+13 1.413E+13 4.392E+00 2.549E+05 4.471E+06 1.254E+07 1.726E+07 1.726E+07 2.572E+07 40.2629 1.00000
  1.585E+13 1.585E+13 4.414E+00 2.859E+05 5.016E+06 1.439E+07 1.969E+07 1.969E+07 2.581E+07 40.4932 1.00000
  1.778E+13 1.778E+13 4.435E+00 3.208E+05 5.628E+06 1.651E+07 2.246E+07 2.246E+07 2.590E+07 40.7234 1.00000
  1.995E+13 1.995E+13 4.457E+00 3.600E+05 6.315E+06 1.896E+07 2.563E+07 2.563E+07 2.599E+07 40.9537 1.00000
  2.239E+13 2.239E+13 4.479E+00 4.039E+05 7.085E+06 2.176E+07 2.925E+07 2.925E+07 2.608E+07 41.1840 1.00000
  2.512E+13 2.512E+13 4.500E+00 4.532E+05 7.949E+06 2.498E+07 3.338E+07 3.338E+07 2.617E+07 41.4142 1.00000
  2.818E+13 2.818E+13 4.522E+00 5.085E+05 8.918E+06 2.868E+07 3.810E+07 3.810E+07 2.625E+07 41.6445 1.00000
  3.162E+13 3.162E+13 4.545E+00 5.705E+05 1.001E+07 3.292E+07 4.350E+07 4.350E+07 2.634E+07 41.8747 1.00000
  3.548E+13 3.548E+13 4.567E+00 6.402E+05 1.123E+07 3.780E+07 4.967E+07 4.967E+07 2.642E+07 42.1050 1.00000
  3.981E+13 3.981E+13 4.589E+00 7.183E+05 1.260E+07 4.340E+07 5.671E+07 5.671E+07 2.650E+07 42.3353 1.00000
  4.467E+13 4.467E+13 4.611E+00 8.059E+05 1.413E+07 4.983E+07 6.477E+07 6.477E+07 2.658E+07 42.5655 1.00000
  5.012E+13 5.012E+13 4.634E+00 9.043E+05 1.585E+07 5.722E+07 7.398E+07 7.398E+07 2.666E+07 42.7958 1.00000
  5.623E+13 5.623E+13 4.657E+00 1.015E+06 1.779E+07 6.571E+07 8.452E+07 8.452E+07 2.674E+07 43.0260 1.00000
  6.310E+13 6.310E+13 4.680E+00 1.138E+06 1.996E+07 7.546E+07 9.656E+07 9.656E+07 2.682E+07 43.2563 1.00000
  7.079E+13 7.079E+13 4.702E+00 1.277E+06 2.239E+07 8.667E+07 1.103E+08 1.103E+08 2.689E+07 43.4865 1.00000
  7.943E+13 7.943E+13 4.726E+00 1.433E+06 2.512E+07 9.954E+07 1.261E+08 1.261E+08 2.697E+07 43.7168 1.00000
  8.913E+13 8.913E+13 4.749E+00 1.608E+06 2.819E+07 1.143E+08 1.441E+08 1.441E+08 2.704E+07 43.9471 1.00000
