 Incident particle is a Tau with M = 1776.82000 MeV
 Index = 0: Gallium
      Absorber with <Z/A> = 0.44462
 Sternheimer coef:  a     k=m_s   x_0    x_1    I[eV]   Cbar  delta0
                 0.0944  3.1314  0.2267  3.5434  334.0  4.9353 0.14

 *** Table generated with PUMAS v1.00 ***

      T         p     Ionization  brems     pair     photonuc  Radloss    dE/dx   CSDA Range  delta   beta
    [MeV]    [MeV/c]  -----------------------[MeV cm^2/g]------------------------  [g/cm^2]
  1.000E+05 1.018E+05 1.819E+00 4.838E-04 8.048E-03 7.840E-03 1.637E-02 1.835E+00 2.724E+04  3.7401 0.99985
  1.122E+05 1.140E+05 1.838E+00 5.601E-04 9.650E-03 8.820E-03 1.903E-02 1.857E+00 3.385E+04  3.9181 0.99988
  1.259E+05 1.277E+05 1.857E+00 6.480E-04 1.154E-02 9.870E-03 2.205E-02 1.879E+00 4.118E+04  4.0992 0.99990
  1.413E+05 1.430E+05 1.876E+00 7.494E-04 1.375E-02 1.105E-02 2.555E-02 1.902E+00 4.931E+04  4.2834 0.99992
  1.585E+05 1.603E+05 1.895E+00 8.662E-04 1.635E-02 1.236E-02 2.958E-02 1.925E+00 5.832E+04  4.4705 0.99994
  1.778E+05 1.796E+05 1.914E+00 1.001E-03 1.939E-02 1.382E-02 3.421E-02 1.948E+00 6.830E+04  4.6604 0.99995
  1.995E+05 2.013E+05 1.932E+00 1.155E-03 2.294E-02 1.548E-02 3.958E-02 1.972E+00 7.937E+04  4.8531 0.99996
  2.239E+05 2.256E+05 1.951E+00 1.333E-03 2.708E-02 1.729E-02 4.571E-02 1.996E+00 9.165E+04  5.0484 0.99997
  2.512E+05 2.530E+05 1.969E+00 1.538E-03 3.190E-02 1.931E-02 5.275E-02 2.022E+00 1.052E+05  5.2462 0.99998
  2.818E+05 2.836E+05 1.987E+00 1.772E-03 3.749E-02 2.158E-02 6.084E-02 2.048E+00 1.203E+05  5.4465 0.99998
  3.162E+05 3.180E+05 2.005E+00 2.042E-03 4.398E-02 2.413E-02 7.015E-02 2.075E+00 1.370E+05  5.6490 0.99998
  3.548E+05 3.566E+05 2.023E+00 2.352E-03 5.149E-02 2.699E-02 8.083E-02 2.104E+00 1.555E+05  5.8538 0.99999
  3.981E+05 3.999E+05 2.041E+00 2.707E-03 6.016E-02 3.018E-02 9.304E-02 2.134E+00 1.759E+05  6.0606 0.99999
  4.467E+05 4.485E+05 2.058E+00 3.114E-03 7.017E-02 3.373E-02 1.070E-01 2.165E+00 1.985E+05  6.2695 0.99999
  5.012E+05 5.030E+05 2.075E+00 3.580E-03 8.171E-02 3.773E-02 1.230E-01 2.199E+00 2.235E+05  6.4803 0.99999
  5.623E+05 5.641E+05 2.093E+00 4.115E-03 9.499E-02 4.204E-02 1.411E-01 2.234E+00 2.511E+05  6.6928 1.00000
  6.310E+05 6.327E+05 2.110E+00 4.727E-03 1.102E-01 4.690E-02 1.619E-01 2.272E+00 2.815E+05  6.9071 1.00000
  7.079E+05 7.097E+05 2.127E+00 5.428E-03 1.278E-01 5.236E-02 1.855E-01 2.312E+00 3.151E+05  7.1231 1.00000
  7.943E+05 7.961E+05 2.143E+00 6.230E-03 1.478E-01 5.852E-02 2.126E-01 2.356E+00 3.521E+05  7.3405 1.00000
  8.913E+05 8.930E+05 2.160E+00 7.148E-03 1.708E-01 6.547E-02 2.434E-01 2.403E+00 3.929E+05  7.5594 1.00000
  1.000E+06 1.002E+06 2.176E+00 8.197E-03 1.971E-01 7.332E-02 2.786E-01 2.455E+00 4.376E+05  7.7796 1.00000
  1.122E+06 1.124E+06 2.193E+00 9.396E-03 2.272E-01 8.219E-02 3.187E-01 2.511E+00 4.868E+05  8.0011 1.00000
  1.259E+06 1.261E+06 2.209E+00 1.077E-02 2.614E-01 9.222E-02 3.644E-01 2.573E+00 5.406E+05  8.2238 1.00000
  1.413E+06 1.414E+06 2.225E+00 1.233E-02 3.005E-01 1.036E-01 4.164E-01 2.641E+00 5.996E+05  8.4475 1.00000
  1.585E+06 1.587E+06 2.241E+00 1.412E-02 3.450E-01 1.164E-01 4.756E-01 2.716E+00 6.639E+05  8.6722 1.00000
  1.778E+06 1.780E+06 2.256E+00 1.616E-02 3.957E-01 1.310E-01 5.429E-01 2.799E+00 7.341E+05  8.8978 1.00000
  1.995E+06 1.997E+06 2.272E+00 1.849E-02 4.533E-01 1.476E-01 6.193E-01 2.891E+00 8.104E+05  9.1242 1.00000
  2.239E+06 2.240E+06 2.287E+00 2.115E-02 5.187E-01 1.663E-01 7.062E-01 2.993E+00 8.931E+05  9.3513 1.00000
  2.512E+06 2.514E+06 2.302E+00 2.418E-02 5.929E-01 1.876E-01 8.047E-01 3.107E+00 9.827E+05  9.5791 1.00000
  2.818E+06 2.820E+06 2.317E+00 2.763E-02 6.771E-01 2.118E-01 9.165E-01 3.233E+00 1.079E+06  9.8074 1.00000
  3.162E+06 3.164E+06 2.332E+00 3.157E-02 7.724E-01 2.394E-01 1.043E+00 3.375E+00 1.184E+06 10.0363 1.00000
  3.548E+06 3.550E+06 2.346E+00 3.605E-02 8.804E-01 2.706E-01 1.187E+00 3.533E+00 1.295E+06 10.2655 1.00000
  3.981E+06 3.983E+06 2.361E+00 4.116E-02 1.003E+00 3.062E-01 1.350E+00 3.711E+00 1.415E+06 10.4951 1.00000
  4.467E+06 4.469E+06 2.375E+00 4.698E-02 1.141E+00 3.466E-01 1.534E+00 3.909E+00 1.543E+06 10.7249 1.00000
  5.012E+06 5.014E+06 2.389E+00 5.360E-02 1.297E+00 3.927E-01 1.743E+00 4.132E+00 1.678E+06 10.9549 1.00000
  5.623E+06 5.625E+06 2.403E+00 6.114E-02 1.473E+00 4.451E-01 1.980E+00 4.383E+00 1.822E+06 11.1851 1.00000
  6.310E+06 6.311E+06 2.417E+00 6.971E-02 1.673E+00 5.048E-01 2.247E+00 4.664E+00 1.974E+06 11.4153 1.00000
  7.079E+06 7.081E+06 2.431E+00 7.946E-02 1.897E+00 5.727E-01 2.550E+00 4.980E+00 2.134E+06 11.6455 1.00000
  7.943E+06 7.945E+06 2.444E+00 9.054E-02 2.151E+00 6.501E-01 2.891E+00 5.336E+00 2.301E+06 11.8757 1.00000
  8.913E+06 8.914E+06 2.458E+00 1.031E-01 2.437E+00 7.383E-01 3.278E+00 5.736E+00 2.477E+06 12.1059 1.00000
  1.000E+07 1.000E+07 2.471E+00 1.175E-01 2.759E+00 8.389E-01 3.715E+00 6.186E+00 2.659E+06 12.3361 1.00000
  1.122E+07 1.122E+07 2.484E+00 1.337E-01 3.121E+00 9.534E-01 4.209E+00 6.693E+00 2.849E+06 12.5663 1.00000
  1.259E+07 1.259E+07 2.497E+00 1.522E-01 3.530E+00 1.084E+00 4.766E+00 7.263E+00 3.046E+06 12.7965 1.00000
  1.413E+07 1.413E+07 2.510E+00 1.731E-01 3.990E+00 1.233E+00 5.396E+00 7.906E+00 3.248E+06 13.0268 1.00000
  1.585E+07 1.585E+07 2.523E+00 1.969E-01 4.508E+00 1.403E+00 6.107E+00 8.631E+00 3.457E+06 13.2570 1.00000
  1.778E+07 1.778E+07 2.536E+00 2.239E-01 5.090E+00 1.596E+00 6.911E+00 9.446E+00 3.672E+06 13.4872 1.00000
  1.995E+07 1.995E+07 2.548E+00 2.545E-01 5.746E+00 1.817E+00 7.817E+00 1.037E+01 3.891E+06 13.7175 1.00000
  2.239E+07 2.239E+07 2.561E+00 2.892E-01 6.483E+00 2.069E+00 8.841E+00 1.140E+01 4.115E+06 13.9477 1.00000
  2.512E+07 2.512E+07 2.574E+00 3.285E-01 7.311E+00 2.357E+00 9.997E+00 1.257E+01 4.344E+06 14.1779 1.00000
  2.818E+07 2.819E+07 2.586E+00 3.731E-01 8.243E+00 2.685E+00 1.130E+01 1.389E+01 4.576E+06 14.4082 1.00000
  3.162E+07 3.162E+07 2.599E+00 4.236E-01 9.290E+00 3.059E+00 1.277E+01 1.537E+01 4.812E+06 14.6384 1.00000
  3.548E+07 3.548E+07 2.611E+00 4.807E-01 1.047E+01 3.486E+00 1.443E+01 1.704E+01 5.051E+06 14.8687 1.00000
  3.981E+07 3.981E+07 2.623E+00 5.454E-01 1.179E+01 3.974E+00 1.631E+01 1.893E+01 5.292E+06 15.0989 1.00000
  4.467E+07 4.467E+07 2.636E+00 6.187E-01 1.327E+01 4.530E+00 1.842E+01 2.106E+01 5.535E+06 15.3292 1.00000
  5.012E+07 5.012E+07 2.648E+00 7.015E-01 1.494E+01 5.165E+00 2.081E+01 2.346E+01 5.781E+06 15.5594 1.00000
  5.623E+07 5.624E+07 2.660E+00 7.952E-01 1.682E+01 5.890E+00 2.350E+01 2.616E+01 6.028E+06 15.7897 1.00000
  6.310E+07 6.310E+07 2.673E+00 9.012E-01 1.892E+01 6.718E+00 2.654E+01 2.922E+01 6.277E+06 16.0199 1.00000
  7.079E+07 7.080E+07 2.685E+00 1.021E+00 2.129E+01 7.663E+00 2.997E+01 3.266E+01 6.526E+06 16.2502 1.00000
  7.943E+07 7.943E+07 2.698E+00 1.156E+00 2.394E+01 8.742E+00 3.384E+01 3.654E+01 6.777E+06 16.4804 1.00000
  8.913E+07 8.913E+07 2.710E+00 1.309E+00 2.692E+01 9.974E+00 3.821E+01 4.092E+01 7.028E+06 16.7107 1.00000
  1.000E+08 1.000E+08 2.722E+00 1.482E+00 3.027E+01 1.138E+01 4.313E+01 4.586E+01 7.279E+06 16.9409 1.00000
  1.122E+08 1.122E+08 2.735E+00 1.677E+00 3.403E+01 1.299E+01 4.869E+01 5.143E+01 7.531E+06 17.1712 1.00000
  1.259E+08 1.259E+08 2.747E+00 1.897E+00 3.825E+01 1.482E+01 5.497E+01 5.771E+01 7.783E+06 17.4014 1.00000
  1.413E+08 1.413E+08 2.760E+00 2.145E+00 4.298E+01 1.692E+01 6.205E+01 6.481E+01 8.034E+06 17.6317 1.00000
  1.585E+08 1.585E+08 2.772E+00 2.425E+00 4.830E+01 1.931E+01 7.004E+01 7.281E+01 8.286E+06 17.8620 1.00000
  1.778E+08 1.778E+08 2.785E+00 2.741E+00 5.426E+01 2.205E+01 7.905E+01 8.184E+01 8.537E+06 18.0922 1.00000
  1.995E+08 1.995E+08 2.797E+00 3.098E+00 6.096E+01 2.517E+01 8.923E+01 9.203E+01 8.787E+06 18.3225 1.00000
  2.239E+08 2.239E+08 2.810E+00 3.499E+00 6.848E+01 2.874E+01 1.007E+02 1.035E+02 9.037E+06 18.5527 1.00000
  2.512E+08 2.512E+08 2.823E+00 3.952E+00 7.691E+01 3.282E+01 1.137E+02 1.165E+02 9.286E+06 18.7830 1.00000
  2.818E+08 2.818E+08 2.836E+00 4.462E+00 8.638E+01 3.748E+01 1.283E+02 1.312E+02 9.535E+06 19.0132 1.00000
  3.162E+08 3.162E+08 2.848E+00 5.036E+00 9.701E+01 4.280E+01 1.448E+02 1.477E+02 9.782E+06 19.2435 1.00000
  3.548E+08 3.548E+08 2.861E+00 5.683E+00 1.089E+02 4.888E+01 1.635E+02 1.664E+02 1.003E+07 19.4738 1.00000
  3.981E+08 3.981E+08 2.874E+00 6.411E+00 1.223E+02 5.584E+01 1.846E+02 1.874E+02 1.027E+07 19.7040 1.00000
  4.467E+08 4.467E+08 2.887E+00 7.231E+00 1.373E+02 6.378E+01 2.083E+02 2.112E+02 1.052E+07 19.9343 1.00000
  5.012E+08 5.012E+08 2.900E+00 8.154E+00 1.542E+02 7.286E+01 2.352E+02 2.381E+02 1.076E+07 20.1645 1.00000
  5.623E+08 5.623E+08 2.914E+00 9.193E+00 1.731E+02 8.323E+01 2.655E+02 2.684E+02 1.100E+07 20.3948 1.00000
  6.310E+08 6.310E+08 2.927E+00 1.036E+01 1.943E+02 9.509E+01 2.998E+02 3.027E+02 1.125E+07 20.6250 1.00000
  7.079E+08 7.079E+08 2.940E+00 1.168E+01 2.181E+02 1.086E+02 3.385E+02 3.414E+02 1.149E+07 20.8553 1.00000
  7.943E+08 7.943E+08 2.953E+00 1.315E+01 2.449E+02 1.241E+02 3.822E+02 3.851E+02 1.172E+07 21.0856 1.00000
  8.913E+08 8.913E+08 2.967E+00 1.482E+01 2.748E+02 1.419E+02 4.315E+02 4.345E+02 1.196E+07 21.3158 1.00000
  1.000E+09 1.000E+09 2.980E+00 1.669E+01 3.085E+02 1.621E+02 4.873E+02 4.903E+02 1.220E+07 21.5461 1.00000
  1.122E+09 1.122E+09 2.994E+00 1.879E+01 3.462E+02 1.853E+02 5.503E+02 5.533E+02 1.243E+07 21.7763 1.00000
  1.259E+09 1.259E+09 3.007E+00 2.115E+01 3.886E+02 2.117E+02 6.215E+02 6.245E+02 1.267E+07 22.0066 1.00000
  1.413E+09 1.413E+09 3.021E+00 2.380E+01 4.361E+02 2.420E+02 7.019E+02 7.049E+02 1.290E+07 22.2368 1.00000
  1.585E+09 1.585E+09 3.035E+00 2.679E+01 4.895E+02 2.766E+02 7.929E+02 7.959E+02 1.313E+07 22.4671 1.00000
  1.778E+09 1.778E+09 3.049E+00 3.014E+01 5.493E+02 3.162E+02 8.956E+02 8.987E+02 1.336E+07 22.6974 1.00000
  1.995E+09 1.995E+09 3.063E+00 3.390E+01 6.165E+02 3.614E+02 1.012E+03 1.015E+03 1.359E+07 22.9276 1.00000
  2.239E+09 2.239E+09 3.077E+00 3.814E+01 6.918E+02 4.132E+02 1.143E+03 1.146E+03 1.381E+07 23.1579 1.00000
  2.512E+09 2.512E+09 3.091E+00 4.289E+01 7.764E+02 4.724E+02 1.292E+03 1.295E+03 1.404E+07 23.3881 1.00000
  2.818E+09 2.818E+09 3.105E+00 4.823E+01 8.712E+02 5.401E+02 1.460E+03 1.463E+03 1.426E+07 23.6184 1.00000
  3.162E+09 3.162E+09 3.119E+00 5.422E+01 9.776E+02 6.175E+02 1.649E+03 1.652E+03 1.448E+07 23.8487 1.00000
  3.548E+09 3.548E+09 3.133E+00 6.095E+01 1.097E+03 7.061E+02 1.864E+03 1.867E+03 1.470E+07 24.0789 1.00000
  3.981E+09 3.981E+09 3.148E+00 6.851E+01 1.231E+03 8.074E+02 2.107E+03 2.110E+03 1.492E+07 24.3092 1.00000
  4.467E+09 4.467E+09 3.162E+00 7.700E+01 1.381E+03 9.233E+02 2.382E+03 2.385E+03 1.514E+07 24.5394 1.00000
  5.012E+09 5.012E+09 3.177E+00 8.653E+01 1.550E+03 1.056E+03 2.693E+03 2.696E+03 1.535E+07 24.7697 1.00000
  5.623E+09 5.623E+09 3.192E+00 9.723E+01 1.739E+03 1.208E+03 3.044E+03 3.047E+03 1.557E+07 24.9999 1.00000
  6.310E+09 6.310E+09 3.206E+00 1.092E+02 1.952E+03 1.381E+03 3.442E+03 3.445E+03 1.578E+07 25.2302 1.00000
  7.079E+09 7.079E+09 3.221E+00 1.227E+02 2.190E+03 1.580E+03 3.893E+03 3.896E+03 1.599E+07 25.4605 1.00000
  7.943E+09 7.943E+09 3.236E+00 1.379E+02 2.457E+03 1.807E+03 4.402E+03 4.406E+03 1.620E+07 25.6907 1.00000
  8.913E+09 8.913E+09 3.251E+00 1.549E+02 2.757E+03 2.067E+03 4.979E+03 4.983E+03 1.640E+07 25.9210 1.00000
  1.000E+10 1.000E+10 3.266E+00 1.739E+02 3.094E+03 2.365E+03 5.633E+03 5.636E+03 1.661E+07 26.1512 1.00000
  1.122E+10 1.122E+10 3.281E+00 1.953E+02 3.471E+03 2.706E+03 6.372E+03 6.376E+03 1.681E+07 26.3815 1.00000
  1.259E+10 1.259E+10 3.296E+00 2.194E+02 3.895E+03 3.096E+03 7.210E+03 7.213E+03 1.702E+07 26.6118 1.00000
  1.413E+10 1.413E+10 3.312E+00 2.463E+02 4.371E+03 3.542E+03 8.159E+03 8.162E+03 1.722E+07 26.8420 1.00000
  1.585E+10 1.585E+10 3.327E+00 2.766E+02 4.904E+03 4.053E+03 9.233E+03 9.236E+03 1.742E+07 27.0723 1.00000
  1.778E+10 1.778E+10 3.342E+00 3.106E+02 5.502E+03 4.637E+03 1.045E+04 1.045E+04 1.761E+07 27.3025 1.00000
  1.995E+10 1.995E+10 3.358E+00 3.487E+02 6.174E+03 5.307E+03 1.183E+04 1.183E+04 1.781E+07 27.5328 1.00000
  2.239E+10 2.239E+10 3.374E+00 3.915E+02 6.927E+03 6.073E+03 1.339E+04 1.340E+04 1.800E+07 27.7631 1.00000
  2.512E+10 2.512E+10 3.389E+00 4.395E+02 7.772E+03 6.950E+03 1.516E+04 1.517E+04 1.819E+07 27.9933 1.00000
  2.818E+10 2.818E+10 3.405E+00 4.934E+02 8.721E+03 7.955E+03 1.717E+04 1.717E+04 1.838E+07 28.2236 1.00000
  3.162E+10 3.162E+10 3.421E+00 5.539E+02 9.785E+03 9.105E+03 1.944E+04 1.945E+04 1.857E+07 28.4538 1.00000
  3.548E+10 3.548E+10 3.437E+00 6.217E+02 1.098E+04 1.042E+04 2.202E+04 2.203E+04 1.876E+07 28.6841 1.00000
  3.981E+10 3.981E+10 3.453E+00 6.978E+02 1.232E+04 1.193E+04 2.495E+04 2.495E+04 1.894E+07 28.9143 1.00000
  4.467E+10 4.467E+10 3.470E+00 7.833E+02 1.382E+04 1.366E+04 2.826E+04 2.827E+04 1.913E+07 29.1446 1.00000
  5.012E+10 5.012E+10 3.486E+00 8.792E+02 1.551E+04 1.564E+04 3.202E+04 3.203E+04 1.931E+07 29.3749 1.00000
  5.623E+10 5.623E+10 3.502E+00 9.867E+02 1.740E+04 1.790E+04 3.629E+04 3.629E+04 1.949E+07 29.6051 1.00000
  6.310E+10 6.310E+10 3.519E+00 1.107E+03 1.952E+04 2.050E+04 4.113E+04 4.113E+04 1.967E+07 29.8354 1.00000
  7.079E+10 7.079E+10 3.535E+00 1.243E+03 2.190E+04 2.347E+04 4.661E+04 4.662E+04 1.984E+07 30.0656 1.00000
  7.943E+10 7.943E+10 3.552E+00 1.395E+03 2.458E+04 2.687E+04 5.284E+04 5.285E+04 2.002E+07 30.2959 1.00000
  8.913E+10 8.913E+10 3.569E+00 1.565E+03 2.757E+04 3.077E+04 5.991E+04 5.991E+04 2.019E+07 30.5262 1.00000
  1.000E+11 1.000E+11 3.585E+00 1.757E+03 3.094E+04 3.524E+04 6.793E+04 6.794E+04 2.036E+07 30.7564 1.00000
  1.122E+11 1.122E+11 3.602E+00 1.972E+03 3.471E+04 4.036E+04 7.704E+04 7.704E+04 2.053E+07 30.9867 1.00000
  1.259E+11 1.259E+11 3.619E+00 2.213E+03 3.895E+04 4.622E+04 8.738E+04 8.738E+04 2.070E+07 31.2169 1.00000
  1.413E+11 1.413E+11 3.637E+00 2.483E+03 4.370E+04 5.294E+04 9.912E+04 9.913E+04 2.086E+07 31.4472 1.00000
  1.585E+11 1.585E+11 3.654E+00 2.786E+03 4.903E+04 6.064E+04 1.125E+05 1.125E+05 2.103E+07 31.6774 1.00000
  1.778E+11 1.778E+11 3.671E+00 3.127E+03 5.501E+04 6.946E+04 1.276E+05 1.276E+05 2.119E+07 31.9077 1.00000
  1.995E+11 1.995E+11 3.689E+00 3.508E+03 6.172E+04 7.957E+04 1.448E+05 1.448E+05 2.135E+07 32.1380 1.00000
  2.239E+11 2.239E+11 3.706E+00 3.937E+03 6.925E+04 9.116E+04 1.643E+05 1.643E+05 2.151E+07 32.3682 1.00000
  2.512E+11 2.512E+11 3.724E+00 4.418E+03 7.770E+04 1.044E+05 1.865E+05 1.866E+05 2.166E+07 32.5985 1.00000
  2.818E+11 2.818E+11 3.741E+00 4.957E+03 8.718E+04 1.197E+05 2.118E+05 2.118E+05 2.182E+07 32.8287 1.00000
  3.162E+11 3.162E+11 3.759E+00 5.563E+03 9.781E+04 1.371E+05 2.405E+05 2.405E+05 2.197E+07 33.0590 1.00000
  3.548E+11 3.548E+11 3.777E+00 6.242E+03 1.097E+05 1.571E+05 2.731E+05 2.731E+05 2.212E+07 33.2893 1.00000
  3.981E+11 3.981E+11 3.795E+00 7.004E+03 1.231E+05 1.800E+05 3.101E+05 3.101E+05 2.227E+07 33.5195 1.00000
  4.467E+11 4.467E+11 3.813E+00 7.859E+03 1.381E+05 2.063E+05 3.523E+05 3.523E+05 2.242E+07 33.7498 1.00000
  5.012E+11 5.012E+11 3.832E+00 8.818E+03 1.550E+05 2.364E+05 4.002E+05 4.002E+05 2.256E+07 33.9800 1.00000
  5.623E+11 5.623E+11 3.850E+00 9.895E+03 1.739E+05 2.709E+05 4.547E+05 4.547E+05 2.271E+07 34.2103 1.00000
  6.310E+11 6.310E+11 3.868E+00 1.110E+04 1.951E+05 3.105E+05 5.167E+05 5.168E+05 2.285E+07 34.4405 1.00000
  7.079E+11 7.079E+11 3.887E+00 1.246E+04 2.189E+05 3.559E+05 5.873E+05 5.873E+05 2.299E+07 34.6708 1.00000
  7.943E+11 7.943E+11 3.905E+00 1.398E+04 2.456E+05 4.080E+05 6.676E+05 6.676E+05 2.313E+07 34.9011 1.00000
  8.913E+11 8.913E+11 3.924E+00 1.568E+04 2.756E+05 4.677E+05 7.589E+05 7.589E+05 2.326E+07 35.1313 1.00000
  1.000E+12 1.000E+12 3.943E+00 1.760E+04 3.092E+05 5.361E+05 8.629E+05 8.629E+05 2.340E+07 35.3616 1.00000
  1.122E+12 1.122E+12 3.962E+00 1.975E+04 3.469E+05 6.146E+05 9.813E+05 9.813E+05 2.353E+07 35.5918 1.00000
  1.259E+12 1.259E+12 3.981E+00 2.216E+04 3.892E+05 7.047E+05 1.116E+06 1.116E+06 2.366E+07 35.8221 1.00000
  1.413E+12 1.413E+12 4.000E+00 2.486E+04 4.367E+05 8.079E+05 1.269E+06 1.269E+06 2.379E+07 36.0524 1.00000
  1.585E+12 1.585E+12 4.019E+00 2.789E+04 4.900E+05 9.264E+05 1.444E+06 1.444E+06 2.392E+07 36.2826 1.00000
  1.778E+12 1.778E+12 4.039E+00 3.130E+04 5.497E+05 1.062E+06 1.643E+06 1.643E+06 2.404E+07 36.5129 1.00000
  1.995E+12 1.995E+12 4.058E+00 3.512E+04 6.168E+05 1.218E+06 1.870E+06 1.870E+06 2.417E+07 36.7431 1.00000
  2.239E+12 2.239E+12 4.078E+00 3.940E+04 6.920E+05 1.397E+06 2.128E+06 2.128E+06 2.429E+07 36.9734 1.00000
  2.512E+12 2.512E+12 4.098E+00 4.421E+04 7.764E+05 1.602E+06 2.423E+06 2.423E+06 2.441E+07 37.2036 1.00000
  2.818E+12 2.818E+12 4.117E+00 4.961E+04 8.711E+05 1.837E+06 2.758E+06 2.758E+06 2.453E+07 37.4339 1.00000
  3.162E+12 3.162E+12 4.137E+00 5.566E+04 9.774E+05 2.107E+06 3.140E+06 3.140E+06 2.465E+07 37.6642 1.00000
  3.548E+12 3.548E+12 4.157E+00 6.245E+04 1.097E+06 2.417E+06 3.576E+06 3.576E+06 2.476E+07 37.8944 1.00000
  3.981E+12 3.981E+12 4.177E+00 7.007E+04 1.230E+06 2.773E+06 4.073E+06 4.073E+06 2.488E+07 38.1247 1.00000
  4.467E+12 4.467E+12 4.198E+00 7.863E+04 1.380E+06 3.180E+06 4.639E+06 4.639E+06 2.499E+07 38.3549 1.00000
  5.012E+12 5.012E+12 4.218E+00 8.822E+04 1.549E+06 3.649E+06 5.286E+06 5.286E+06 2.510E+07 38.5852 1.00000
  5.623E+12 5.623E+12 4.238E+00 9.899E+04 1.738E+06 4.186E+06 6.022E+06 6.022E+06 2.521E+07 38.8155 1.00000
  6.310E+12 6.310E+12 4.259E+00 1.111E+05 1.950E+06 4.802E+06 6.863E+06 6.863E+06 2.531E+07 39.0457 1.00000
  7.079E+12 7.079E+12 4.280E+00 1.246E+05 2.187E+06 5.510E+06 7.822E+06 7.822E+06 2.542E+07 39.2760 1.00000
  7.943E+12 7.943E+12 4.300E+00 1.398E+05 2.454E+06 6.322E+06 8.916E+06 8.916E+06 2.552E+07 39.5062 1.00000
  8.913E+12 8.913E+12 4.321E+00 1.569E+05 2.754E+06 7.254E+06 1.016E+07 1.016E+07 2.562E+07 39.7365 1.00000
  1.000E+13 1.000E+13 4.342E+00 1.760E+05 3.089E+06 8.324E+06 1.159E+07 1.159E+07 2.572E+07 39.9668 1.00000
  1.122E+13 1.122E+13 4.364E+00 1.975E+05 3.466E+06 9.553E+06 1.322E+07 1.322E+07 2.582E+07 40.1970 1.00000
  1.259E+13 1.259E+13 4.385E+00 2.216E+05 3.889E+06 1.096E+07 1.507E+07 1.507E+07 2.592E+07 40.4273 1.00000
  1.413E+13 1.413E+13 4.406E+00 2.486E+05 4.363E+06 1.258E+07 1.719E+07 1.719E+07 2.602E+07 40.6575 1.00000
  1.585E+13 1.585E+13 4.428E+00 2.790E+05 4.895E+06 1.444E+07 1.962E+07 1.962E+07 2.611E+07 40.8878 1.00000
  1.778E+13 1.778E+13 4.449E+00 3.130E+05 5.492E+06 1.658E+07 2.238E+07 2.238E+07 2.620E+07 41.1180 1.00000
  1.995E+13 1.995E+13 4.471E+00 3.512E+05 6.162E+06 1.903E+07 2.554E+07 2.554E+07 2.629E+07 41.3483 1.00000
  2.239E+13 2.239E+13 4.493E+00 3.941E+05 6.914E+06 2.184E+07 2.915E+07 2.915E+07 2.638E+07 41.5786 1.00000
  2.512E+13 2.512E+13 4.515E+00 4.422E+05 7.757E+06 2.507E+07 3.327E+07 3.327E+07 2.647E+07 41.8088 1.00000
  2.818E+13 2.818E+13 4.537E+00 4.961E+05 8.703E+06 2.878E+07 3.798E+07 3.798E+07 2.656E+07 42.0391 1.00000
  3.162E+13 3.162E+13 4.559E+00 5.567E+05 9.764E+06 3.305E+07 4.337E+07 4.337E+07 2.664E+07 42.2693 1.00000
  3.548E+13 3.548E+13 4.581E+00 6.246E+05 1.096E+07 3.794E+07 4.952E+07 4.952E+07 2.673E+07 42.4996 1.00000
  3.981E+13 3.981E+13 4.604E+00 7.008E+05 1.229E+07 4.356E+07 5.655E+07 5.655E+07 2.681E+07 42.7299 1.00000
  4.467E+13 4.467E+13 4.626E+00 7.863E+05 1.379E+07 5.002E+07 6.460E+07 6.460E+07 2.689E+07 42.9601 1.00000
  5.012E+13 5.012E+13 4.649E+00 8.822E+05 1.547E+07 5.744E+07 7.379E+07 7.379E+07 2.697E+07 43.1904 1.00000
  5.623E+13 5.623E+13 4.672E+00 9.899E+05 1.736E+07 6.596E+07 8.431E+07 8.431E+07 2.705E+07 43.4206 1.00000
  6.310E+13 6.310E+13 4.695E+00 1.111E+06 1.948E+07 7.574E+07 9.633E+07 9.633E+07 2.712E+07 43.6509 1.00000
  7.079E+13 7.079E+13 4.718E+00 1.246E+06 2.185E+07 8.699E+07 1.101E+08 1.101E+08 2.720E+07 43.8811 1.00000
  7.943E+13 7.943E+13 4.741E+00 1.398E+06 2.452E+07 9.991E+07 1.258E+08 1.258E+08 2.727E+07 44.1114 1.00000
  8.913E+13 8.913E+13 4.764E+00 1.569E+06 2.751E+07 1.147E+08 1.438E+08 1.438E+08 2.734E+07 44.3417 1.00000
