 Incident particle is a Tau with M = 1776.82000 MeV
 Index = 0: GelInPhotographicEmulsion
      Absorber with <Z/A> = 0.53967
 Sternheimer coef:  a     k=m_s   x_0    x_1    I[eV]   Cbar  delta0
                 0.1010  3.4418  0.1709  2.7058   74.8  3.2687 0.00

 *** Table generated with PUMAS v1.00 ***

      T         p     Ionization  brems     pair     photonuc  Radloss    dE/dx   CSDA Range  delta   beta
    [MeV]    [MeV/c]  -----------------------[MeV cm^2/g]------------------------  [g/cm^2]
  1.000E+05 1.018E+05 2.359E+00 1.324E-04 2.060E-03 8.386E-03 1.058E-02 2.369E+00 2.110E+04  4.9109 0.99985
  1.122E+05 1.140E+05 2.379E+00 1.529E-04 2.488E-03 9.473E-03 1.211E-02 2.391E+00 2.623E+04  5.1234 0.99988
  1.259E+05 1.277E+05 2.400E+00 1.765E-04 2.994E-03 1.065E-02 1.382E-02 2.413E+00 3.193E+04  5.3379 0.99990
  1.413E+05 1.430E+05 2.420E+00 2.037E-04 3.591E-03 1.197E-02 1.576E-02 2.436E+00 3.826E+04  5.5545 0.99992
  1.585E+05 1.603E+05 2.440E+00 2.349E-04 4.292E-03 1.344E-02 1.797E-02 2.458E+00 4.531E+04  5.7728 0.99994
  1.778E+05 1.796E+05 2.460E+00 2.709E-04 5.116E-03 1.510E-02 2.048E-02 2.481E+00 5.314E+04  5.9928 0.99995
  1.995E+05 2.013E+05 2.481E+00 3.122E-04 6.081E-03 1.698E-02 2.337E-02 2.504E+00 6.184E+04  6.2143 0.99996
  2.239E+05 2.256E+05 2.501E+00 3.596E-04 7.209E-03 1.904E-02 2.661E-02 2.527E+00 7.152E+04  6.4372 0.99997
  2.512E+05 2.530E+05 2.521E+00 4.140E-04 8.526E-03 2.135E-02 3.029E-02 2.551E+00 8.228E+04  6.6612 0.99998
  2.818E+05 2.836E+05 2.541E+00 4.765E-04 1.006E-02 2.396E-02 3.449E-02 2.575E+00 9.424E+04  6.8863 0.99998
  3.162E+05 3.180E+05 2.560E+00 5.483E-04 1.184E-02 2.690E-02 3.929E-02 2.600E+00 1.075E+05  7.1124 0.99998
  3.548E+05 3.566E+05 2.580E+00 6.305E-04 1.391E-02 3.021E-02 4.475E-02 2.625E+00 1.223E+05  7.3392 0.99999
  3.981E+05 3.999E+05 2.600E+00 7.248E-04 1.631E-02 3.390E-02 5.094E-02 2.651E+00 1.387E+05  7.5668 0.99999
  4.467E+05 4.485E+05 2.620E+00 8.329E-04 1.909E-02 3.804E-02 5.796E-02 2.678E+00 1.569E+05  7.7949 0.99999
  5.012E+05 5.030E+05 2.639E+00 9.568E-04 2.230E-02 4.270E-02 6.596E-02 2.705E+00 1.772E+05  8.0236 0.99999
  5.623E+05 5.641E+05 2.659E+00 1.099E-03 2.601E-02 4.776E-02 7.486E-02 2.734E+00 1.997E+05  8.2526 1.00000
  6.310E+05 6.327E+05 2.678E+00 1.261E-03 3.028E-02 5.346E-02 8.500E-02 2.763E+00 2.246E+05  8.4819 1.00000
  7.079E+05 7.097E+05 2.698E+00 1.447E-03 3.520E-02 5.989E-02 9.654E-02 2.794E+00 2.524E+05  8.7114 1.00000
  7.943E+05 7.961E+05 2.717E+00 1.660E-03 4.086E-02 6.716E-02 1.097E-01 2.827E+00 2.831E+05  8.9411 1.00000
  8.913E+05 8.930E+05 2.736E+00 1.904E-03 4.736E-02 7.538E-02 1.246E-01 2.861E+00 3.172E+05  9.1709 1.00000
  1.000E+06 1.002E+06 2.755E+00 2.183E-03 5.482E-02 8.467E-02 1.417E-01 2.897E+00 3.549E+05  9.4007 1.00000
  1.122E+06 1.124E+06 2.774E+00 2.502E-03 6.336E-02 9.519E-02 1.611E-01 2.936E+00 3.968E+05  9.6306 1.00000
  1.259E+06 1.261E+06 2.793E+00 2.867E-03 7.315E-02 1.071E-01 1.831E-01 2.977E+00 4.431E+05  9.8605 1.00000
  1.413E+06 1.414E+06 2.812E+00 3.284E-03 8.434E-02 1.206E-01 2.082E-01 3.021E+00 4.943E+05 10.0904 1.00000
  1.585E+06 1.587E+06 2.831E+00 3.760E-03 9.713E-02 1.359E-01 2.368E-01 3.068E+00 5.510E+05 10.3204 1.00000
  1.778E+06 1.780E+06 2.850E+00 4.305E-03 1.117E-01 1.533E-01 2.694E-01 3.119E+00 6.135E+05 10.5504 1.00000
  1.995E+06 1.997E+06 2.868E+00 4.928E-03 1.284E-01 1.731E-01 3.064E-01 3.174E+00 6.824E+05 10.7805 1.00000
  2.239E+06 2.240E+06 2.886E+00 5.639E-03 1.473E-01 1.955E-01 3.485E-01 3.235E+00 7.584E+05 11.0106 1.00000
  2.512E+06 2.514E+06 2.904E+00 6.451E-03 1.689E-01 2.210E-01 3.963E-01 3.301E+00 8.420E+05 11.2406 1.00000
  2.818E+06 2.820E+06 2.922E+00 7.378E-03 1.934E-01 2.499E-01 4.507E-01 3.373E+00 9.339E+05 11.4707 1.00000
  3.162E+06 3.164E+06 2.940E+00 8.436E-03 2.213E-01 2.829E-01 5.126E-01 3.453E+00 1.035E+06 11.7009 1.00000
  3.548E+06 3.550E+06 2.958E+00 9.644E-03 2.530E-01 3.203E-01 5.830E-01 3.541E+00 1.145E+06 11.9310 1.00000
  3.981E+06 3.983E+06 2.975E+00 1.102E-02 2.889E-01 3.629E-01 6.629E-01 3.638E+00 1.266E+06 12.1612 1.00000
  4.467E+06 4.469E+06 2.993E+00 1.259E-02 3.296E-01 4.114E-01 7.537E-01 3.746E+00 1.397E+06 12.3913 1.00000
  5.012E+06 5.014E+06 3.010E+00 1.439E-02 3.758E-01 4.667E-01 8.568E-01 3.867E+00 1.540E+06 12.6215 1.00000
  5.623E+06 5.625E+06 3.027E+00 1.643E-02 4.280E-01 5.296E-01 9.740E-01 4.001E+00 1.696E+06 12.8517 1.00000
  6.310E+06 6.311E+06 3.044E+00 1.876E-02 4.872E-01 6.012E-01 1.107E+00 4.151E+00 1.864E+06 13.0819 1.00000
  7.079E+06 7.081E+06 3.060E+00 2.141E-02 5.540E-01 6.828E-01 1.258E+00 4.318E+00 2.046E+06 13.3121 1.00000
  7.943E+06 7.945E+06 3.077E+00 2.443E-02 6.296E-01 7.758E-01 1.430E+00 4.506E+00 2.242E+06 13.5423 1.00000
  8.913E+06 8.914E+06 3.093E+00 2.788E-02 7.150E-01 8.817E-01 1.625E+00 4.718E+00 2.452E+06 13.7725 1.00000
  1.000E+07 1.000E+07 3.109E+00 3.179E-02 8.114E-01 1.002E+00 1.846E+00 4.955E+00 2.677E+06 14.0027 1.00000
  1.122E+07 1.122E+07 3.125E+00 3.625E-02 9.201E-01 1.140E+00 2.097E+00 5.222E+00 2.917E+06 14.2329 1.00000
  1.259E+07 1.259E+07 3.141E+00 4.133E-02 1.043E+00 1.297E+00 2.381E+00 5.522E+00 3.172E+06 14.4631 1.00000
  1.413E+07 1.413E+07 3.157E+00 4.710E-02 1.181E+00 1.476E+00 2.704E+00 5.861E+00 3.443E+06 14.6934 1.00000
  1.585E+07 1.585E+07 3.172E+00 5.366E-02 1.337E+00 1.680E+00 3.071E+00 6.243E+00 3.728E+06 14.9236 1.00000
  1.778E+07 1.778E+07 3.188E+00 6.112E-02 1.513E+00 1.913E+00 3.487E+00 6.675E+00 4.027E+06 15.1538 1.00000
  1.995E+07 1.995E+07 3.203E+00 6.960E-02 1.711E+00 2.179E+00 3.959E+00 7.162E+00 4.341E+06 15.3841 1.00000
  2.239E+07 2.239E+07 3.219E+00 7.924E-02 1.934E+00 2.482E+00 4.495E+00 7.713E+00 4.669E+06 15.6143 1.00000
  2.512E+07 2.512E+07 3.234E+00 9.018E-02 2.184E+00 2.828E+00 5.102E+00 8.336E+00 5.010E+06 15.8445 1.00000
  2.818E+07 2.819E+07 3.249E+00 1.026E-01 2.467E+00 3.222E+00 5.792E+00 9.041E+00 5.363E+06 16.0748 1.00000
  3.162E+07 3.162E+07 3.264E+00 1.167E-01 2.784E+00 3.672E+00 6.574E+00 9.838E+00 5.728E+06 16.3050 1.00000
  3.548E+07 3.548E+07 3.279E+00 1.327E-01 3.142E+00 4.186E+00 7.461E+00 1.074E+01 6.104E+06 16.5353 1.00000
  3.981E+07 3.981E+07 3.294E+00 1.509E-01 3.543E+00 4.773E+00 8.467E+00 1.176E+01 6.490E+06 16.7655 1.00000
  4.467E+07 4.467E+07 3.309E+00 1.714E-01 3.995E+00 5.442E+00 9.609E+00 1.292E+01 6.884E+06 16.9958 1.00000
  5.012E+07 5.012E+07 3.324E+00 1.948E-01 4.503E+00 6.206E+00 1.090E+01 1.423E+01 7.287E+06 17.2260 1.00000
  5.623E+07 5.624E+07 3.339E+00 2.212E-01 5.073E+00 7.079E+00 1.237E+01 1.571E+01 7.696E+06 17.4563 1.00000
  6.310E+07 6.310E+07 3.354E+00 2.512E-01 5.715E+00 8.074E+00 1.404E+01 1.739E+01 8.112E+06 17.6865 1.00000
  7.079E+07 7.080E+07 3.369E+00 2.852E-01 6.435E+00 9.212E+00 1.593E+01 1.930E+01 8.533E+06 17.9168 1.00000
  7.943E+07 7.943E+07 3.384E+00 3.236E-01 7.244E+00 1.051E+01 1.808E+01 2.146E+01 8.958E+06 18.1470 1.00000
  8.913E+07 8.913E+07 3.399E+00 3.671E-01 8.154E+00 1.199E+01 2.051E+01 2.391E+01 9.386E+06 18.3773 1.00000
  1.000E+08 1.000E+08 3.414E+00 4.164E-01 9.175E+00 1.369E+01 2.328E+01 2.669E+01 9.817E+06 18.6075 1.00000
  1.122E+08 1.122E+08 3.429E+00 4.721E-01 1.032E+01 1.562E+01 2.641E+01 2.984E+01 1.025E+07 18.8378 1.00000
  1.259E+08 1.259E+08 3.444E+00 5.351E-01 1.161E+01 1.783E+01 2.997E+01 3.342E+01 1.068E+07 19.0680 1.00000
  1.413E+08 1.413E+08 3.460E+00 6.063E-01 1.306E+01 2.035E+01 3.401E+01 3.747E+01 1.112E+07 19.2983 1.00000
  1.585E+08 1.585E+08 3.475E+00 6.869E-01 1.468E+01 2.323E+01 3.860E+01 4.207E+01 1.155E+07 19.5286 1.00000
  1.778E+08 1.778E+08 3.490E+00 7.780E-01 1.650E+01 2.652E+01 4.380E+01 4.729E+01 1.199E+07 19.7588 1.00000
  1.995E+08 1.995E+08 3.505E+00 8.808E-01 1.855E+01 3.028E+01 4.971E+01 5.321E+01 1.242E+07 19.9891 1.00000
  2.239E+08 2.239E+08 3.521E+00 9.970E-01 2.084E+01 3.458E+01 5.642E+01 5.994E+01 1.285E+07 20.2193 1.00000
  2.512E+08 2.512E+08 3.536E+00 1.128E+00 2.342E+01 3.948E+01 6.403E+01 6.757E+01 1.328E+07 20.4496 1.00000
  2.818E+08 2.818E+08 3.552E+00 1.276E+00 2.632E+01 4.509E+01 7.268E+01 7.623E+01 1.371E+07 20.6798 1.00000
  3.162E+08 3.162E+08 3.567E+00 1.443E+00 2.957E+01 5.150E+01 8.250E+01 8.607E+01 1.414E+07 20.9101 1.00000
  3.548E+08 3.548E+08 3.583E+00 1.632E+00 3.321E+01 5.881E+01 9.366E+01 9.724E+01 1.456E+07 21.1404 1.00000
  3.981E+08 3.981E+08 3.599E+00 1.845E+00 3.730E+01 6.718E+01 1.063E+02 1.099E+02 1.498E+07 21.3706 1.00000
  4.467E+08 4.467E+08 3.615E+00 2.084E+00 4.190E+01 7.674E+01 1.207E+02 1.243E+02 1.540E+07 21.6009 1.00000
  5.012E+08 5.012E+08 3.630E+00 2.355E+00 4.705E+01 8.766E+01 1.371E+02 1.407E+02 1.581E+07 21.8311 1.00000
  5.623E+08 5.623E+08 3.646E+00 2.659E+00 5.283E+01 1.001E+02 1.556E+02 1.593E+02 1.622E+07 22.0614 1.00000
  6.310E+08 6.310E+08 3.662E+00 3.003E+00 5.932E+01 1.144E+02 1.767E+02 1.804E+02 1.662E+07 22.2916 1.00000
  7.079E+08 7.079E+08 3.678E+00 3.390E+00 6.661E+01 1.307E+02 2.007E+02 2.044E+02 1.702E+07 22.5219 1.00000
  7.943E+08 7.943E+08 3.695E+00 3.826E+00 7.478E+01 1.494E+02 2.280E+02 2.317E+02 1.742E+07 22.7522 1.00000
  8.913E+08 8.913E+08 3.711E+00 4.317E+00 8.396E+01 1.707E+02 2.590E+02 2.627E+02 1.782E+07 22.9824 1.00000
  1.000E+09 1.000E+09 3.727E+00 4.869E+00 9.425E+01 1.951E+02 2.942E+02 2.979E+02 1.821E+07 23.2127 1.00000
  1.122E+09 1.122E+09 3.744E+00 5.492E+00 1.058E+02 2.229E+02 3.342E+02 3.380E+02 1.859E+07 23.4429 1.00000
  1.259E+09 1.259E+09 3.760E+00 6.192E+00 1.188E+02 2.548E+02 3.797E+02 3.835E+02 1.897E+07 23.6732 1.00000
  1.413E+09 1.413E+09 3.777E+00 6.980E+00 1.333E+02 2.912E+02 4.315E+02 4.353E+02 1.935E+07 23.9034 1.00000
  1.585E+09 1.585E+09 3.794E+00 7.867E+00 1.496E+02 3.328E+02 4.903E+02 4.941E+02 1.972E+07 24.1337 1.00000
  1.778E+09 1.778E+09 3.810E+00 8.865E+00 1.679E+02 3.805E+02 5.573E+02 5.611E+02 2.009E+07 24.3640 1.00000
  1.995E+09 1.995E+09 3.827E+00 9.987E+00 1.885E+02 4.349E+02 6.334E+02 6.372E+02 2.045E+07 24.5942 1.00000
  2.239E+09 2.239E+09 3.844E+00 1.125E+01 2.115E+02 4.972E+02 7.200E+02 7.238E+02 2.081E+07 24.8245 1.00000
  2.512E+09 2.512E+09 3.861E+00 1.267E+01 2.374E+02 5.684E+02 8.185E+02 8.224E+02 2.117E+07 25.0547 1.00000
  2.818E+09 2.818E+09 3.879E+00 1.426E+01 2.664E+02 6.499E+02 9.306E+02 9.345E+02 2.152E+07 25.2850 1.00000
  3.162E+09 3.162E+09 3.896E+00 1.606E+01 2.990E+02 7.431E+02 1.058E+03 1.062E+03 2.186E+07 25.5153 1.00000
  3.548E+09 3.548E+09 3.913E+00 1.807E+01 3.355E+02 8.497E+02 1.203E+03 1.207E+03 2.220E+07 25.7455 1.00000
  3.981E+09 3.981E+09 3.931E+00 2.034E+01 3.765E+02 9.716E+02 1.369E+03 1.372E+03 2.254E+07 25.9758 1.00000
  4.467E+09 4.467E+09 3.948E+00 2.288E+01 4.225E+02 1.111E+03 1.557E+03 1.561E+03 2.287E+07 26.2060 1.00000
  5.012E+09 5.012E+09 3.966E+00 2.574E+01 4.742E+02 1.271E+03 1.771E+03 1.775E+03 2.320E+07 26.4363 1.00000
  5.623E+09 5.623E+09 3.984E+00 2.896E+01 5.321E+02 1.453E+03 2.014E+03 2.018E+03 2.353E+07 26.6665 1.00000
  6.310E+09 6.310E+09 4.002E+00 3.257E+01 5.971E+02 1.662E+03 2.292E+03 2.296E+03 2.385E+07 26.8968 1.00000
  7.079E+09 7.079E+09 4.020E+00 3.662E+01 6.700E+02 1.901E+03 2.608E+03 2.612E+03 2.416E+07 27.1271 1.00000
  7.943E+09 7.943E+09 4.038E+00 4.118E+01 7.518E+02 2.175E+03 2.968E+03 2.972E+03 2.447E+07 27.3573 1.00000
  8.913E+09 8.913E+09 4.056E+00 4.629E+01 8.436E+02 2.488E+03 3.378E+03 3.382E+03 2.478E+07 27.5876 1.00000
  1.000E+10 1.000E+10 4.074E+00 5.204E+01 9.466E+02 2.846E+03 3.845E+03 3.849E+03 2.508E+07 27.8178 1.00000
  1.122E+10 1.122E+10 4.092E+00 5.849E+01 1.062E+03 3.256E+03 4.377E+03 4.381E+03 2.538E+07 28.0481 1.00000
  1.259E+10 1.259E+10 4.111E+00 6.573E+01 1.192E+03 3.725E+03 4.983E+03 4.987E+03 2.567E+07 28.2784 1.00000
  1.413E+10 1.413E+10 4.129E+00 7.386E+01 1.337E+03 4.262E+03 5.673E+03 5.678E+03 2.596E+07 28.5086 1.00000
  1.585E+10 1.585E+10 4.148E+00 8.300E+01 1.501E+03 4.877E+03 6.461E+03 6.465E+03 2.625E+07 28.7389 1.00000
  1.778E+10 1.778E+10 4.167E+00 9.325E+01 1.684E+03 5.581E+03 7.358E+03 7.362E+03 2.653E+07 28.9691 1.00000
  1.995E+10 1.995E+10 4.186E+00 1.048E+02 1.889E+03 6.386E+03 8.380E+03 8.384E+03 2.680E+07 29.1994 1.00000
  2.239E+10 2.239E+10 4.205E+00 1.177E+02 2.120E+03 7.308E+03 9.546E+03 9.550E+03 2.708E+07 29.4297 1.00000
  2.512E+10 2.512E+10 4.224E+00 1.322E+02 2.378E+03 8.364E+03 1.087E+04 1.088E+04 2.734E+07 29.6599 1.00000
  2.818E+10 2.818E+10 4.243E+00 1.485E+02 2.669E+03 9.573E+03 1.239E+04 1.239E+04 2.761E+07 29.8902 1.00000
  3.162E+10 3.162E+10 4.262E+00 1.667E+02 2.994E+03 1.096E+04 1.412E+04 1.412E+04 2.787E+07 30.1204 1.00000
  3.548E+10 3.548E+10 4.282E+00 1.872E+02 3.360E+03 1.254E+04 1.609E+04 1.609E+04 2.813E+07 30.3507 1.00000
  3.981E+10 3.981E+10 4.301E+00 2.103E+02 3.770E+03 1.436E+04 1.834E+04 1.834E+04 2.838E+07 30.5809 1.00000
  4.467E+10 4.467E+10 4.321E+00 2.361E+02 4.229E+03 1.644E+04 2.090E+04 2.091E+04 2.863E+07 30.8112 1.00000
  5.012E+10 5.012E+10 4.341E+00 2.651E+02 4.746E+03 1.882E+04 2.383E+04 2.383E+04 2.887E+07 31.0415 1.00000
  5.623E+10 5.623E+10 4.361E+00 2.976E+02 5.325E+03 2.154E+04 2.716E+04 2.717E+04 2.911E+07 31.2717 1.00000
  6.310E+10 6.310E+10 4.381E+00 3.341E+02 5.974E+03 2.466E+04 3.097E+04 3.098E+04 2.935E+07 31.5020 1.00000
  7.079E+10 7.079E+10 4.401E+00 3.751E+02 6.703E+03 2.824E+04 3.532E+04 3.532E+04 2.958E+07 31.7322 1.00000
  7.943E+10 7.943E+10 4.421E+00 4.211E+02 7.521E+03 3.234E+04 4.028E+04 4.028E+04 2.981E+07 31.9625 1.00000
  8.913E+10 8.913E+10 4.441E+00 4.727E+02 8.438E+03 3.703E+04 4.594E+04 4.595E+04 3.004E+07 32.1928 1.00000
  1.000E+11 1.000E+11 4.462E+00 5.306E+02 9.468E+03 4.241E+04 5.241E+04 5.241E+04 3.026E+07 32.4230 1.00000
  1.122E+11 1.122E+11 4.482E+00 5.956E+02 1.062E+04 4.857E+04 5.979E+04 5.979E+04 3.048E+07 32.6533 1.00000
  1.259E+11 1.259E+11 4.503E+00 6.685E+02 1.192E+04 5.562E+04 6.821E+04 6.822E+04 3.069E+07 32.8835 1.00000
  1.413E+11 1.413E+11 4.524E+00 7.504E+02 1.337E+04 6.371E+04 7.783E+04 7.784E+04 3.090E+07 33.1138 1.00000
  1.585E+11 1.585E+11 4.545E+00 8.422E+02 1.500E+04 7.297E+04 8.882E+04 8.883E+04 3.111E+07 33.3440 1.00000
  1.778E+11 1.778E+11 4.566E+00 9.452E+02 1.683E+04 8.359E+04 1.014E+05 1.014E+05 3.132E+07 33.5743 1.00000
  1.995E+11 1.995E+11 4.587E+00 1.061E+03 1.889E+04 9.576E+04 1.157E+05 1.157E+05 3.152E+07 33.8046 1.00000
  2.239E+11 2.239E+11 4.608E+00 1.191E+03 2.119E+04 1.097E+05 1.321E+05 1.321E+05 3.171E+07 34.0348 1.00000
  2.512E+11 2.512E+11 4.630E+00 1.336E+03 2.378E+04 1.257E+05 1.508E+05 1.508E+05 3.191E+07 34.2651 1.00000
  2.818E+11 2.818E+11 4.651E+00 1.500E+03 2.668E+04 1.440E+05 1.722E+05 1.722E+05 3.210E+07 34.4953 1.00000
  3.162E+11 3.162E+11 4.673E+00 1.683E+03 2.993E+04 1.650E+05 1.966E+05 1.966E+05 3.229E+07 34.7256 1.00000
  3.548E+11 3.548E+11 4.695E+00 1.888E+03 3.358E+04 1.890E+05 2.245E+05 2.245E+05 3.247E+07 34.9559 1.00000
  3.981E+11 3.981E+11 4.716E+00 2.119E+03 3.768E+04 2.166E+05 2.564E+05 2.564E+05 3.265E+07 35.1861 1.00000
  4.467E+11 4.467E+11 4.738E+00 2.378E+03 4.228E+04 2.482E+05 2.929E+05 2.929E+05 3.283E+07 35.4164 1.00000
  5.012E+11 5.012E+11 4.761E+00 2.669E+03 4.744E+04 2.845E+05 3.346E+05 3.346E+05 3.300E+07 35.6466 1.00000
  5.623E+11 5.623E+11 4.783E+00 2.995E+03 5.322E+04 3.260E+05 3.823E+05 3.823E+05 3.317E+07 35.8769 1.00000
  6.310E+11 6.310E+11 4.805E+00 3.360E+03 5.971E+04 3.737E+05 4.368E+05 4.368E+05 3.334E+07 36.1071 1.00000
  7.079E+11 7.079E+11 4.828E+00 3.771E+03 6.700E+04 4.283E+05 4.991E+05 4.991E+05 3.351E+07 36.3374 1.00000
  7.943E+11 7.943E+11 4.850E+00 4.231E+03 7.517E+04 4.910E+05 5.704E+05 5.704E+05 3.367E+07 36.5677 1.00000
  8.913E+11 8.913E+11 4.873E+00 4.748E+03 8.434E+04 5.628E+05 6.519E+05 6.519E+05 3.383E+07 36.7979 1.00000
  1.000E+12 1.000E+12 4.896E+00 5.328E+03 9.463E+04 6.452E+05 7.451E+05 7.451E+05 3.399E+07 37.0282 1.00000
  1.122E+12 1.122E+12 4.919E+00 5.978E+03 1.062E+05 7.397E+05 8.518E+05 8.518E+05 3.414E+07 37.2584 1.00000
  1.259E+12 1.259E+12 4.942E+00 6.708E+03 1.191E+05 8.480E+05 9.738E+05 9.738E+05 3.429E+07 37.4887 1.00000
  1.413E+12 1.413E+12 4.965E+00 7.527E+03 1.336E+05 9.723E+05 1.113E+06 1.113E+06 3.444E+07 37.7190 1.00000
  1.585E+12 1.585E+12 4.989E+00 8.446E+03 1.499E+05 1.115E+06 1.273E+06 1.273E+06 3.458E+07 37.9492 1.00000
  1.778E+12 1.778E+12 5.012E+00 9.477E+03 1.682E+05 1.278E+06 1.456E+06 1.456E+06 3.473E+07 38.1795 1.00000
  1.995E+12 1.995E+12 5.036E+00 1.063E+04 1.888E+05 1.466E+06 1.665E+06 1.665E+06 3.487E+07 38.4097 1.00000
  2.239E+12 2.239E+12 5.060E+00 1.193E+04 2.118E+05 1.681E+06 1.905E+06 1.905E+06 3.500E+07 38.6400 1.00000
  2.512E+12 2.512E+12 5.083E+00 1.339E+04 2.376E+05 1.928E+06 2.179E+06 2.179E+06 3.514E+07 38.8702 1.00000
  2.818E+12 2.818E+12 5.107E+00 1.502E+04 2.666E+05 2.211E+06 2.493E+06 2.493E+06 3.527E+07 39.1005 1.00000
  3.162E+12 3.162E+12 5.132E+00 1.686E+04 2.991E+05 2.536E+06 2.852E+06 2.852E+06 3.540E+07 39.3308 1.00000
  3.548E+12 3.548E+12 5.156E+00 1.891E+04 3.356E+05 2.909E+06 3.263E+06 3.263E+06 3.552E+07 39.5610 1.00000
  3.981E+12 3.981E+12 5.180E+00 2.122E+04 3.765E+05 3.337E+06 3.734E+06 3.734E+06 3.565E+07 39.7913 1.00000
  4.467E+12 4.467E+12 5.205E+00 2.381E+04 4.225E+05 3.827E+06 4.274E+06 4.274E+06 3.577E+07 40.0215 1.00000
  5.012E+12 5.012E+12 5.230E+00 2.672E+04 4.740E+05 4.391E+06 4.891E+06 4.891E+06 3.589E+07 40.2518 1.00000
  5.623E+12 5.623E+12 5.254E+00 2.998E+04 5.318E+05 5.037E+06 5.599E+06 5.599E+06 3.601E+07 40.4821 1.00000
  6.310E+12 6.310E+12 5.279E+00 3.363E+04 5.966E+05 5.779E+06 6.409E+06 6.409E+06 3.612E+07 40.7123 1.00000
  7.079E+12 7.079E+12 5.305E+00 3.774E+04 6.694E+05 6.631E+06 7.338E+06 7.338E+06 3.623E+07 40.9426 1.00000
  7.943E+12 7.943E+12 5.330E+00 4.234E+04 7.511E+05 7.608E+06 8.402E+06 8.402E+06 3.635E+07 41.1728 1.00000
  8.913E+12 8.913E+12 5.355E+00 4.751E+04 8.427E+05 8.730E+06 9.620E+06 9.620E+06 3.645E+07 41.4031 1.00000
  1.000E+13 1.000E+13 5.381E+00 5.331E+04 9.454E+05 1.002E+07 1.102E+07 1.102E+07 3.656E+07 41.6334 1.00000
  1.122E+13 1.122E+13 5.406E+00 5.981E+04 1.061E+06 1.150E+07 1.262E+07 1.262E+07 3.666E+07 41.8636 1.00000
  1.259E+13 1.259E+13 5.432E+00 6.711E+04 1.190E+06 1.319E+07 1.445E+07 1.445E+07 3.676E+07 42.0939 1.00000
  1.413E+13 1.413E+13 5.458E+00 7.530E+04 1.335E+06 1.514E+07 1.655E+07 1.655E+07 3.686E+07 42.3241 1.00000
  1.585E+13 1.585E+13 5.484E+00 8.449E+04 1.498E+06 1.738E+07 1.896E+07 1.896E+07 3.696E+07 42.5544 1.00000
  1.778E+13 1.778E+13 5.510E+00 9.480E+04 1.681E+06 1.995E+07 2.172E+07 2.172E+07 3.706E+07 42.7846 1.00000
  1.995E+13 1.995E+13 5.537E+00 1.064E+05 1.886E+06 2.290E+07 2.489E+07 2.489E+07 3.715E+07 43.0149 1.00000
  2.239E+13 2.239E+13 5.563E+00 1.193E+05 2.116E+06 2.628E+07 2.852E+07 2.852E+07 3.724E+07 43.2452 1.00000
  2.512E+13 2.512E+13 5.590E+00 1.339E+05 2.374E+06 3.017E+07 3.268E+07 3.268E+07 3.733E+07 43.4754 1.00000
  2.818E+13 2.818E+13 5.617E+00 1.503E+05 2.663E+06 3.464E+07 3.745E+07 3.745E+07 3.742E+07 43.7057 1.00000
  3.162E+13 3.162E+13 5.644E+00 1.686E+05 2.988E+06 3.977E+07 4.292E+07 4.292E+07 3.751E+07 43.9359 1.00000
  3.548E+13 3.548E+13 5.671E+00 1.892E+05 3.353E+06 4.566E+07 4.920E+07 4.920E+07 3.759E+07 44.1662 1.00000
  3.981E+13 3.981E+13 5.698E+00 2.122E+05 3.762E+06 5.242E+07 5.640E+07 5.640E+07 3.767E+07 44.3965 1.00000
  4.467E+13 4.467E+13 5.725E+00 2.381E+05 4.220E+06 6.019E+07 6.465E+07 6.465E+07 3.775E+07 44.6267 1.00000
  5.012E+13 5.012E+13 5.753E+00 2.672E+05 4.735E+06 6.912E+07 7.412E+07 7.412E+07 3.783E+07 44.8570 1.00000
  5.623E+13 5.623E+13 5.780E+00 2.998E+05 5.312E+06 7.937E+07 8.499E+07 8.499E+07 3.791E+07 45.0872 1.00000
  6.310E+13 6.310E+13 5.808E+00 3.364E+05 5.960E+06 9.115E+07 9.745E+07 9.745E+07 3.798E+07 45.3175 1.00000
  7.079E+13 7.079E+13 5.836E+00 3.774E+05 6.687E+06 1.047E+08 1.117E+08 1.117E+08 3.806E+07 45.5477 1.00000
  7.943E+13 7.943E+13 5.864E+00 4.235E+05 7.503E+06 1.202E+08 1.282E+08 1.282E+08 3.813E+07 45.7780 1.00000
  8.913E+13 8.913E+13 5.893E+00 4.751E+05 8.418E+06 1.381E+08 1.470E+08 1.470E+08 3.820E+07 46.0083 1.00000
