 Incident particle is a Tau with M = 1776.82000 MeV
 Index = 0: Glucose
      Absorber with <Z/A> = 0.53484
 Sternheimer coef:  a     k=m_s   x_0    x_1    I[eV]   Cbar  delta0
                 0.1078  3.3946  0.1411  2.6700   77.2  3.1649 0.00

 *** Table generated with PUMAS v1.00 ***

      T         p     Ionization  brems     pair     photonuc  Radloss    dE/dx   CSDA Range  delta   beta
    [MeV]    [MeV/c]  -----------------------[MeV cm^2/g]------------------------  [g/cm^2]
  1.000E+05 1.018E+05 2.324E+00 1.359E-04 2.114E-03 8.370E-03 1.062E-02 2.335E+00 2.141E+04  5.0096 0.99985
  1.122E+05 1.140E+05 2.345E+00 1.570E-04 2.553E-03 9.454E-03 1.216E-02 2.357E+00 2.661E+04  5.2226 0.99988
  1.259E+05 1.277E+05 2.365E+00 1.812E-04 3.071E-03 1.062E-02 1.388E-02 2.379E+00 3.240E+04  5.4377 0.99990
  1.413E+05 1.430E+05 2.385E+00 2.091E-04 3.682E-03 1.194E-02 1.583E-02 2.401E+00 3.883E+04  5.6547 0.99992
  1.585E+05 1.603E+05 2.405E+00 2.412E-04 4.401E-03 1.341E-02 1.805E-02 2.423E+00 4.597E+04  5.8735 0.99994
  1.778E+05 1.796E+05 2.425E+00 2.781E-04 5.244E-03 1.506E-02 2.058E-02 2.446E+00 5.392E+04  6.0939 0.99995
  1.995E+05 2.013E+05 2.445E+00 3.205E-04 6.232E-03 1.693E-02 2.349E-02 2.468E+00 6.275E+04  6.3158 0.99996
  2.239E+05 2.256E+05 2.465E+00 3.692E-04 7.387E-03 1.899E-02 2.674E-02 2.491E+00 7.256E+04  6.5390 0.99997
  2.512E+05 2.530E+05 2.485E+00 4.252E-04 8.735E-03 2.129E-02 3.045E-02 2.515E+00 8.348E+04  6.7634 0.99998
  2.818E+05 2.836E+05 2.504E+00 4.893E-04 1.031E-02 2.388E-02 3.468E-02 2.539E+00 9.561E+04  6.9888 0.99998
  3.162E+05 3.180E+05 2.524E+00 5.630E-04 1.213E-02 2.682E-02 3.951E-02 2.563E+00 1.091E+05  7.2151 0.99998
  3.548E+05 3.566E+05 2.544E+00 6.474E-04 1.425E-02 3.011E-02 4.501E-02 2.589E+00 1.241E+05  7.4422 0.99999
  3.981E+05 3.999E+05 2.563E+00 7.443E-04 1.671E-02 3.379E-02 5.124E-02 2.614E+00 1.407E+05  7.6700 0.99999
  4.467E+05 4.485E+05 2.583E+00 8.553E-04 1.955E-02 3.791E-02 5.831E-02 2.641E+00 1.592E+05  7.8983 0.99999
  5.012E+05 5.030E+05 2.602E+00 9.824E-04 2.283E-02 4.255E-02 6.637E-02 2.668E+00 1.797E+05  8.1271 0.99999
  5.623E+05 5.641E+05 2.621E+00 1.128E-03 2.663E-02 4.758E-02 7.534E-02 2.697E+00 2.025E+05  8.3562 1.00000
  6.310E+05 6.327E+05 2.641E+00 1.295E-03 3.100E-02 5.326E-02 8.555E-02 2.726E+00 2.278E+05  8.5856 1.00000
  7.079E+05 7.097E+05 2.660E+00 1.486E-03 3.603E-02 5.966E-02 9.718E-02 2.757E+00 2.559E+05  8.8152 1.00000
  7.943E+05 7.961E+05 2.679E+00 1.705E-03 4.182E-02 6.690E-02 1.104E-01 2.789E+00 2.871E+05  9.0449 1.00000
  8.913E+05 8.930E+05 2.698E+00 1.955E-03 4.847E-02 7.507E-02 1.255E-01 2.824E+00 3.216E+05  9.2747 1.00000
  1.000E+06 1.002E+06 2.717E+00 2.241E-03 5.610E-02 8.432E-02 1.427E-01 2.860E+00 3.599E+05  9.5045 1.00000
  1.122E+06 1.124E+06 2.736E+00 2.568E-03 6.484E-02 9.479E-02 1.622E-01 2.898E+00 4.023E+05  9.7344 1.00000
  1.259E+06 1.261E+06 2.755E+00 2.943E-03 7.485E-02 1.067E-01 1.844E-01 2.939E+00 4.492E+05  9.9643 1.00000
  1.413E+06 1.414E+06 2.773E+00 3.371E-03 8.629E-02 1.201E-01 2.098E-01 2.983E+00 5.010E+05 10.1942 1.00000
  1.585E+06 1.587E+06 2.792E+00 3.860E-03 9.937E-02 1.353E-01 2.386E-01 3.030E+00 5.584E+05 10.4242 1.00000
  1.778E+06 1.780E+06 2.810E+00 4.419E-03 1.143E-01 1.526E-01 2.714E-01 3.082E+00 6.217E+05 10.6542 1.00000
  1.995E+06 1.997E+06 2.829E+00 5.058E-03 1.313E-01 1.723E-01 3.087E-01 3.137E+00 6.914E+05 10.8843 1.00000
  2.239E+06 2.240E+06 2.847E+00 5.787E-03 1.507E-01 1.946E-01 3.511E-01 3.198E+00 7.683E+05 11.1144 1.00000
  2.512E+06 2.514E+06 2.865E+00 6.620E-03 1.727E-01 2.199E-01 3.993E-01 3.264E+00 8.529E+05 11.3444 1.00000
  2.818E+06 2.820E+06 2.883E+00 7.571E-03 1.978E-01 2.488E-01 4.542E-01 3.337E+00 9.458E+05 11.5745 1.00000
  3.162E+06 3.164E+06 2.900E+00 8.657E-03 2.263E-01 2.815E-01 5.165E-01 3.417E+00 1.048E+06 11.8047 1.00000
  3.548E+06 3.550E+06 2.918E+00 9.896E-03 2.587E-01 3.188E-01 5.874E-01 3.505E+00 1.159E+06 12.0348 1.00000
  3.981E+06 3.983E+06 2.935E+00 1.131E-02 2.954E-01 3.612E-01 6.679E-01 3.603E+00 1.281E+06 12.2650 1.00000
  4.467E+06 4.469E+06 2.952E+00 1.292E-02 3.371E-01 4.094E-01 7.594E-01 3.712E+00 1.414E+06 12.4951 1.00000
  5.012E+06 5.014E+06 2.969E+00 1.476E-02 3.842E-01 4.644E-01 8.633E-01 3.832E+00 1.558E+06 12.7253 1.00000
  5.623E+06 5.625E+06 2.986E+00 1.685E-02 4.376E-01 5.269E-01 9.814E-01 3.967E+00 1.715E+06 12.9555 1.00000
  6.310E+06 6.311E+06 3.003E+00 1.924E-02 4.980E-01 5.982E-01 1.115E+00 4.118E+00 1.885E+06 13.1857 1.00000
  7.079E+06 7.081E+06 3.019E+00 2.196E-02 5.663E-01 6.794E-01 1.268E+00 4.287E+00 2.068E+06 13.4159 1.00000
  7.943E+06 7.945E+06 3.035E+00 2.506E-02 6.435E-01 7.719E-01 1.440E+00 4.476E+00 2.266E+06 13.6461 1.00000
  8.913E+06 8.914E+06 3.052E+00 2.859E-02 7.307E-01 8.773E-01 1.637E+00 4.688E+00 2.477E+06 13.8763 1.00000
  1.000E+07 1.000E+07 3.068E+00 3.260E-02 8.292E-01 9.974E-01 1.859E+00 4.927E+00 2.704E+06 14.1065 1.00000
  1.122E+07 1.122E+07 3.083E+00 3.717E-02 9.403E-01 1.134E+00 2.112E+00 5.195E+00 2.945E+06 14.3367 1.00000
  1.259E+07 1.259E+07 3.099E+00 4.237E-02 1.066E+00 1.291E+00 2.399E+00 5.498E+00 3.201E+06 14.5669 1.00000
  1.413E+07 1.413E+07 3.115E+00 4.828E-02 1.207E+00 1.469E+00 2.724E+00 5.839E+00 3.472E+06 14.7972 1.00000
  1.585E+07 1.585E+07 3.130E+00 5.501E-02 1.366E+00 1.672E+00 3.093E+00 6.223E+00 3.758E+06 15.0274 1.00000
  1.778E+07 1.778E+07 3.146E+00 6.265E-02 1.546E+00 1.903E+00 3.512E+00 6.657E+00 4.059E+06 15.2576 1.00000
  1.995E+07 1.995E+07 3.161E+00 7.134E-02 1.748E+00 2.168E+00 3.987E+00 7.148E+00 4.374E+06 15.4879 1.00000
  2.239E+07 2.239E+07 3.176E+00 8.120E-02 1.975E+00 2.469E+00 4.526E+00 7.702E+00 4.702E+06 15.7181 1.00000
  2.512E+07 2.512E+07 3.191E+00 9.241E-02 2.232E+00 2.813E+00 5.137E+00 8.328E+00 5.043E+06 15.9483 1.00000
  2.818E+07 2.819E+07 3.206E+00 1.051E-01 2.520E+00 3.205E+00 5.831E+00 9.037E+00 5.397E+06 16.1786 1.00000
  3.162E+07 3.162E+07 3.221E+00 1.196E-01 2.844E+00 3.653E+00 6.617E+00 9.838E+00 5.762E+06 16.4088 1.00000
  3.548E+07 3.548E+07 3.236E+00 1.360E-01 3.209E+00 4.165E+00 7.509E+00 1.075E+01 6.138E+06 16.6391 1.00000
  3.981E+07 3.981E+07 3.251E+00 1.545E-01 3.619E+00 4.748E+00 8.522E+00 1.177E+01 6.523E+06 16.8693 1.00000
  4.467E+07 4.467E+07 3.266E+00 1.756E-01 4.080E+00 5.414E+00 9.670E+00 1.294E+01 6.917E+06 17.0996 1.00000
  5.012E+07 5.012E+07 3.281E+00 1.995E-01 4.599E+00 6.174E+00 1.097E+01 1.425E+01 7.319E+06 17.3298 1.00000
  5.623E+07 5.624E+07 3.295E+00 2.266E-01 5.181E+00 7.042E+00 1.245E+01 1.575E+01 7.728E+06 17.5601 1.00000
  6.310E+07 6.310E+07 3.310E+00 2.573E-01 5.836E+00 8.032E+00 1.413E+01 1.744E+01 8.142E+06 17.7903 1.00000
  7.079E+07 7.080E+07 3.325E+00 2.920E-01 6.572E+00 9.163E+00 1.603E+01 1.935E+01 8.562E+06 18.0206 1.00000
  7.943E+07 7.943E+07 3.340E+00 3.314E-01 7.398E+00 1.045E+01 1.818E+01 2.152E+01 8.986E+06 18.2508 1.00000
  8.913E+07 8.913E+07 3.355E+00 3.759E-01 8.326E+00 1.193E+01 2.063E+01 2.399E+01 9.413E+06 18.4811 1.00000
  1.000E+08 1.000E+08 3.370E+00 4.263E-01 9.369E+00 1.361E+01 2.341E+01 2.678E+01 9.843E+06 18.7113 1.00000
  1.122E+08 1.122E+08 3.385E+00 4.833E-01 1.054E+01 1.554E+01 2.656E+01 2.994E+01 1.027E+07 18.9416 1.00000
  1.259E+08 1.259E+08 3.400E+00 5.477E-01 1.185E+01 1.773E+01 3.014E+01 3.354E+01 1.071E+07 19.1718 1.00000
  1.413E+08 1.413E+08 3.415E+00 6.206E-01 1.333E+01 2.024E+01 3.419E+01 3.761E+01 1.114E+07 19.4021 1.00000
  1.585E+08 1.585E+08 3.430E+00 7.031E-01 1.499E+01 2.311E+01 3.880E+01 4.223E+01 1.157E+07 19.6324 1.00000
  1.778E+08 1.778E+08 3.445E+00 7.962E-01 1.685E+01 2.638E+01 4.403E+01 4.747E+01 1.201E+07 19.8626 1.00000
  1.995E+08 1.995E+08 3.460E+00 9.014E-01 1.894E+01 3.012E+01 4.996E+01 5.342E+01 1.244E+07 20.0929 1.00000
  2.239E+08 2.239E+08 3.476E+00 1.020E+00 2.128E+01 3.439E+01 5.670E+01 6.017E+01 1.287E+07 20.3231 1.00000
  2.512E+08 2.512E+08 3.491E+00 1.154E+00 2.391E+01 3.928E+01 6.434E+01 6.784E+01 1.330E+07 20.5534 1.00000
  2.818E+08 2.818E+08 3.506E+00 1.306E+00 2.687E+01 4.485E+01 7.303E+01 7.653E+01 1.372E+07 20.7836 1.00000
  3.162E+08 3.162E+08 3.522E+00 1.477E+00 3.019E+01 5.122E+01 8.289E+01 8.641E+01 1.415E+07 21.0139 1.00000
  3.548E+08 3.548E+08 3.537E+00 1.669E+00 3.391E+01 5.851E+01 9.408E+01 9.762E+01 1.457E+07 21.2442 1.00000
  3.981E+08 3.981E+08 3.553E+00 1.887E+00 3.808E+01 6.683E+01 1.068E+02 1.104E+02 1.499E+07 21.4744 1.00000
  4.467E+08 4.467E+08 3.568E+00 2.132E+00 4.277E+01 7.634E+01 1.212E+02 1.248E+02 1.540E+07 21.7047 1.00000
  5.012E+08 5.012E+08 3.584E+00 2.408E+00 4.803E+01 8.720E+01 1.376E+02 1.412E+02 1.581E+07 21.9349 1.00000
  5.623E+08 5.623E+08 3.600E+00 2.720E+00 5.394E+01 9.962E+01 1.563E+02 1.599E+02 1.622E+07 22.1652 1.00000
  6.310E+08 6.310E+08 3.616E+00 3.071E+00 6.057E+01 1.138E+02 1.775E+02 1.811E+02 1.662E+07 22.3954 1.00000
  7.079E+08 7.079E+08 3.632E+00 3.466E+00 6.800E+01 1.300E+02 2.015E+02 2.051E+02 1.702E+07 22.6257 1.00000
  7.943E+08 7.943E+08 3.648E+00 3.912E+00 7.635E+01 1.486E+02 2.289E+02 2.325E+02 1.742E+07 22.8560 1.00000
  8.913E+08 8.913E+08 3.664E+00 4.414E+00 8.571E+01 1.698E+02 2.599E+02 2.636E+02 1.781E+07 23.0862 1.00000
  1.000E+09 1.000E+09 3.680E+00 4.979E+00 9.622E+01 1.940E+02 2.952E+02 2.989E+02 1.820E+07 23.3165 1.00000
  1.122E+09 1.122E+09 3.697E+00 5.615E+00 1.080E+02 2.218E+02 3.354E+02 3.391E+02 1.858E+07 23.5467 1.00000
  1.259E+09 1.259E+09 3.713E+00 6.330E+00 1.212E+02 2.534E+02 3.810E+02 3.847E+02 1.896E+07 23.7770 1.00000
  1.413E+09 1.413E+09 3.729E+00 7.136E+00 1.361E+02 2.897E+02 4.329E+02 4.366E+02 1.934E+07 24.0072 1.00000
  1.585E+09 1.585E+09 3.746E+00 8.042E+00 1.527E+02 3.311E+02 4.919E+02 4.956E+02 1.971E+07 24.2375 1.00000
  1.778E+09 1.778E+09 3.763E+00 9.061E+00 1.714E+02 3.785E+02 5.590E+02 5.627E+02 2.008E+07 24.4678 1.00000
  1.995E+09 1.995E+09 3.779E+00 1.021E+01 1.924E+02 4.326E+02 6.353E+02 6.390E+02 2.044E+07 24.6980 1.00000
  2.239E+09 2.239E+09 3.796E+00 1.150E+01 2.159E+02 4.946E+02 7.220E+02 7.258E+02 2.080E+07 24.9283 1.00000
  2.512E+09 2.512E+09 3.813E+00 1.295E+01 2.424E+02 5.655E+02 8.208E+02 8.246E+02 2.115E+07 25.1585 1.00000
  2.818E+09 2.818E+09 3.830E+00 1.458E+01 2.720E+02 6.465E+02 9.331E+02 9.369E+02 2.150E+07 25.3888 1.00000
  3.162E+09 3.162E+09 3.847E+00 1.641E+01 3.052E+02 7.392E+02 1.061E+03 1.065E+03 2.185E+07 25.6191 1.00000
  3.548E+09 3.548E+09 3.864E+00 1.847E+01 3.425E+02 8.452E+02 1.206E+03 1.210E+03 2.219E+07 25.8493 1.00000
  3.981E+09 3.981E+09 3.882E+00 2.078E+01 3.844E+02 9.665E+02 1.372E+03 1.376E+03 2.252E+07 26.0796 1.00000
  4.467E+09 4.467E+09 3.899E+00 2.338E+01 4.314E+02 1.105E+03 1.560E+03 1.564E+03 2.286E+07 26.3098 1.00000
  5.012E+09 5.012E+09 3.917E+00 2.630E+01 4.841E+02 1.264E+03 1.774E+03 1.778E+03 2.318E+07 26.5401 1.00000
  5.623E+09 5.623E+09 3.934E+00 2.959E+01 5.432E+02 1.446E+03 2.018E+03 2.022E+03 2.351E+07 26.7703 1.00000
  6.310E+09 6.310E+09 3.952E+00 3.327E+01 6.095E+02 1.653E+03 2.296E+03 2.300E+03 2.382E+07 27.0006 1.00000
  7.079E+09 7.079E+09 3.970E+00 3.742E+01 6.840E+02 1.891E+03 2.613E+03 2.617E+03 2.414E+07 27.2309 1.00000
  7.943E+09 7.943E+09 3.988E+00 4.207E+01 7.675E+02 2.163E+03 2.973E+03 2.977E+03 2.445E+07 27.4611 1.00000
  8.913E+09 8.913E+09 4.006E+00 4.729E+01 8.612E+02 2.475E+03 3.383E+03 3.387E+03 2.476E+07 27.6914 1.00000
  1.000E+10 1.000E+10 4.024E+00 5.316E+01 9.663E+02 2.831E+03 3.851E+03 3.855E+03 2.506E+07 27.9216 1.00000
  1.122E+10 1.122E+10 4.042E+00 5.975E+01 1.084E+03 3.239E+03 4.383E+03 4.387E+03 2.535E+07 28.1519 1.00000
  1.259E+10 1.259E+10 4.060E+00 6.715E+01 1.217E+03 3.706E+03 4.989E+03 4.993E+03 2.565E+07 28.3822 1.00000
  1.413E+10 1.413E+10 4.079E+00 7.545E+01 1.365E+03 4.240E+03 5.680E+03 5.685E+03 2.594E+07 28.6124 1.00000
  1.585E+10 1.585E+10 4.097E+00 8.478E+01 1.532E+03 4.851E+03 6.468E+03 6.472E+03 2.622E+07 28.8427 1.00000
  1.778E+10 1.778E+10 4.116E+00 9.525E+01 1.719E+03 5.551E+03 7.365E+03 7.369E+03 2.650E+07 29.0729 1.00000
  1.995E+10 1.995E+10 4.135E+00 1.070E+02 1.929E+03 6.353E+03 8.388E+03 8.392E+03 2.678E+07 29.3032 1.00000
  2.239E+10 2.239E+10 4.153E+00 1.202E+02 2.164E+03 7.270E+03 9.554E+03 9.558E+03 2.705E+07 29.5335 1.00000
  2.512E+10 2.512E+10 4.172E+00 1.350E+02 2.428E+03 8.320E+03 1.088E+04 1.089E+04 2.732E+07 29.7637 1.00000
  2.818E+10 2.818E+10 4.191E+00 1.516E+02 2.724E+03 9.523E+03 1.240E+04 1.240E+04 2.758E+07 29.9940 1.00000
  3.162E+10 3.162E+10 4.211E+00 1.703E+02 3.057E+03 1.090E+04 1.413E+04 1.413E+04 2.784E+07 30.2242 1.00000
  3.548E+10 3.548E+10 4.230E+00 1.912E+02 3.430E+03 1.248E+04 1.610E+04 1.610E+04 2.810E+07 30.4545 1.00000
  3.981E+10 3.981E+10 4.249E+00 2.147E+02 3.848E+03 1.428E+04 1.834E+04 1.835E+04 2.835E+07 30.6847 1.00000
  4.467E+10 4.467E+10 4.269E+00 2.411E+02 4.318E+03 1.635E+04 2.091E+04 2.091E+04 2.860E+07 30.9150 1.00000
  5.012E+10 5.012E+10 4.288E+00 2.707E+02 4.844E+03 1.872E+04 2.383E+04 2.384E+04 2.885E+07 31.1453 1.00000
  5.623E+10 5.623E+10 4.308E+00 3.040E+02 5.436E+03 2.143E+04 2.717E+04 2.717E+04 2.909E+07 31.3755 1.00000
  6.310E+10 6.310E+10 4.328E+00 3.413E+02 6.099E+03 2.454E+04 3.097E+04 3.098E+04 2.932E+07 31.6058 1.00000
  7.079E+10 7.079E+10 4.348E+00 3.831E+02 6.843E+03 2.809E+04 3.532E+04 3.532E+04 2.956E+07 31.8360 1.00000
  7.943E+10 7.943E+10 4.368E+00 4.301E+02 7.678E+03 3.217E+04 4.028E+04 4.028E+04 2.979E+07 32.0663 1.00000
  8.913E+10 8.913E+10 4.388E+00 4.828E+02 8.614E+03 3.684E+04 4.593E+04 4.594E+04 3.001E+07 32.2966 1.00000
  1.000E+11 1.000E+11 4.408E+00 5.419E+02 9.665E+03 4.218E+04 5.239E+04 5.240E+04 3.023E+07 32.5268 1.00000
  1.122E+11 1.122E+11 4.429E+00 6.083E+02 1.084E+04 4.831E+04 5.976E+04 5.977E+04 3.045E+07 32.7571 1.00000
  1.259E+11 1.259E+11 4.449E+00 6.827E+02 1.217E+04 5.533E+04 6.818E+04 6.819E+04 3.067E+07 32.9873 1.00000
  1.413E+11 1.413E+11 4.470E+00 7.663E+02 1.365E+04 6.337E+04 7.779E+04 7.780E+04 3.088E+07 33.2176 1.00000
  1.585E+11 1.585E+11 4.490E+00 8.601E+02 1.532E+04 7.259E+04 8.877E+04 8.877E+04 3.109E+07 33.4478 1.00000
  1.778E+11 1.778E+11 4.511E+00 9.653E+02 1.719E+04 8.315E+04 1.013E+05 1.013E+05 3.129E+07 33.6781 1.00000
  1.995E+11 1.995E+11 4.532E+00 1.083E+03 1.928E+04 9.525E+04 1.156E+05 1.156E+05 3.149E+07 33.9084 1.00000
  2.239E+11 2.239E+11 4.553E+00 1.216E+03 2.163E+04 1.091E+05 1.320E+05 1.320E+05 3.169E+07 34.1386 1.00000
  2.512E+11 2.512E+11 4.574E+00 1.365E+03 2.427E+04 1.250E+05 1.507E+05 1.507E+05 3.188E+07 34.3689 1.00000
  2.818E+11 2.818E+11 4.596E+00 1.531E+03 2.723E+04 1.432E+05 1.720E+05 1.720E+05 3.207E+07 34.5991 1.00000
  3.162E+11 3.162E+11 4.617E+00 1.718E+03 3.056E+04 1.641E+05 1.964E+05 1.964E+05 3.226E+07 34.8294 1.00000
  3.548E+11 3.548E+11 4.639E+00 1.928E+03 3.428E+04 1.881E+05 2.243E+05 2.243E+05 3.245E+07 35.0597 1.00000
  3.981E+11 3.981E+11 4.660E+00 2.164E+03 3.847E+04 2.155E+05 2.561E+05 2.561E+05 3.263E+07 35.2899 1.00000
  4.467E+11 4.467E+11 4.682E+00 2.429E+03 4.316E+04 2.469E+05 2.925E+05 2.925E+05 3.280E+07 35.5202 1.00000
  5.012E+11 5.012E+11 4.704E+00 2.725E+03 4.842E+04 2.830E+05 3.341E+05 3.341E+05 3.298E+07 35.7504 1.00000
  5.623E+11 5.623E+11 4.726E+00 3.058E+03 5.433E+04 3.243E+05 3.817E+05 3.817E+05 3.315E+07 35.9807 1.00000
  6.310E+11 6.310E+11 4.748E+00 3.432E+03 6.096E+04 3.717E+05 4.361E+05 4.361E+05 3.332E+07 36.2109 1.00000
  7.079E+11 7.079E+11 4.771E+00 3.851E+03 6.839E+04 4.261E+05 4.983E+05 4.983E+05 3.349E+07 36.4412 1.00000
  7.943E+11 7.943E+11 4.793E+00 4.321E+03 7.674E+04 4.884E+05 5.694E+05 5.695E+05 3.365E+07 36.6715 1.00000
  8.913E+11 8.913E+11 4.816E+00 4.849E+03 8.610E+04 5.598E+05 6.508E+05 6.508E+05 3.381E+07 36.9017 1.00000
  1.000E+12 1.000E+12 4.838E+00 5.441E+03 9.660E+04 6.418E+05 7.438E+05 7.438E+05 3.396E+07 37.1320 1.00000
  1.122E+12 1.122E+12 4.861E+00 6.105E+03 1.084E+05 7.358E+05 8.503E+05 8.503E+05 3.412E+07 37.3622 1.00000
  1.259E+12 1.259E+12 4.884E+00 6.850E+03 1.216E+05 8.435E+05 9.720E+05 9.720E+05 3.427E+07 37.5925 1.00000
  1.413E+12 1.413E+12 4.907E+00 7.686E+03 1.364E+05 9.672E+05 1.111E+06 1.111E+06 3.442E+07 37.8228 1.00000
  1.585E+12 1.585E+12 4.930E+00 8.625E+03 1.531E+05 1.109E+06 1.271E+06 1.271E+06 3.456E+07 38.0530 1.00000
  1.778E+12 1.778E+12 4.953E+00 9.677E+03 1.717E+05 1.272E+06 1.453E+06 1.453E+06 3.470E+07 38.2833 1.00000
  1.995E+12 1.995E+12 4.977E+00 1.086E+04 1.927E+05 1.458E+06 1.662E+06 1.662E+06 3.484E+07 38.5135 1.00000
  2.239E+12 2.239E+12 5.000E+00 1.218E+04 2.162E+05 1.672E+06 1.901E+06 1.901E+06 3.498E+07 38.7438 1.00000
  2.512E+12 2.512E+12 5.024E+00 1.367E+04 2.426E+05 1.918E+06 2.174E+06 2.174E+06 3.512E+07 38.9740 1.00000
  2.818E+12 2.818E+12 5.048E+00 1.534E+04 2.722E+05 2.199E+06 2.487E+06 2.487E+06 3.525E+07 39.2043 1.00000
  3.162E+12 3.162E+12 5.072E+00 1.721E+04 3.053E+05 2.523E+06 2.845E+06 2.845E+06 3.538E+07 39.4346 1.00000
  3.548E+12 3.548E+12 5.096E+00 1.931E+04 3.426E+05 2.893E+06 3.255E+06 3.255E+06 3.551E+07 39.6648 1.00000
  3.981E+12 3.981E+12 5.120E+00 2.167E+04 3.844E+05 3.319E+06 3.725E+06 3.725E+06 3.563E+07 39.8951 1.00000
  4.467E+12 4.467E+12 5.145E+00 2.431E+04 4.313E+05 3.807E+06 4.263E+06 4.263E+06 3.575E+07 40.1253 1.00000
  5.012E+12 5.012E+12 5.169E+00 2.728E+04 4.839E+05 4.368E+06 4.879E+06 4.879E+06 3.587E+07 40.3556 1.00000
  5.623E+12 5.623E+12 5.194E+00 3.061E+04 5.429E+05 5.011E+06 5.584E+06 5.584E+06 3.599E+07 40.5859 1.00000
  6.310E+12 6.310E+12 5.218E+00 3.435E+04 6.091E+05 5.749E+06 6.392E+06 6.392E+06 3.610E+07 40.8161 1.00000
  7.079E+12 7.079E+12 5.243E+00 3.854E+04 6.834E+05 6.596E+06 7.318E+06 7.318E+06 3.622E+07 41.0464 1.00000
  7.943E+12 7.943E+12 5.268E+00 4.324E+04 7.667E+05 7.568E+06 8.378E+06 8.378E+06 3.633E+07 41.2766 1.00000
  8.913E+12 8.913E+12 5.293E+00 4.852E+04 8.602E+05 8.684E+06 9.593E+06 9.593E+06 3.644E+07 41.5069 1.00000
  1.000E+13 1.000E+13 5.319E+00 5.444E+04 9.651E+05 9.965E+06 1.098E+07 1.098E+07 3.654E+07 41.7372 1.00000
  1.122E+13 1.122E+13 5.344E+00 6.108E+04 1.083E+06 1.144E+07 1.258E+07 1.258E+07 3.665E+07 41.9674 1.00000
  1.259E+13 1.259E+13 5.370E+00 6.853E+04 1.215E+06 1.312E+07 1.441E+07 1.441E+07 3.675E+07 42.1977 1.00000
  1.413E+13 1.413E+13 5.395E+00 7.690E+04 1.363E+06 1.506E+07 1.650E+07 1.650E+07 3.685E+07 42.4279 1.00000
  1.585E+13 1.585E+13 5.421E+00 8.628E+04 1.529E+06 1.729E+07 1.890E+07 1.890E+07 3.695E+07 42.6582 1.00000
  1.778E+13 1.778E+13 5.447E+00 9.681E+04 1.716E+06 1.984E+07 2.166E+07 2.166E+07 3.704E+07 42.8884 1.00000
  1.995E+13 1.995E+13 5.473E+00 1.086E+05 1.925E+06 2.278E+07 2.481E+07 2.481E+07 3.714E+07 43.1187 1.00000
  2.239E+13 2.239E+13 5.500E+00 1.219E+05 2.160E+06 2.615E+07 2.843E+07 2.843E+07 3.723E+07 43.3490 1.00000
  2.512E+13 2.512E+13 5.526E+00 1.367E+05 2.423E+06 3.001E+07 3.257E+07 3.257E+07 3.732E+07 43.5792 1.00000
  2.818E+13 2.818E+13 5.553E+00 1.534E+05 2.719E+06 3.446E+07 3.733E+07 3.733E+07 3.741E+07 43.8095 1.00000
  3.162E+13 3.162E+13 5.579E+00 1.722E+05 3.050E+06 3.956E+07 4.278E+07 4.278E+07 3.749E+07 44.0397 1.00000
  3.548E+13 3.548E+13 5.606E+00 1.932E+05 3.423E+06 4.542E+07 4.903E+07 4.903E+07 3.758E+07 44.2700 1.00000
  3.981E+13 3.981E+13 5.633E+00 2.167E+05 3.840E+06 5.215E+07 5.620E+07 5.620E+07 3.766E+07 44.5003 1.00000
  4.467E+13 4.467E+13 5.660E+00 2.432E+05 4.308E+06 5.988E+07 6.443E+07 6.443E+07 3.774E+07 44.7305 1.00000
  5.012E+13 5.012E+13 5.688E+00 2.728E+05 4.834E+06 6.876E+07 7.386E+07 7.386E+07 3.782E+07 44.9608 1.00000
  5.623E+13 5.623E+13 5.715E+00 3.061E+05 5.423E+06 7.896E+07 8.469E+07 8.469E+07 3.790E+07 45.1910 1.00000
  6.310E+13 6.310E+13 5.743E+00 3.435E+05 6.084E+06 9.067E+07 9.710E+07 9.710E+07 3.797E+07 45.4213 1.00000
  7.079E+13 7.079E+13 5.770E+00 3.854E+05 6.826E+06 1.041E+08 1.113E+08 1.113E+08 3.805E+07 45.6515 1.00000
  7.943E+13 7.943E+13 5.798E+00 4.324E+05 7.659E+06 1.196E+08 1.277E+08 1.277E+08 3.812E+07 45.8818 1.00000
  8.913E+13 8.913E+13 5.826E+00 4.852E+05 8.593E+06 1.374E+08 1.464E+08 1.464E+08 3.819E+07 46.1121 1.00000
