 Incident particle is a Tau with M = 1776.82000 MeV
 Index = 0: Glutamine
      Absorber with <Z/A> = 0.53366
 Sternheimer coef:  a     k=m_s   x_0    x_1    I[eV]   Cbar  delta0
                 0.1193  3.3254  0.1347  2.6301   73.3  3.1167 0.00

 *** Table generated with PUMAS v1.00 ***

      T         p     Ionization  brems     pair     photonuc  Radloss    dE/dx   CSDA Range  delta   beta
    [MeV]    [MeV/c]  -----------------------[MeV cm^2/g]------------------------  [g/cm^2]
  1.000E+05 1.018E+05 2.324E+00 1.309E-04 2.034E-03 8.379E-03 1.054E-02 2.335E+00 2.142E+04  5.0546 0.99985
  1.122E+05 1.140E+05 2.344E+00 1.512E-04 2.458E-03 9.466E-03 1.207E-02 2.356E+00 2.662E+04  5.2678 0.99988
  1.259E+05 1.277E+05 2.364E+00 1.745E-04 2.958E-03 1.064E-02 1.377E-02 2.378E+00 3.240E+04  5.4832 0.99990
  1.413E+05 1.430E+05 2.384E+00 2.014E-04 3.547E-03 1.196E-02 1.570E-02 2.400E+00 3.883E+04  5.7004 0.99992
  1.585E+05 1.603E+05 2.404E+00 2.323E-04 4.240E-03 1.343E-02 1.790E-02 2.422E+00 4.598E+04  5.9195 0.99994
  1.778E+05 1.796E+05 2.424E+00 2.678E-04 5.053E-03 1.508E-02 2.040E-02 2.445E+00 5.393E+04  6.1401 0.99995
  1.995E+05 2.013E+05 2.444E+00 3.086E-04 6.006E-03 1.696E-02 2.328E-02 2.467E+00 6.276E+04  6.3622 0.99996
  2.239E+05 2.256E+05 2.464E+00 3.555E-04 7.121E-03 1.902E-02 2.650E-02 2.490E+00 7.258E+04  6.5857 0.99997
  2.512E+05 2.530E+05 2.484E+00 4.093E-04 8.421E-03 2.133E-02 3.016E-02 2.514E+00 8.350E+04  6.8103 0.99998
  2.818E+05 2.836E+05 2.503E+00 4.711E-04 9.936E-03 2.393E-02 3.433E-02 2.538E+00 9.564E+04  7.0359 0.99998
  3.162E+05 3.180E+05 2.523E+00 5.420E-04 1.170E-02 2.687E-02 3.911E-02 2.562E+00 1.091E+05  7.2624 0.99998
  3.548E+05 3.566E+05 2.543E+00 6.233E-04 1.374E-02 3.017E-02 4.453E-02 2.587E+00 1.241E+05  7.4897 0.99999
  3.981E+05 3.999E+05 2.562E+00 7.165E-04 1.611E-02 3.385E-02 5.068E-02 2.613E+00 1.408E+05  7.7177 0.99999
  4.467E+05 4.485E+05 2.581E+00 8.234E-04 1.886E-02 3.799E-02 5.767E-02 2.639E+00 1.593E+05  7.9461 0.99999
  5.012E+05 5.030E+05 2.601E+00 9.458E-04 2.203E-02 4.264E-02 6.562E-02 2.666E+00 1.798E+05  8.1751 0.99999
  5.623E+05 5.641E+05 2.620E+00 1.086E-03 2.569E-02 4.769E-02 7.447E-02 2.695E+00 2.026E+05  8.4043 1.00000
  6.310E+05 6.327E+05 2.639E+00 1.247E-03 2.991E-02 5.338E-02 8.454E-02 2.724E+00 2.280E+05  8.6338 1.00000
  7.079E+05 7.097E+05 2.659E+00 1.431E-03 3.478E-02 5.980E-02 9.601E-02 2.755E+00 2.561E+05  8.8634 1.00000
  7.943E+05 7.961E+05 2.678E+00 1.641E-03 4.037E-02 6.705E-02 1.091E-01 2.787E+00 2.872E+05  9.0931 1.00000
  8.913E+05 8.930E+05 2.697E+00 1.882E-03 4.679E-02 7.525E-02 1.239E-01 2.821E+00 3.218E+05  9.3229 1.00000
  1.000E+06 1.002E+06 2.716E+00 2.157E-03 5.416E-02 8.453E-02 1.408E-01 2.856E+00 3.601E+05  9.5527 1.00000
  1.122E+06 1.124E+06 2.734E+00 2.473E-03 6.260E-02 9.503E-02 1.601E-01 2.895E+00 4.026E+05  9.7826 1.00000
  1.259E+06 1.261E+06 2.753E+00 2.833E-03 7.227E-02 1.069E-01 1.820E-01 2.935E+00 4.495E+05 10.0125 1.00000
  1.413E+06 1.414E+06 2.772E+00 3.245E-03 8.333E-02 1.204E-01 2.070E-01 2.979E+00 5.015E+05 10.2424 1.00000
  1.585E+06 1.587E+06 2.790E+00 3.717E-03 9.597E-02 1.357E-01 2.354E-01 3.026E+00 5.589E+05 10.4724 1.00000
  1.778E+06 1.780E+06 2.809E+00 4.255E-03 1.104E-01 1.531E-01 2.677E-01 3.076E+00 6.223E+05 10.7024 1.00000
  1.995E+06 1.997E+06 2.827E+00 4.870E-03 1.268E-01 1.728E-01 3.045E-01 3.131E+00 6.922E+05 10.9325 1.00000
  2.239E+06 2.240E+06 2.845E+00 5.573E-03 1.456E-01 1.951E-01 3.463E-01 3.191E+00 7.692E+05 11.1626 1.00000
  2.512E+06 2.514E+06 2.863E+00 6.375E-03 1.669E-01 2.206E-01 3.938E-01 3.257E+00 8.539E+05 11.3926 1.00000
  2.818E+06 2.820E+06 2.881E+00 7.292E-03 1.912E-01 2.495E-01 4.479E-01 3.329E+00 9.470E+05 11.6227 1.00000
  3.162E+06 3.164E+06 2.898E+00 8.338E-03 2.187E-01 2.823E-01 5.094E-01 3.408E+00 1.049E+06 11.8529 1.00000
  3.548E+06 3.550E+06 2.916E+00 9.531E-03 2.500E-01 3.197E-01 5.792E-01 3.495E+00 1.161E+06 12.0830 1.00000
  3.981E+06 3.983E+06 2.933E+00 1.089E-02 2.855E-01 3.622E-01 6.586E-01 3.592E+00 1.283E+06 12.3132 1.00000
  4.467E+06 4.469E+06 2.950E+00 1.245E-02 3.258E-01 4.106E-01 7.489E-01 3.699E+00 1.416E+06 12.5433 1.00000
  5.012E+06 5.014E+06 2.967E+00 1.422E-02 3.714E-01 4.657E-01 8.514E-01 3.819E+00 1.562E+06 12.7735 1.00000
  5.623E+06 5.625E+06 2.984E+00 1.624E-02 4.230E-01 5.285E-01 9.678E-01 3.952E+00 1.719E+06 13.0037 1.00000
  6.310E+06 6.311E+06 3.001E+00 1.854E-02 4.815E-01 6.000E-01 1.100E+00 4.101E+00 1.889E+06 13.2339 1.00000
  7.079E+06 7.081E+06 3.017E+00 2.116E-02 5.476E-01 6.814E-01 1.250E+00 4.267E+00 2.074E+06 13.4641 1.00000
  7.943E+06 7.945E+06 3.033E+00 2.415E-02 6.223E-01 7.742E-01 1.421E+00 4.454E+00 2.272E+06 13.6943 1.00000
  8.913E+06 8.914E+06 3.049E+00 2.755E-02 7.067E-01 8.799E-01 1.614E+00 4.664E+00 2.484E+06 13.9245 1.00000
  1.000E+07 1.000E+07 3.065E+00 3.142E-02 8.020E-01 1.000E+00 1.834E+00 4.899E+00 2.712E+06 14.1547 1.00000
  1.122E+07 1.122E+07 3.081E+00 3.583E-02 9.095E-01 1.138E+00 2.083E+00 5.164E+00 2.955E+06 14.3849 1.00000
  1.259E+07 1.259E+07 3.097E+00 4.084E-02 1.031E+00 1.294E+00 2.366E+00 5.463E+00 3.213E+06 14.6151 1.00000
  1.413E+07 1.413E+07 3.112E+00 4.655E-02 1.168E+00 1.473E+00 2.687E+00 5.800E+00 3.486E+06 14.8454 1.00000
  1.585E+07 1.585E+07 3.128E+00 5.303E-02 1.322E+00 1.677E+00 3.052E+00 6.179E+00 3.774E+06 15.0756 1.00000
  1.778E+07 1.778E+07 3.143E+00 6.040E-02 1.495E+00 1.909E+00 3.465E+00 6.608E+00 4.076E+06 15.3058 1.00000
  1.995E+07 1.995E+07 3.158E+00 6.878E-02 1.691E+00 2.174E+00 3.934E+00 7.093E+00 4.394E+06 15.5361 1.00000
  2.239E+07 2.239E+07 3.174E+00 7.830E-02 1.911E+00 2.477E+00 4.466E+00 7.640E+00 4.725E+06 15.7663 1.00000
  2.512E+07 2.512E+07 3.189E+00 8.912E-02 2.159E+00 2.822E+00 5.070E+00 8.259E+00 5.069E+06 15.9965 1.00000
  2.818E+07 2.819E+07 3.204E+00 1.014E-01 2.439E+00 3.215E+00 5.755E+00 8.959E+00 5.425E+06 16.2268 1.00000
  3.162E+07 3.162E+07 3.219E+00 1.153E-01 2.753E+00 3.665E+00 6.533E+00 9.751E+00 5.794E+06 16.4570 1.00000
  3.548E+07 3.548E+07 3.233E+00 1.311E-01 3.106E+00 4.177E+00 7.414E+00 1.065E+01 6.173E+06 16.6873 1.00000
  3.981E+07 3.981E+07 3.248E+00 1.491E-01 3.503E+00 4.763E+00 8.415E+00 1.166E+01 6.562E+06 16.9175 1.00000
  4.467E+07 4.467E+07 3.263E+00 1.694E-01 3.949E+00 5.431E+00 9.549E+00 1.281E+01 6.959E+06 17.1478 1.00000
  5.012E+07 5.012E+07 3.278E+00 1.925E-01 4.451E+00 6.193E+00 1.084E+01 1.411E+01 7.365E+06 17.3780 1.00000
  5.623E+07 5.624E+07 3.293E+00 2.186E-01 5.016E+00 7.063E+00 1.230E+01 1.559E+01 7.778E+06 17.6083 1.00000
  6.310E+07 6.310E+07 3.308E+00 2.483E-01 5.650E+00 8.057E+00 1.396E+01 1.726E+01 8.197E+06 17.8385 1.00000
  7.079E+07 7.080E+07 3.322E+00 2.818E-01 6.362E+00 9.192E+00 1.584E+01 1.916E+01 8.621E+06 18.0688 1.00000
  7.943E+07 7.943E+07 3.337E+00 3.198E-01 7.162E+00 1.049E+01 1.797E+01 2.131E+01 9.049E+06 18.2990 1.00000
  8.913E+07 8.913E+07 3.352E+00 3.628E-01 8.061E+00 1.197E+01 2.039E+01 2.374E+01 9.480E+06 18.5293 1.00000
  1.000E+08 1.000E+08 3.367E+00 4.115E-01 9.071E+00 1.366E+01 2.314E+01 2.651E+01 9.914E+06 18.7595 1.00000
  1.122E+08 1.122E+08 3.382E+00 4.666E-01 1.020E+01 1.559E+01 2.626E+01 2.964E+01 1.035E+07 18.9898 1.00000
  1.259E+08 1.259E+08 3.397E+00 5.288E-01 1.148E+01 1.779E+01 2.980E+01 3.319E+01 1.079E+07 19.2200 1.00000
  1.413E+08 1.413E+08 3.412E+00 5.993E-01 1.291E+01 2.031E+01 3.381E+01 3.722E+01 1.123E+07 19.4503 1.00000
  1.585E+08 1.585E+08 3.427E+00 6.789E-01 1.451E+01 2.318E+01 3.837E+01 4.180E+01 1.166E+07 19.6806 1.00000
  1.778E+08 1.778E+08 3.442E+00 7.689E-01 1.631E+01 2.646E+01 4.355E+01 4.699E+01 1.210E+07 19.9108 1.00000
  1.995E+08 1.995E+08 3.457E+00 8.706E-01 1.834E+01 3.022E+01 4.942E+01 5.288E+01 1.254E+07 20.1411 1.00000
  2.239E+08 2.239E+08 3.472E+00 9.854E-01 2.061E+01 3.450E+01 5.610E+01 5.957E+01 1.297E+07 20.3713 1.00000
  2.512E+08 2.512E+08 3.488E+00 1.115E+00 2.316E+01 3.940E+01 6.367E+01 6.716E+01 1.340E+07 20.6016 1.00000
  2.818E+08 2.818E+08 3.503E+00 1.261E+00 2.602E+01 4.499E+01 7.227E+01 7.578E+01 1.383E+07 20.8318 1.00000
  3.162E+08 3.162E+08 3.518E+00 1.427E+00 2.923E+01 5.138E+01 8.204E+01 8.556E+01 1.426E+07 21.0621 1.00000
  3.548E+08 3.548E+08 3.534E+00 1.613E+00 3.284E+01 5.869E+01 9.314E+01 9.667E+01 1.469E+07 21.2924 1.00000
  3.981E+08 3.981E+08 3.550E+00 1.823E+00 3.688E+01 6.704E+01 1.057E+02 1.093E+02 1.511E+07 21.5226 1.00000
  4.467E+08 4.467E+08 3.565E+00 2.060E+00 4.142E+01 7.657E+01 1.201E+02 1.236E+02 1.553E+07 21.7529 1.00000
  5.012E+08 5.012E+08 3.581E+00 2.327E+00 4.652E+01 8.748E+01 1.363E+02 1.399E+02 1.594E+07 21.9831 1.00000
  5.623E+08 5.623E+08 3.597E+00 2.629E+00 5.224E+01 9.993E+01 1.548E+02 1.584E+02 1.635E+07 22.2134 1.00000
  6.310E+08 6.310E+08 3.612E+00 2.968E+00 5.865E+01 1.142E+02 1.758E+02 1.794E+02 1.676E+07 22.4436 1.00000
  7.079E+08 7.079E+08 3.628E+00 3.351E+00 6.586E+01 1.305E+02 1.997E+02 2.033E+02 1.717E+07 22.6739 1.00000
  7.943E+08 7.943E+08 3.644E+00 3.781E+00 7.394E+01 1.491E+02 2.268E+02 2.304E+02 1.757E+07 22.9042 1.00000
  8.913E+08 8.913E+08 3.660E+00 4.267E+00 8.301E+01 1.703E+02 2.576E+02 2.613E+02 1.796E+07 23.1344 1.00000
  1.000E+09 1.000E+09 3.677E+00 4.813E+00 9.318E+01 1.946E+02 2.926E+02 2.963E+02 1.835E+07 23.3647 1.00000
  1.122E+09 1.122E+09 3.693E+00 5.428E+00 1.046E+02 2.224E+02 3.325E+02 3.362E+02 1.874E+07 23.5949 1.00000
  1.259E+09 1.259E+09 3.709E+00 6.121E+00 1.174E+02 2.542E+02 3.778E+02 3.815E+02 1.912E+07 23.8252 1.00000
  1.413E+09 1.413E+09 3.726E+00 6.900E+00 1.318E+02 2.906E+02 4.293E+02 4.330E+02 1.950E+07 24.0554 1.00000
  1.585E+09 1.585E+09 3.742E+00 7.777E+00 1.479E+02 3.321E+02 4.878E+02 4.916E+02 1.988E+07 24.2857 1.00000
  1.778E+09 1.778E+09 3.759E+00 8.763E+00 1.660E+02 3.797E+02 5.545E+02 5.582E+02 2.025E+07 24.5160 1.00000
  1.995E+09 1.995E+09 3.776E+00 9.872E+00 1.863E+02 4.340E+02 6.302E+02 6.340E+02 2.061E+07 24.7462 1.00000
  2.239E+09 2.239E+09 3.792E+00 1.112E+01 2.091E+02 4.961E+02 7.164E+02 7.202E+02 2.097E+07 24.9765 1.00000
  2.512E+09 2.512E+09 3.809E+00 1.252E+01 2.347E+02 5.672E+02 8.145E+02 8.183E+02 2.133E+07 25.2067 1.00000
  2.818E+09 2.818E+09 3.826E+00 1.410E+01 2.634E+02 6.485E+02 9.260E+02 9.299E+02 2.168E+07 25.4370 1.00000
  3.162E+09 3.162E+09 3.843E+00 1.587E+01 2.956E+02 7.415E+02 1.053E+03 1.057E+03 2.203E+07 25.6673 1.00000
  3.548E+09 3.548E+09 3.861E+00 1.786E+01 3.317E+02 8.479E+02 1.197E+03 1.201E+03 2.237E+07 25.8975 1.00000
  3.981E+09 3.981E+09 3.878E+00 2.010E+01 3.723E+02 9.696E+02 1.362E+03 1.366E+03 2.271E+07 26.1278 1.00000
  4.467E+09 4.467E+09 3.895E+00 2.262E+01 4.178E+02 1.109E+03 1.549E+03 1.553E+03 2.305E+07 26.3580 1.00000
  5.012E+09 5.012E+09 3.913E+00 2.545E+01 4.688E+02 1.268E+03 1.762E+03 1.766E+03 2.338E+07 26.5883 1.00000
  5.623E+09 5.623E+09 3.930E+00 2.863E+01 5.261E+02 1.450E+03 2.005E+03 2.009E+03 2.370E+07 26.8185 1.00000
  6.310E+09 6.310E+09 3.948E+00 3.219E+01 5.903E+02 1.659E+03 2.281E+03 2.285E+03 2.402E+07 27.0488 1.00000
  7.079E+09 7.079E+09 3.966E+00 3.620E+01 6.624E+02 1.897E+03 2.596E+03 2.600E+03 2.434E+07 27.2791 1.00000
  7.943E+09 7.943E+09 3.984E+00 4.071E+01 7.433E+02 2.170E+03 2.954E+03 2.958E+03 2.465E+07 27.5093 1.00000
  8.913E+09 8.913E+09 4.001E+00 4.576E+01 8.341E+02 2.482E+03 3.362E+03 3.366E+03 2.496E+07 27.7396 1.00000
  1.000E+10 1.000E+10 4.020E+00 5.144E+01 9.359E+02 2.840E+03 3.827E+03 3.831E+03 2.526E+07 27.9698 1.00000
  1.122E+10 1.122E+10 4.038E+00 5.782E+01 1.050E+03 3.249E+03 4.357E+03 4.361E+03 2.556E+07 28.2001 1.00000
  1.259E+10 1.259E+10 4.056E+00 6.498E+01 1.178E+03 3.717E+03 4.961E+03 4.965E+03 2.586E+07 28.4304 1.00000
  1.413E+10 1.413E+10 4.074E+00 7.302E+01 1.322E+03 4.253E+03 5.648E+03 5.652E+03 2.615E+07 28.6606 1.00000
  1.585E+10 1.585E+10 4.093E+00 8.205E+01 1.484E+03 4.867E+03 6.432E+03 6.436E+03 2.643E+07 28.8909 1.00000
  1.778E+10 1.778E+10 4.111E+00 9.219E+01 1.665E+03 5.569E+03 7.326E+03 7.330E+03 2.671E+07 29.1211 1.00000
  1.995E+10 1.995E+10 4.130E+00 1.036E+02 1.868E+03 6.373E+03 8.344E+03 8.348E+03 2.699E+07 29.3514 1.00000
  2.239E+10 2.239E+10 4.149E+00 1.163E+02 2.096E+03 7.293E+03 9.505E+03 9.509E+03 2.727E+07 29.5817 1.00000
  2.512E+10 2.512E+10 4.168E+00 1.307E+02 2.352E+03 8.346E+03 1.083E+04 1.083E+04 2.754E+07 29.8119 1.00000
  2.818E+10 2.818E+10 4.187E+00 1.468E+02 2.638E+03 9.553E+03 1.234E+04 1.234E+04 2.780E+07 30.0422 1.00000
  3.162E+10 3.162E+10 4.206E+00 1.648E+02 2.960E+03 1.093E+04 1.406E+04 1.406E+04 2.806E+07 30.2724 1.00000
  3.548E+10 3.548E+10 4.225E+00 1.851E+02 3.322E+03 1.252E+04 1.602E+04 1.603E+04 2.832E+07 30.5027 1.00000
  3.981E+10 3.981E+10 4.244E+00 2.079E+02 3.727E+03 1.433E+04 1.826E+04 1.827E+04 2.857E+07 30.7329 1.00000
  4.467E+10 4.467E+10 4.264E+00 2.334E+02 4.182E+03 1.640E+04 2.082E+04 2.082E+04 2.882E+07 30.9632 1.00000
  5.012E+10 5.012E+10 4.283E+00 2.621E+02 4.692E+03 1.878E+04 2.373E+04 2.373E+04 2.907E+07 31.1935 1.00000
  5.623E+10 5.623E+10 4.303E+00 2.942E+02 5.264E+03 2.150E+04 2.705E+04 2.706E+04 2.931E+07 31.4237 1.00000
  6.310E+10 6.310E+10 4.323E+00 3.303E+02 5.907E+03 2.461E+04 3.085E+04 3.085E+04 2.955E+07 31.6540 1.00000
  7.079E+10 7.079E+10 4.343E+00 3.709E+02 6.627E+03 2.818E+04 3.518E+04 3.518E+04 2.978E+07 31.8842 1.00000
  7.943E+10 7.943E+10 4.363E+00 4.163E+02 7.436E+03 3.227E+04 4.012E+04 4.013E+04 3.001E+07 32.1145 1.00000
  8.913E+10 8.913E+10 4.383E+00 4.673E+02 8.343E+03 3.695E+04 4.576E+04 4.577E+04 3.024E+07 32.3448 1.00000
  1.000E+11 1.000E+11 4.403E+00 5.246E+02 9.361E+03 4.232E+04 5.220E+04 5.221E+04 3.046E+07 32.5750 1.00000
  1.122E+11 1.122E+11 4.423E+00 5.888E+02 1.050E+04 4.846E+04 5.955E+04 5.956E+04 3.068E+07 32.8053 1.00000
  1.259E+11 1.259E+11 4.444E+00 6.609E+02 1.178E+04 5.550E+04 6.795E+04 6.795E+04 3.090E+07 33.0355 1.00000
  1.413E+11 1.413E+11 4.464E+00 7.418E+02 1.322E+04 6.357E+04 7.754E+04 7.754E+04 3.111E+07 33.2658 1.00000
  1.585E+11 1.585E+11 4.485E+00 8.326E+02 1.484E+04 7.282E+04 8.849E+04 8.849E+04 3.132E+07 33.4960 1.00000
  1.778E+11 1.778E+11 4.506E+00 9.345E+02 1.664E+04 8.341E+04 1.010E+05 1.010E+05 3.152E+07 33.7263 1.00000
  1.995E+11 1.995E+11 4.527E+00 1.049E+03 1.868E+04 9.555E+04 1.153E+05 1.153E+05 3.173E+07 33.9566 1.00000
  2.239E+11 2.239E+11 4.548E+00 1.177E+03 2.095E+04 1.095E+05 1.316E+05 1.316E+05 3.192E+07 34.1868 1.00000
  2.512E+11 2.512E+11 4.569E+00 1.321E+03 2.351E+04 1.254E+05 1.502E+05 1.502E+05 3.212E+07 34.4171 1.00000
  2.818E+11 2.818E+11 4.590E+00 1.482E+03 2.638E+04 1.437E+05 1.715E+05 1.715E+05 3.231E+07 34.6473 1.00000
  3.162E+11 3.162E+11 4.612E+00 1.664E+03 2.960E+04 1.646E+05 1.959E+05 1.959E+05 3.250E+07 34.8776 1.00000
  3.548E+11 3.548E+11 4.633E+00 1.867E+03 3.321E+04 1.886E+05 2.237E+05 2.237E+05 3.268E+07 35.1079 1.00000
  3.981E+11 3.981E+11 4.655E+00 2.095E+03 3.726E+04 2.162E+05 2.555E+05 2.555E+05 3.286E+07 35.3381 1.00000
  4.467E+11 4.467E+11 4.677E+00 2.351E+03 4.180E+04 2.477E+05 2.919E+05 2.919E+05 3.304E+07 35.5684 1.00000
  5.012E+11 5.012E+11 4.698E+00 2.638E+03 4.690E+04 2.839E+05 3.334E+05 3.334E+05 3.322E+07 35.7986 1.00000
  5.623E+11 5.623E+11 4.720E+00 2.961E+03 5.262E+04 3.253E+05 3.809E+05 3.809E+05 3.339E+07 36.0289 1.00000
  6.310E+11 6.310E+11 4.742E+00 3.322E+03 5.904E+04 3.729E+05 4.353E+05 4.353E+05 3.356E+07 36.2591 1.00000
  7.079E+11 7.079E+11 4.765E+00 3.728E+03 6.624E+04 4.274E+05 4.974E+05 4.974E+05 3.372E+07 36.4894 1.00000
  7.943E+11 7.943E+11 4.787E+00 4.183E+03 7.432E+04 4.899E+05 5.684E+05 5.684E+05 3.389E+07 36.7197 1.00000
  8.913E+11 8.913E+11 4.810E+00 4.694E+03 8.339E+04 5.616E+05 6.497E+05 6.497E+05 3.405E+07 36.9499 1.00000
  1.000E+12 1.000E+12 4.832E+00 5.267E+03 9.356E+04 6.438E+05 7.426E+05 7.426E+05 3.420E+07 37.1802 1.00000
  1.122E+12 1.122E+12 4.855E+00 5.910E+03 1.050E+05 7.381E+05 8.489E+05 8.490E+05 3.436E+07 37.4104 1.00000
  1.259E+12 1.259E+12 4.878E+00 6.632E+03 1.178E+05 8.462E+05 9.706E+05 9.706E+05 3.451E+07 37.6407 1.00000
  1.413E+12 1.413E+12 4.901E+00 7.441E+03 1.321E+05 9.702E+05 1.110E+06 1.110E+06 3.466E+07 37.8710 1.00000
  1.585E+12 1.585E+12 4.924E+00 8.350E+03 1.483E+05 1.112E+06 1.269E+06 1.269E+06 3.480E+07 38.1012 1.00000
  1.778E+12 1.778E+12 4.947E+00 9.369E+03 1.663E+05 1.276E+06 1.451E+06 1.451E+06 3.495E+07 38.3315 1.00000
  1.995E+12 1.995E+12 4.971E+00 1.051E+04 1.866E+05 1.463E+06 1.660E+06 1.660E+06 3.509E+07 38.5617 1.00000
  2.239E+12 2.239E+12 4.994E+00 1.180E+04 2.094E+05 1.677E+06 1.899E+06 1.899E+06 3.522E+07 38.7920 1.00000
  2.512E+12 2.512E+12 5.018E+00 1.324E+04 2.349E+05 1.924E+06 2.172E+06 2.172E+06 3.536E+07 39.0222 1.00000
  2.818E+12 2.818E+12 5.041E+00 1.485E+04 2.636E+05 2.206E+06 2.485E+06 2.485E+06 3.549E+07 39.2525 1.00000
  3.162E+12 3.162E+12 5.065E+00 1.666E+04 2.957E+05 2.531E+06 2.843E+06 2.843E+06 3.562E+07 39.4828 1.00000
  3.548E+12 3.548E+12 5.089E+00 1.870E+04 3.318E+05 2.903E+06 3.253E+06 3.253E+06 3.575E+07 39.7130 1.00000
  3.981E+12 3.981E+12 5.114E+00 2.098E+04 3.723E+05 3.329E+06 3.723E+06 3.723E+06 3.587E+07 39.9433 1.00000
  4.467E+12 4.467E+12 5.138E+00 2.354E+04 4.177E+05 3.819E+06 4.260E+06 4.260E+06 3.599E+07 40.1735 1.00000
  5.012E+12 5.012E+12 5.162E+00 2.641E+04 4.686E+05 4.381E+06 4.876E+06 4.876E+06 3.611E+07 40.4038 1.00000
  5.623E+12 5.623E+12 5.187E+00 2.964E+04 5.258E+05 5.026E+06 5.582E+06 5.582E+06 3.623E+07 40.6341 1.00000
  6.310E+12 6.310E+12 5.211E+00 3.325E+04 5.899E+05 5.767E+06 6.390E+06 6.390E+06 3.635E+07 40.8643 1.00000
  7.079E+12 7.079E+12 5.236E+00 3.731E+04 6.619E+05 6.616E+06 7.316E+06 7.316E+06 3.646E+07 41.0946 1.00000
  7.943E+12 7.943E+12 5.261E+00 4.186E+04 7.426E+05 7.592E+06 8.376E+06 8.376E+06 3.657E+07 41.3248 1.00000
  8.913E+12 8.913E+12 5.286E+00 4.697E+04 8.332E+05 8.711E+06 9.591E+06 9.591E+06 3.668E+07 41.5551 1.00000
  1.000E+13 1.000E+13 5.312E+00 5.270E+04 9.348E+05 9.996E+06 1.098E+07 1.098E+07 3.678E+07 41.7854 1.00000
  1.122E+13 1.122E+13 5.337E+00 5.913E+04 1.049E+06 1.147E+07 1.258E+07 1.258E+07 3.689E+07 42.0156 1.00000
  1.259E+13 1.259E+13 5.362E+00 6.635E+04 1.177E+06 1.317E+07 1.441E+07 1.441E+07 3.699E+07 42.2459 1.00000
  1.413E+13 1.413E+13 5.388E+00 7.445E+04 1.320E+06 1.511E+07 1.650E+07 1.650E+07 3.709E+07 42.4761 1.00000
  1.585E+13 1.585E+13 5.414E+00 8.353E+04 1.481E+06 1.734E+07 1.891E+07 1.891E+07 3.719E+07 42.7064 1.00000
  1.778E+13 1.778E+13 5.440E+00 9.372E+04 1.662E+06 1.990E+07 2.166E+07 2.166E+07 3.728E+07 42.9366 1.00000
  1.995E+13 1.995E+13 5.466E+00 1.052E+05 1.865E+06 2.285E+07 2.482E+07 2.482E+07 3.738E+07 43.1669 1.00000
  2.239E+13 2.239E+13 5.492E+00 1.180E+05 2.092E+06 2.623E+07 2.844E+07 2.844E+07 3.747E+07 43.3972 1.00000
  2.512E+13 2.512E+13 5.518E+00 1.324E+05 2.347E+06 3.011E+07 3.259E+07 3.259E+07 3.756E+07 43.6274 1.00000
  2.818E+13 2.818E+13 5.545E+00 1.485E+05 2.633E+06 3.456E+07 3.735E+07 3.735E+07 3.765E+07 43.8577 1.00000
  3.162E+13 3.162E+13 5.572E+00 1.667E+05 2.954E+06 3.968E+07 4.280E+07 4.280E+07 3.773E+07 44.0879 1.00000
  3.548E+13 3.548E+13 5.598E+00 1.870E+05 3.315E+06 4.556E+07 4.906E+07 4.906E+07 3.782E+07 44.3182 1.00000
  3.981E+13 3.981E+13 5.625E+00 2.098E+05 3.719E+06 5.231E+07 5.624E+07 5.624E+07 3.790E+07 44.5485 1.00000
  4.467E+13 4.467E+13 5.652E+00 2.354E+05 4.173E+06 6.007E+07 6.447E+07 6.447E+07 3.798E+07 44.7787 1.00000
  5.012E+13 5.012E+13 5.680E+00 2.642E+05 4.681E+06 6.897E+07 7.392E+07 7.392E+07 3.806E+07 45.0090 1.00000
  5.623E+13 5.623E+13 5.707E+00 2.964E+05 5.252E+06 7.920E+07 8.475E+07 8.475E+07 3.814E+07 45.2392 1.00000
  6.310E+13 6.310E+13 5.734E+00 3.326E+05 5.893E+06 9.096E+07 9.718E+07 9.718E+07 3.821E+07 45.4695 1.00000
  7.079E+13 7.079E+13 5.762E+00 3.731E+05 6.612E+06 1.045E+08 1.114E+08 1.114E+08 3.829E+07 45.6997 1.00000
  7.943E+13 7.943E+13 5.790E+00 4.187E+05 7.418E+06 1.200E+08 1.278E+08 1.278E+08 3.836E+07 45.9300 1.00000
  8.913E+13 8.913E+13 5.818E+00 4.698E+05 8.323E+06 1.378E+08 1.466E+08 1.466E+08 3.843E+07 46.1603 1.00000
