 Incident particle is a Tau with M = 1776.82000 MeV
 Index = 0: Gold
      Absorber with <Z/A> = 0.40108
 Sternheimer coef:  a     k=m_s   x_0    x_1    I[eV]   Cbar  delta0
                 0.0976  3.1101  0.2021  3.6979  790.0  5.5747 0.14

 *** Table generated with PUMAS v1.00 ***

      T         p     Ionization  brems     pair     photonuc  Radloss    dE/dx   CSDA Range  delta   beta
    [MeV]    [MeV/c]  -----------------------[MeV cm^2/g]------------------------  [g/cm^2]
  1.000E+05 1.018E+05 1.563E+00 1.023E-03 1.817E-02 7.560E-03 2.675E-02 1.589E+00 3.146E+04  3.2874 0.99985
  1.122E+05 1.140E+05 1.581E+00 1.186E-03 2.175E-02 8.485E-03 3.142E-02 1.612E+00 3.908E+04  3.4551 0.99988
  1.259E+05 1.277E+05 1.598E+00 1.375E-03 2.596E-02 9.474E-03 3.681E-02 1.635E+00 4.751E+04  3.6262 0.99990
  1.413E+05 1.430E+05 1.616E+00 1.593E-03 3.091E-02 1.058E-02 4.308E-02 1.659E+00 5.684E+04  3.8007 0.99992
  1.585E+05 1.603E+05 1.634E+00 1.844E-03 3.670E-02 1.181E-02 5.035E-02 1.684E+00 6.715E+04  3.9784 0.99994
  1.778E+05 1.796E+05 1.651E+00 2.133E-03 4.346E-02 1.318E-02 5.877E-02 1.710E+00 7.855E+04  4.1592 0.99995
  1.995E+05 2.013E+05 1.668E+00 2.467E-03 5.136E-02 1.472E-02 6.855E-02 1.737E+00 9.114E+04  4.3430 0.99996
  2.239E+05 2.256E+05 1.686E+00 2.850E-03 6.055E-02 1.641E-02 7.980E-02 1.765E+00 1.050E+05  4.5298 0.99997
  2.512E+05 2.530E+05 1.703E+00 3.292E-03 7.122E-02 1.828E-02 9.280E-02 1.795E+00 1.204E+05  4.7193 0.99998
  2.818E+05 2.836E+05 1.719E+00 3.800E-03 8.361E-02 2.038E-02 1.078E-01 1.827E+00 1.373E+05  4.9116 0.99998
  3.162E+05 3.180E+05 1.736E+00 4.384E-03 9.794E-02 2.274E-02 1.251E-01 1.861E+00 1.560E+05  5.1065 0.99998
  3.548E+05 3.566E+05 1.753E+00 5.054E-03 1.145E-01 2.538E-02 1.449E-01 1.898E+00 1.765E+05  5.3039 0.99999
  3.981E+05 3.999E+05 1.769E+00 5.824E-03 1.336E-01 2.832E-02 1.678E-01 1.937E+00 1.991E+05  5.5037 0.99999
  4.467E+05 4.485E+05 1.785E+00 6.708E-03 1.556E-01 3.159E-02 1.939E-01 1.979E+00 2.239E+05  5.7058 0.99999
  5.012E+05 5.030E+05 1.801E+00 7.721E-03 1.810E-01 3.526E-02 2.240E-01 2.025E+00 2.511E+05  5.9101 0.99999
  5.623E+05 5.641E+05 1.817E+00 8.883E-03 2.101E-01 3.920E-02 2.582E-01 2.075E+00 2.809E+05  6.1165 1.00000
  6.310E+05 6.327E+05 1.833E+00 1.022E-02 2.435E-01 4.364E-02 2.974E-01 2.130E+00 3.136E+05  6.3250 1.00000
  7.079E+05 7.097E+05 1.849E+00 1.174E-02 2.818E-01 4.863E-02 3.421E-01 2.191E+00 3.492E+05  6.5354 1.00000
  7.943E+05 7.961E+05 1.864E+00 1.349E-02 3.256E-01 5.425E-02 3.933E-01 2.257E+00 3.881E+05  6.7476 1.00000
  8.913E+05 8.930E+05 1.879E+00 1.549E-02 3.757E-01 6.058E-02 4.517E-01 2.331E+00 4.303E+05  6.9615 1.00000
  1.000E+06 1.002E+06 1.894E+00 1.777E-02 4.328E-01 6.772E-02 5.183E-01 2.413E+00 4.762E+05  7.1770 1.00000
  1.122E+06 1.124E+06 1.909E+00 2.039E-02 4.981E-01 7.578E-02 5.942E-01 2.504E+00 5.258E+05  7.3941 1.00000
  1.259E+06 1.261E+06 1.924E+00 2.338E-02 5.724E-01 8.489E-02 6.806E-01 2.605E+00 5.795E+05  7.6127 1.00000
  1.413E+06 1.414E+06 1.939E+00 2.679E-02 6.569E-01 9.520E-02 7.789E-01 2.718E+00 6.372E+05  7.8326 1.00000
  1.585E+06 1.587E+06 1.953E+00 3.070E-02 7.531E-01 1.069E-01 8.907E-01 2.844E+00 6.992E+05  8.0538 1.00000
  1.778E+06 1.780E+06 1.967E+00 3.515E-02 8.623E-01 1.201E-01 1.018E+00 2.985E+00 7.656E+05  8.2762 1.00000
  1.995E+06 1.997E+06 1.982E+00 4.024E-02 9.864E-01 1.351E-01 1.162E+00 3.143E+00 8.365E+05  8.4997 1.00000
  2.239E+06 2.240E+06 1.996E+00 4.604E-02 1.127E+00 1.521E-01 1.325E+00 3.321E+00 9.119E+05  8.7242 1.00000
  2.512E+06 2.514E+06 2.009E+00 5.266E-02 1.286E+00 1.713E-01 1.510E+00 3.520E+00 9.918E+05  8.9496 1.00000
  2.818E+06 2.820E+06 2.023E+00 6.020E-02 1.467E+00 1.932E-01 1.720E+00 3.743E+00 1.076E+06  9.1759 1.00000
  3.162E+06 3.164E+06 2.036E+00 6.880E-02 1.671E+00 2.181E-01 1.958E+00 3.994E+00 1.165E+06  9.4029 1.00000
  3.548E+06 3.550E+06 2.050E+00 7.860E-02 1.902E+00 2.464E-01 2.227E+00 4.277E+00 1.259E+06  9.6305 1.00000
  3.981E+06 3.983E+06 2.063E+00 8.976E-02 2.163E+00 2.785E-01 2.532E+00 4.594E+00 1.356E+06  9.8588 1.00000
  4.467E+06 4.469E+06 2.076E+00 1.025E-01 2.458E+00 3.150E-01 2.876E+00 4.952E+00 1.458E+06 10.0876 1.00000
  5.012E+06 5.014E+06 2.089E+00 1.169E-01 2.791E+00 3.566E-01 3.265E+00 5.353E+00 1.564E+06 10.3168 1.00000
  5.623E+06 5.625E+06 2.101E+00 1.334E-01 3.167E+00 4.039E-01 3.704E+00 5.806E+00 1.674E+06 10.5463 1.00000
  6.310E+06 6.311E+06 2.114E+00 1.521E-01 3.591E+00 4.578E-01 4.201E+00 6.315E+00 1.787E+06 10.7761 1.00000
  7.079E+06 7.081E+06 2.126E+00 1.734E-01 4.069E+00 5.191E-01 4.761E+00 6.887E+00 1.904E+06 11.0061 1.00000
  7.943E+06 7.945E+06 2.138E+00 1.976E-01 4.607E+00 5.890E-01 5.394E+00 7.532E+00 2.024E+06 11.2363 1.00000
  8.913E+06 8.914E+06 2.150E+00 2.250E-01 5.214E+00 6.686E-01 6.108E+00 8.258E+00 2.147E+06 11.4665 1.00000
  1.000E+07 1.000E+07 2.162E+00 2.563E-01 5.897E+00 7.593E-01 6.913E+00 9.075E+00 2.273E+06 11.6967 1.00000
  1.122E+07 1.122E+07 2.174E+00 2.917E-01 6.667E+00 8.626E-01 7.821E+00 9.995E+00 2.401E+06 11.9269 1.00000
  1.259E+07 1.259E+07 2.186E+00 3.319E-01 7.532E+00 9.804E-01 8.845E+00 1.103E+01 2.532E+06 12.1571 1.00000
  1.413E+07 1.413E+07 2.198E+00 3.776E-01 8.506E+00 1.115E+00 9.999E+00 1.220E+01 2.665E+06 12.3874 1.00000
  1.585E+07 1.585E+07 2.209E+00 4.294E-01 9.602E+00 1.268E+00 1.130E+01 1.351E+01 2.799E+06 12.6176 1.00000
  1.778E+07 1.778E+07 2.221E+00 4.881E-01 1.083E+01 1.443E+00 1.277E+01 1.499E+01 2.935E+06 12.8478 1.00000
  1.995E+07 1.995E+07 2.232E+00 5.547E-01 1.222E+01 1.642E+00 1.442E+01 1.665E+01 3.073E+06 13.0781 1.00000
  2.239E+07 2.239E+07 2.244E+00 6.301E-01 1.378E+01 1.869E+00 1.628E+01 1.852E+01 3.212E+06 13.3083 1.00000
  2.512E+07 2.512E+07 2.255E+00 7.156E-01 1.553E+01 2.128E+00 1.837E+01 2.063E+01 3.351E+06 13.5385 1.00000
  2.818E+07 2.819E+07 2.266E+00 8.124E-01 1.750E+01 2.424E+00 2.073E+01 2.300E+01 3.492E+06 13.7688 1.00000
  3.162E+07 3.162E+07 2.278E+00 9.219E-01 1.971E+01 2.761E+00 2.339E+01 2.567E+01 3.634E+06 13.9990 1.00000
  3.548E+07 3.548E+07 2.289E+00 1.046E+00 2.219E+01 3.146E+00 2.638E+01 2.867E+01 3.777E+06 14.2293 1.00000
  3.981E+07 3.981E+07 2.300E+00 1.186E+00 2.498E+01 3.586E+00 2.975E+01 3.205E+01 3.920E+06 14.4595 1.00000
  4.467E+07 4.467E+07 2.311E+00 1.345E+00 2.812E+01 4.088E+00 3.355E+01 3.586E+01 4.063E+06 14.6898 1.00000
  5.012E+07 5.012E+07 2.322E+00 1.524E+00 3.164E+01 4.660E+00 3.782E+01 4.014E+01 4.207E+06 14.9200 1.00000
  5.623E+07 5.624E+07 2.333E+00 1.727E+00 3.559E+01 5.314E+00 4.263E+01 4.496E+01 4.351E+06 15.1503 1.00000
  6.310E+07 6.310E+07 2.344E+00 1.956E+00 4.003E+01 6.060E+00 4.805E+01 5.039E+01 4.496E+06 15.3805 1.00000
  7.079E+07 7.080E+07 2.356E+00 2.215E+00 4.501E+01 6.912E+00 5.414E+01 5.650E+01 4.640E+06 15.6108 1.00000
  7.943E+07 7.943E+07 2.367E+00 2.508E+00 5.061E+01 7.885E+00 6.100E+01 6.337E+01 4.785E+06 15.8410 1.00000
  8.913E+07 8.913E+07 2.378E+00 2.838E+00 5.689E+01 8.995E+00 6.873E+01 7.111E+01 4.929E+06 16.0713 1.00000
  1.000E+08 1.000E+08 2.389E+00 3.210E+00 6.395E+01 1.026E+01 7.742E+01 7.981E+01 5.074E+06 16.3015 1.00000
  1.122E+08 1.122E+08 2.400E+00 3.631E+00 7.187E+01 1.171E+01 8.721E+01 8.961E+01 5.218E+06 16.5318 1.00000
  1.259E+08 1.259E+08 2.412E+00 4.105E+00 8.076E+01 1.337E+01 9.823E+01 1.006E+02 5.363E+06 16.7620 1.00000
  1.413E+08 1.413E+08 2.423E+00 4.640E+00 9.073E+01 1.526E+01 1.106E+02 1.131E+02 5.507E+06 16.9923 1.00000
  1.585E+08 1.585E+08 2.434E+00 5.243E+00 1.019E+02 1.741E+01 1.246E+02 1.270E+02 5.651E+06 17.2226 1.00000
  1.778E+08 1.778E+08 2.446E+00 5.922E+00 1.145E+02 1.988E+01 1.403E+02 1.427E+02 5.795E+06 17.4528 1.00000
  1.995E+08 1.995E+08 2.457E+00 6.688E+00 1.286E+02 2.270E+01 1.580E+02 1.604E+02 5.939E+06 17.6831 1.00000
  2.239E+08 2.239E+08 2.468E+00 7.551E+00 1.444E+02 2.591E+01 1.779E+02 1.804E+02 6.082E+06 17.9133 1.00000
  2.512E+08 2.512E+08 2.480E+00 8.522E+00 1.622E+02 2.959E+01 2.003E+02 2.028E+02 6.225E+06 18.1436 1.00000
  2.818E+08 2.818E+08 2.491E+00 9.617E+00 1.821E+02 3.379E+01 2.255E+02 2.280E+02 6.368E+06 18.3738 1.00000
  3.162E+08 3.162E+08 2.503E+00 1.085E+01 2.045E+02 3.859E+01 2.540E+02 2.565E+02 6.510E+06 18.6041 1.00000
  3.548E+08 3.548E+08 2.515E+00 1.223E+01 2.296E+02 4.407E+01 2.859E+02 2.884E+02 6.652E+06 18.8344 1.00000
  3.981E+08 3.981E+08 2.526E+00 1.380E+01 2.578E+02 5.033E+01 3.219E+02 3.245E+02 6.794E+06 19.0646 1.00000
  4.467E+08 4.467E+08 2.538E+00 1.555E+01 2.894E+02 5.749E+01 3.625E+02 3.650E+02 6.936E+06 19.2949 1.00000
  5.012E+08 5.012E+08 2.550E+00 1.753E+01 3.249E+02 6.568E+01 4.081E+02 4.107E+02 7.077E+06 19.5251 1.00000
  5.623E+08 5.623E+08 2.562E+00 1.975E+01 3.647E+02 7.503E+01 4.595E+02 4.621E+02 7.217E+06 19.7554 1.00000
  6.310E+08 6.310E+08 2.574E+00 2.224E+01 4.094E+02 8.572E+01 5.174E+02 5.200E+02 7.357E+06 19.9856 1.00000
  7.079E+08 7.079E+08 2.586E+00 2.505E+01 4.596E+02 9.794E+01 5.825E+02 5.851E+02 7.497E+06 20.2159 1.00000
  7.943E+08 7.943E+08 2.598E+00 2.821E+01 5.158E+02 1.119E+02 6.559E+02 6.585E+02 7.637E+06 20.4462 1.00000
  8.913E+08 8.913E+08 2.610E+00 3.176E+01 5.789E+02 1.279E+02 7.386E+02 7.412E+02 7.776E+06 20.6764 1.00000
  1.000E+09 1.000E+09 2.622E+00 3.575E+01 6.498E+02 1.461E+02 8.316E+02 8.343E+02 7.914E+06 20.9067 1.00000
  1.122E+09 1.122E+09 2.634E+00 4.023E+01 7.293E+02 1.670E+02 9.365E+02 9.391E+02 8.052E+06 21.1369 1.00000
  1.259E+09 1.259E+09 2.646E+00 4.526E+01 8.184E+02 1.908E+02 1.055E+03 1.057E+03 8.190E+06 21.3672 1.00000
  1.413E+09 1.413E+09 2.659E+00 5.092E+01 9.185E+02 2.181E+02 1.188E+03 1.190E+03 8.327E+06 21.5974 1.00000
  1.585E+09 1.585E+09 2.671E+00 5.728E+01 1.031E+03 2.493E+02 1.337E+03 1.340E+03 8.464E+06 21.8277 1.00000
  1.778E+09 1.778E+09 2.684E+00 6.442E+01 1.157E+03 2.850E+02 1.506E+03 1.509E+03 8.600E+06 22.0580 1.00000
  1.995E+09 1.995E+09 2.696E+00 7.244E+01 1.298E+03 3.258E+02 1.696E+03 1.699E+03 8.736E+06 22.2882 1.00000
  2.239E+09 2.239E+09 2.709E+00 8.144E+01 1.457E+03 3.724E+02 1.911E+03 1.913E+03 8.871E+06 22.5185 1.00000
  2.512E+09 2.512E+09 2.721E+00 9.155E+01 1.635E+03 4.258E+02 2.152E+03 2.155E+03 9.006E+06 22.7487 1.00000
  2.818E+09 2.818E+09 2.734E+00 1.029E+02 1.834E+03 4.868E+02 2.424E+03 2.427E+03 9.140E+06 22.9790 1.00000
  3.162E+09 3.162E+09 2.747E+00 1.157E+02 2.058E+03 5.566E+02 2.731E+03 2.733E+03 9.274E+06 23.2093 1.00000
  3.548E+09 3.548E+09 2.760E+00 1.300E+02 2.310E+03 6.364E+02 3.076E+03 3.079E+03 9.407E+06 23.4395 1.00000
  3.981E+09 3.981E+09 2.773E+00 1.460E+02 2.592E+03 7.278E+02 3.466E+03 3.468E+03 9.540E+06 23.6698 1.00000
  4.467E+09 4.467E+09 2.786E+00 1.641E+02 2.908E+03 8.323E+02 3.905E+03 3.907E+03 9.672E+06 23.9000 1.00000
  5.012E+09 5.012E+09 2.799E+00 1.843E+02 3.263E+03 9.518E+02 4.400E+03 4.402E+03 9.804E+06 24.1303 1.00000
  5.623E+09 5.623E+09 2.812E+00 2.071E+02 3.662E+03 1.089E+03 4.957E+03 4.960E+03 9.935E+06 24.3605 1.00000
  6.310E+09 6.310E+09 2.826E+00 2.326E+02 4.109E+03 1.245E+03 5.586E+03 5.589E+03 1.007E+07 24.5908 1.00000
  7.079E+09 7.079E+09 2.839E+00 2.612E+02 4.610E+03 1.424E+03 6.296E+03 6.299E+03 1.020E+07 24.8211 1.00000
  7.943E+09 7.943E+09 2.852E+00 2.934E+02 5.173E+03 1.629E+03 7.096E+03 7.098E+03 1.032E+07 25.0513 1.00000
  8.913E+09 8.913E+09 2.866E+00 3.295E+02 5.805E+03 1.863E+03 7.997E+03 8.000E+03 1.045E+07 25.2816 1.00000
  1.000E+10 1.000E+10 2.880E+00 3.700E+02 6.513E+03 2.132E+03 9.015E+03 9.018E+03 1.058E+07 25.5118 1.00000
  1.122E+10 1.122E+10 2.893E+00 4.154E+02 7.308E+03 2.439E+03 1.016E+04 1.016E+04 1.071E+07 25.7421 1.00000
  1.259E+10 1.259E+10 2.907E+00 4.665E+02 8.200E+03 2.790E+03 1.146E+04 1.146E+04 1.084E+07 25.9724 1.00000
  1.413E+10 1.413E+10 2.921E+00 5.237E+02 9.200E+03 3.192E+03 1.292E+04 1.292E+04 1.096E+07 26.2026 1.00000
  1.585E+10 1.585E+10 2.935E+00 5.880E+02 1.032E+04 3.653E+03 1.456E+04 1.457E+04 1.109E+07 26.4329 1.00000
  1.778E+10 1.778E+10 2.949E+00 6.600E+02 1.158E+04 4.180E+03 1.642E+04 1.643E+04 1.121E+07 26.6631 1.00000
  1.995E+10 1.995E+10 2.963E+00 7.410E+02 1.300E+04 4.783E+03 1.852E+04 1.852E+04 1.134E+07 26.8934 1.00000
  2.239E+10 2.239E+10 2.977E+00 8.317E+02 1.458E+04 5.474E+03 2.089E+04 2.089E+04 1.146E+07 27.1237 1.00000
  2.512E+10 2.512E+10 2.991E+00 9.336E+02 1.636E+04 6.265E+03 2.356E+04 2.356E+04 1.159E+07 27.3539 1.00000
  2.818E+10 2.818E+10 3.005E+00 1.048E+03 1.836E+04 7.170E+03 2.658E+04 2.658E+04 1.171E+07 27.5842 1.00000
  3.162E+10 3.162E+10 3.020E+00 1.176E+03 2.060E+04 8.207E+03 2.998E+04 2.998E+04 1.183E+07 27.8144 1.00000
  3.548E+10 3.548E+10 3.034E+00 1.320E+03 2.311E+04 9.394E+03 3.382E+04 3.383E+04 1.195E+07 28.0447 1.00000
  3.981E+10 3.981E+10 3.049E+00 1.482E+03 2.593E+04 1.075E+04 3.817E+04 3.817E+04 1.207E+07 28.2749 1.00000
  4.467E+10 4.467E+10 3.063E+00 1.663E+03 2.909E+04 1.231E+04 4.307E+04 4.307E+04 1.219E+07 28.5052 1.00000
  5.012E+10 5.012E+10 3.078E+00 1.866E+03 3.264E+04 1.409E+04 4.860E+04 4.861E+04 1.231E+07 28.7355 1.00000
  5.623E+10 5.623E+10 3.093E+00 2.095E+03 3.663E+04 1.613E+04 5.486E+04 5.486E+04 1.243E+07 28.9657 1.00000
  6.310E+10 6.310E+10 3.107E+00 2.351E+03 4.109E+04 1.847E+04 6.192E+04 6.192E+04 1.255E+07 29.1960 1.00000
  7.079E+10 7.079E+10 3.122E+00 2.638E+03 4.611E+04 2.115E+04 6.990E+04 6.990E+04 1.267E+07 29.4262 1.00000
  7.943E+10 7.943E+10 3.137E+00 2.960E+03 5.173E+04 2.422E+04 7.891E+04 7.892E+04 1.278E+07 29.6565 1.00000
  8.913E+10 8.913E+10 3.153E+00 3.322E+03 5.804E+04 2.774E+04 8.910E+04 8.911E+04 1.290E+07 29.8868 1.00000
  1.000E+11 1.000E+11 3.168E+00 3.728E+03 6.512E+04 3.176E+04 1.006E+05 1.006E+05 1.301E+07 30.1170 1.00000
  1.122E+11 1.122E+11 3.183E+00 4.183E+03 7.307E+04 3.638E+04 1.136E+05 1.136E+05 1.313E+07 30.3473 1.00000
  1.259E+11 1.259E+11 3.198E+00 4.695E+03 8.198E+04 4.166E+04 1.283E+05 1.283E+05 1.324E+07 30.5775 1.00000
  1.413E+11 1.413E+11 3.214E+00 5.268E+03 9.198E+04 4.772E+04 1.450E+05 1.450E+05 1.335E+07 30.8078 1.00000
  1.585E+11 1.585E+11 3.229E+00 5.911E+03 1.032E+05 5.466E+04 1.638E+05 1.638E+05 1.347E+07 31.0380 1.00000
  1.778E+11 1.778E+11 3.245E+00 6.633E+03 1.158E+05 6.261E+04 1.850E+05 1.850E+05 1.358E+07 31.2683 1.00000
  1.995E+11 1.995E+11 3.261E+00 7.443E+03 1.299E+05 7.172E+04 2.091E+05 2.091E+05 1.369E+07 31.4986 1.00000
  2.239E+11 2.239E+11 3.277E+00 8.352E+03 1.458E+05 8.216E+04 2.363E+05 2.363E+05 1.380E+07 31.7288 1.00000
  2.512E+11 2.512E+11 3.292E+00 9.372E+03 1.636E+05 9.413E+04 2.671E+05 2.671E+05 1.391E+07 31.9591 1.00000
  2.818E+11 2.818E+11 3.308E+00 1.052E+04 1.835E+05 1.078E+05 3.019E+05 3.019E+05 1.401E+07 32.1893 1.00000
  3.162E+11 3.162E+11 3.325E+00 1.180E+04 2.059E+05 1.236E+05 3.413E+05 3.413E+05 1.412E+07 32.4196 1.00000
  3.548E+11 3.548E+11 3.341E+00 1.324E+04 2.310E+05 1.416E+05 3.858E+05 3.858E+05 1.423E+07 32.6499 1.00000
  3.981E+11 3.981E+11 3.357E+00 1.486E+04 2.592E+05 1.623E+05 4.363E+05 4.363E+05 1.433E+07 32.8801 1.00000
  4.467E+11 4.467E+11 3.373E+00 1.667E+04 2.908E+05 1.859E+05 4.934E+05 4.934E+05 1.444E+07 33.1104 1.00000
  5.012E+11 5.012E+11 3.390E+00 1.870E+04 3.263E+05 2.131E+05 5.581E+05 5.581E+05 1.454E+07 33.3406 1.00000
  5.623E+11 5.623E+11 3.406E+00 2.099E+04 3.661E+05 2.442E+05 6.313E+05 6.313E+05 1.465E+07 33.5709 1.00000
  6.310E+11 6.310E+11 3.423E+00 2.355E+04 4.107E+05 2.799E+05 7.142E+05 7.142E+05 1.475E+07 33.8011 1.00000
  7.079E+11 7.079E+11 3.440E+00 2.642E+04 4.608E+05 3.208E+05 8.081E+05 8.081E+05 1.485E+07 34.0314 1.00000
  7.943E+11 7.943E+11 3.456E+00 2.965E+04 5.170E+05 3.677E+05 9.144E+05 9.144E+05 1.495E+07 34.2617 1.00000
  8.913E+11 8.913E+11 3.473E+00 3.327E+04 5.801E+05 4.215E+05 1.035E+06 1.035E+06 1.505E+07 34.4919 1.00000
  1.000E+12 1.000E+12 3.490E+00 3.732E+04 6.509E+05 4.832E+05 1.171E+06 1.171E+06 1.515E+07 34.7222 1.00000
  1.122E+12 1.122E+12 3.507E+00 4.188E+04 7.302E+05 5.540E+05 1.326E+06 1.326E+06 1.525E+07 34.9524 1.00000
  1.259E+12 1.259E+12 3.525E+00 4.699E+04 8.193E+05 6.352E+05 1.501E+06 1.501E+06 1.535E+07 35.1827 1.00000
  1.413E+12 1.413E+12 3.542E+00 5.273E+04 9.192E+05 7.282E+05 1.700E+06 1.700E+06 1.544E+07 35.4130 1.00000
  1.585E+12 1.585E+12 3.559E+00 5.916E+04 1.031E+06 8.350E+05 1.926E+06 1.926E+06 1.554E+07 35.6432 1.00000
  1.778E+12 1.778E+12 3.577E+00 6.638E+04 1.157E+06 9.574E+05 2.181E+06 2.181E+06 1.563E+07 35.8735 1.00000
  1.995E+12 1.995E+12 3.594E+00 7.448E+04 1.298E+06 1.098E+06 2.471E+06 2.471E+06 1.573E+07 36.1037 1.00000
  2.239E+12 2.239E+12 3.612E+00 8.357E+04 1.457E+06 1.259E+06 2.799E+06 2.799E+06 1.582E+07 36.3340 1.00000
  2.512E+12 2.512E+12 3.630E+00 9.376E+04 1.634E+06 1.444E+06 3.172E+06 3.172E+06 1.591E+07 36.5642 1.00000
  2.818E+12 2.818E+12 3.648E+00 1.052E+05 1.834E+06 1.656E+06 3.595E+06 3.595E+06 1.600E+07 36.7945 1.00000
  3.162E+12 3.162E+12 3.665E+00 1.180E+05 2.057E+06 1.899E+06 4.075E+06 4.075E+06 1.609E+07 37.0248 1.00000
  3.548E+12 3.548E+12 3.684E+00 1.324E+05 2.308E+06 2.179E+06 4.619E+06 4.619E+06 1.618E+07 37.2550 1.00000
  3.981E+12 3.981E+12 3.702E+00 1.486E+05 2.590E+06 2.499E+06 5.237E+06 5.237E+06 1.627E+07 37.4853 1.00000
  4.467E+12 4.467E+12 3.720E+00 1.667E+05 2.906E+06 2.867E+06 5.939E+06 5.939E+06 1.636E+07 37.7155 1.00000
  5.012E+12 5.012E+12 3.738E+00 1.871E+05 3.260E+06 3.289E+06 6.736E+06 6.736E+06 1.644E+07 37.9458 1.00000
  5.623E+12 5.623E+12 3.757E+00 2.099E+05 3.658E+06 3.773E+06 7.640E+06 7.640E+06 1.653E+07 38.1761 1.00000
  6.310E+12 6.310E+12 3.775E+00 2.355E+05 4.104E+06 4.329E+06 8.668E+06 8.668E+06 1.661E+07 38.4063 1.00000
  7.079E+12 7.079E+12 3.794E+00 2.643E+05 4.604E+06 4.966E+06 9.835E+06 9.835E+06 1.670E+07 38.6366 1.00000
  7.943E+12 7.943E+12 3.813E+00 2.965E+05 5.166E+06 5.698E+06 1.116E+07 1.116E+07 1.678E+07 38.8668 1.00000
  8.913E+12 8.913E+12 3.832E+00 3.327E+05 5.796E+06 6.539E+06 1.267E+07 1.267E+07 1.686E+07 39.0971 1.00000
  1.000E+13 1.000E+13 3.851E+00 3.733E+05 6.503E+06 7.503E+06 1.438E+07 1.438E+07 1.694E+07 39.3274 1.00000
  1.122E+13 1.122E+13 3.870E+00 4.189E+05 7.296E+06 8.611E+06 1.633E+07 1.633E+07 1.702E+07 39.5576 1.00000
  1.259E+13 1.259E+13 3.889E+00 4.700E+05 8.186E+06 9.882E+06 1.854E+07 1.854E+07 1.710E+07 39.7879 1.00000
  1.413E+13 1.413E+13 3.908E+00 5.273E+05 9.184E+06 1.134E+07 2.105E+07 2.105E+07 1.718E+07 40.0181 1.00000
  1.585E+13 1.585E+13 3.927E+00 5.916E+05 1.030E+07 1.302E+07 2.391E+07 2.391E+07 1.725E+07 40.2484 1.00000
  1.778E+13 1.778E+13 3.947E+00 6.638E+05 1.156E+07 1.494E+07 2.717E+07 2.717E+07 1.733E+07 40.4786 1.00000
  1.995E+13 1.995E+13 3.967E+00 7.448E+05 1.297E+07 1.715E+07 3.087E+07 3.087E+07 1.741E+07 40.7089 1.00000
  2.239E+13 2.239E+13 3.986E+00 8.357E+05 1.455E+07 1.969E+07 3.507E+07 3.507E+07 1.748E+07 40.9392 1.00000
  2.512E+13 2.512E+13 4.006E+00 9.377E+05 1.633E+07 2.260E+07 3.986E+07 3.986E+07 1.755E+07 41.1694 1.00000
  2.818E+13 2.818E+13 4.026E+00 1.052E+06 1.832E+07 2.594E+07 4.532E+07 4.532E+07 1.762E+07 41.3997 1.00000
  3.162E+13 3.162E+13 4.046E+00 1.181E+06 2.055E+07 2.979E+07 5.152E+07 5.152E+07 1.770E+07 41.6299 1.00000
  3.548E+13 3.548E+13 4.066E+00 1.325E+06 2.306E+07 3.420E+07 5.858E+07 5.858E+07 1.777E+07 41.8602 1.00000
  3.981E+13 3.981E+13 4.086E+00 1.486E+06 2.587E+07 3.926E+07 6.662E+07 6.662E+07 1.784E+07 42.0905 1.00000
  4.467E+13 4.467E+13 4.107E+00 1.668E+06 2.903E+07 4.509E+07 7.578E+07 7.578E+07 1.790E+07 42.3207 1.00000
  5.012E+13 5.012E+13 4.127E+00 1.871E+06 3.257E+07 5.177E+07 8.621E+07 8.621E+07 1.797E+07 42.5510 1.00000
  5.623E+13 5.623E+13 4.148E+00 2.099E+06 3.654E+07 5.945E+07 9.809E+07 9.809E+07 1.804E+07 42.7812 1.00000
  6.310E+13 6.310E+13 4.168E+00 2.355E+06 4.100E+07 6.827E+07 1.116E+08 1.116E+08 1.810E+07 43.0115 1.00000
  7.079E+13 7.079E+13 4.189E+00 2.643E+06 4.600E+07 7.841E+07 1.270E+08 1.270E+08 1.817E+07 43.2417 1.00000
  7.943E+13 7.943E+13 4.210E+00 2.965E+06 5.160E+07 9.005E+07 1.446E+08 1.446E+08 1.823E+07 43.4720 1.00000
  8.913E+13 8.913E+13 4.231E+00 3.327E+06 5.790E+07 1.034E+08 1.647E+08 1.647E+08 1.830E+07 43.7023 1.00000
