 Incident particle is a Tau with M = 1776.82000 MeV
 Index = 0: GypsumPlasterOfParis
      Absorber with <Z/A> = 0.51110
 Sternheimer coef:  a     k=m_s   x_0    x_1    I[eV]   Cbar  delta0
                 0.0695  3.5134  0.0995  3.1206  129.7  3.8382 0.00

 *** Table generated with PUMAS v1.00 ***

      T         p     Ionization  brems     pair     photonuc  Radloss    dE/dx   CSDA Range  delta   beta
    [MeV]    [MeV/c]  -----------------------[MeV cm^2/g]------------------------  [g/cm^2]
  1.000E+05 1.018E+05 2.183E+00 2.292E-04 3.635E-03 8.190E-03 1.205E-02 2.195E+00 2.278E+04  4.4635 0.99985
  1.122E+05 1.140E+05 2.203E+00 2.650E-04 4.372E-03 9.239E-03 1.388E-02 2.217E+00 2.831E+04  4.6651 0.99988
  1.259E+05 1.277E+05 2.223E+00 3.062E-04 5.241E-03 1.037E-02 1.591E-02 2.239E+00 3.446E+04  4.8692 0.99990
  1.413E+05 1.430E+05 2.243E+00 3.536E-04 6.264E-03 1.164E-02 1.825E-02 2.261E+00 4.129E+04  5.0758 0.99992
  1.585E+05 1.603E+05 2.263E+00 4.082E-04 7.466E-03 1.305E-02 2.093E-02 2.284E+00 4.887E+04  5.2847 0.99994
  1.778E+05 1.796E+05 2.283E+00 4.709E-04 8.874E-03 1.464E-02 2.398E-02 2.307E+00 5.730E+04  5.4958 0.99995
  1.995E+05 2.013E+05 2.303E+00 5.431E-04 1.052E-02 1.644E-02 2.750E-02 2.330E+00 6.666E+04  5.7088 0.99996
  2.239E+05 2.256E+05 2.322E+00 6.260E-04 1.244E-02 1.841E-02 3.148E-02 2.354E+00 7.705E+04  5.9237 0.99997
  2.512E+05 2.530E+05 2.342E+00 7.212E-04 1.468E-02 2.061E-02 3.602E-02 2.378E+00 8.860E+04  6.1404 0.99998
  2.818E+05 2.836E+05 2.361E+00 8.305E-04 1.729E-02 2.310E-02 4.122E-02 2.402E+00 1.014E+05  6.3587 0.99998
  3.162E+05 3.180E+05 2.380E+00 9.560E-04 2.032E-02 2.590E-02 4.717E-02 2.428E+00 1.157E+05  6.5785 0.99998
  3.548E+05 3.566E+05 2.400E+00 1.100E-03 2.382E-02 2.904E-02 5.397E-02 2.454E+00 1.315E+05  6.7996 0.99999
  3.981E+05 3.999E+05 2.419E+00 1.265E-03 2.788E-02 3.255E-02 6.170E-02 2.480E+00 1.490E+05  7.0220 0.99999
  4.467E+05 4.485E+05 2.438E+00 1.454E-03 3.258E-02 3.648E-02 7.051E-02 2.508E+00 1.685E+05  7.2455 0.99999
  5.012E+05 5.030E+05 2.457E+00 1.670E-03 3.799E-02 4.090E-02 8.057E-02 2.537E+00 1.901E+05  7.4701 0.99999
  5.623E+05 5.641E+05 2.475E+00 1.919E-03 4.424E-02 4.569E-02 9.184E-02 2.567E+00 2.141E+05  7.6955 1.00000
  6.310E+05 6.327E+05 2.494E+00 2.203E-03 5.143E-02 5.108E-02 1.047E-01 2.599E+00 2.406E+05  7.9218 1.00000
  7.079E+05 7.097E+05 2.513E+00 2.528E-03 5.969E-02 5.716E-02 1.194E-01 2.632E+00 2.701E+05  8.1488 1.00000
  7.943E+05 7.961E+05 2.531E+00 2.900E-03 6.918E-02 6.402E-02 1.361E-01 2.667E+00 3.027E+05  8.3765 1.00000
  8.913E+05 8.930E+05 2.549E+00 3.326E-03 8.007E-02 7.178E-02 1.552E-01 2.705E+00 3.388E+05  8.6047 1.00000
  1.000E+06 1.002E+06 2.568E+00 3.812E-03 9.254E-02 8.054E-02 1.769E-01 2.745E+00 3.787E+05  8.8333 1.00000
  1.122E+06 1.124E+06 2.586E+00 4.369E-03 1.068E-01 9.046E-02 2.016E-01 2.787E+00 4.228E+05  9.0623 1.00000
  1.259E+06 1.261E+06 2.604E+00 5.004E-03 1.231E-01 1.017E-01 2.298E-01 2.834E+00 4.715E+05  9.2917 1.00000
  1.413E+06 1.414E+06 2.622E+00 5.731E-03 1.418E-01 1.144E-01 2.619E-01 2.884E+00 5.252E+05  9.5213 1.00000
  1.585E+06 1.587E+06 2.639E+00 6.561E-03 1.630E-01 1.288E-01 2.984E-01 2.938E+00 5.845E+05  9.7511 1.00000
  1.778E+06 1.780E+06 2.657E+00 7.508E-03 1.872E-01 1.452E-01 3.400E-01 2.997E+00 6.496E+05  9.9810 1.00000
  1.995E+06 1.997E+06 2.674E+00 8.590E-03 2.148E-01 1.638E-01 3.872E-01 3.062E+00 7.213E+05 10.2110 1.00000
  2.239E+06 2.240E+06 2.692E+00 9.824E-03 2.462E-01 1.849E-01 4.409E-01 3.133E+00 7.999E+05 10.4411 1.00000
  2.512E+06 2.514E+06 2.709E+00 1.123E-02 2.819E-01 2.088E-01 5.019E-01 3.211E+00 8.860E+05 10.6711 1.00000
  2.818E+06 2.820E+06 2.726E+00 1.284E-02 3.224E-01 2.360E-01 5.713E-01 3.297E+00 9.802E+05 10.9012 1.00000
  3.162E+06 3.164E+06 2.743E+00 1.467E-02 3.684E-01 2.670E-01 6.500E-01 3.393E+00 1.083E+06 11.1314 1.00000
  3.548E+06 3.550E+06 2.760E+00 1.676E-02 4.205E-01 3.022E-01 7.395E-01 3.499E+00 1.195E+06 11.3615 1.00000
  3.981E+06 3.983E+06 2.776E+00 1.914E-02 4.796E-01 3.422E-01 8.409E-01 3.617E+00 1.317E+06 11.5917 1.00000
  4.467E+06 4.469E+06 2.793E+00 2.185E-02 5.465E-01 3.878E-01 9.561E-01 3.749E+00 1.449E+06 11.8218 1.00000
  5.012E+06 5.014E+06 2.809E+00 2.494E-02 6.222E-01 4.397E-01 1.087E+00 3.896E+00 1.591E+06 12.0520 1.00000
  5.623E+06 5.625E+06 2.825E+00 2.846E-02 7.078E-01 4.987E-01 1.235E+00 4.060E+00 1.745E+06 12.2822 1.00000
  6.310E+06 6.311E+06 2.841E+00 3.246E-02 8.045E-01 5.660E-01 1.403E+00 4.244E+00 1.911E+06 12.5124 1.00000
  7.079E+06 7.081E+06 2.857E+00 3.702E-02 9.138E-01 6.426E-01 1.593E+00 4.450E+00 2.088E+06 12.7426 1.00000
  7.943E+06 7.945E+06 2.872E+00 4.221E-02 1.037E+00 7.299E-01 1.809E+00 4.681E+00 2.277E+06 12.9728 1.00000
  8.913E+06 8.914E+06 2.888E+00 4.811E-02 1.177E+00 8.294E-01 2.054E+00 4.942E+00 2.479E+06 13.2030 1.00000
  1.000E+07 1.000E+07 2.903E+00 5.482E-02 1.334E+00 9.427E-01 2.331E+00 5.234E+00 2.693E+06 13.4332 1.00000
  1.122E+07 1.122E+07 2.918E+00 6.244E-02 1.511E+00 1.072E+00 2.645E+00 5.563E+00 2.919E+06 13.6634 1.00000
  1.259E+07 1.259E+07 2.933E+00 7.111E-02 1.710E+00 1.219E+00 3.001E+00 5.934E+00 3.157E+06 13.8936 1.00000
  1.413E+07 1.413E+07 2.948E+00 8.095E-02 1.935E+00 1.387E+00 3.404E+00 6.352E+00 3.408E+06 14.1239 1.00000
  1.585E+07 1.585E+07 2.963E+00 9.214E-02 2.189E+00 1.579E+00 3.860E+00 6.823E+00 3.670E+06 14.3541 1.00000
  1.778E+07 1.778E+07 2.977E+00 1.048E-01 2.474E+00 1.797E+00 4.376E+00 7.354E+00 3.943E+06 14.5843 1.00000
  1.995E+07 1.995E+07 2.992E+00 1.193E-01 2.795E+00 2.047E+00 4.961E+00 7.953E+00 4.227E+06 14.8146 1.00000
  2.239E+07 2.239E+07 3.006E+00 1.356E-01 3.157E+00 2.331E+00 5.623E+00 8.630E+00 4.521E+06 15.0448 1.00000
  2.512E+07 2.512E+07 3.021E+00 1.542E-01 3.563E+00 2.656E+00 6.373E+00 9.394E+00 4.825E+06 15.2750 1.00000
  2.818E+07 2.819E+07 3.035E+00 1.752E-01 4.020E+00 3.026E+00 7.221E+00 1.026E+01 5.137E+06 15.5053 1.00000
  3.162E+07 3.162E+07 3.050E+00 1.991E-01 4.534E+00 3.448E+00 8.182E+00 1.123E+01 5.458E+06 15.7355 1.00000
  3.548E+07 3.548E+07 3.064E+00 2.261E-01 5.113E+00 3.930E+00 9.269E+00 1.233E+01 5.786E+06 15.9658 1.00000
  3.981E+07 3.981E+07 3.078E+00 2.568E-01 5.762E+00 4.481E+00 1.050E+01 1.358E+01 6.121E+06 16.1960 1.00000
  4.467E+07 4.467E+07 3.092E+00 2.915E-01 6.493E+00 5.109E+00 1.189E+01 1.499E+01 6.462E+06 16.4263 1.00000
  5.012E+07 5.012E+07 3.106E+00 3.308E-01 7.313E+00 5.826E+00 1.347E+01 1.658E+01 6.808E+06 16.6565 1.00000
  5.623E+07 5.624E+07 3.121E+00 3.753E-01 8.235E+00 6.644E+00 1.525E+01 1.838E+01 7.159E+06 16.8868 1.00000
  6.310E+07 6.310E+07 3.135E+00 4.257E-01 9.271E+00 7.579E+00 1.728E+01 2.041E+01 7.514E+06 17.1170 1.00000
  7.079E+07 7.080E+07 3.149E+00 4.827E-01 1.043E+01 8.646E+00 1.956E+01 2.271E+01 7.872E+06 17.3473 1.00000
  7.943E+07 7.943E+07 3.163E+00 5.471E-01 1.174E+01 9.864E+00 2.215E+01 2.532E+01 8.233E+06 17.5775 1.00000
  8.913E+07 8.913E+07 3.177E+00 6.200E-01 1.321E+01 1.125E+01 2.508E+01 2.826E+01 8.596E+06 17.8078 1.00000
  1.000E+08 1.000E+08 3.192E+00 7.025E-01 1.486E+01 1.284E+01 2.840E+01 3.159E+01 8.960E+06 18.0380 1.00000
  1.122E+08 1.122E+08 3.206E+00 7.956E-01 1.671E+01 1.466E+01 3.216E+01 3.537E+01 9.326E+06 18.2683 1.00000
  1.259E+08 1.259E+08 3.220E+00 9.008E-01 1.879E+01 1.673E+01 3.642E+01 3.964E+01 9.692E+06 18.4985 1.00000
  1.413E+08 1.413E+08 3.235E+00 1.020E+00 2.112E+01 1.910E+01 4.123E+01 4.447E+01 1.006E+07 18.7288 1.00000
  1.585E+08 1.585E+08 3.249E+00 1.154E+00 2.374E+01 2.180E+01 4.669E+01 4.994E+01 1.042E+07 18.9591 1.00000
  1.778E+08 1.778E+08 3.264E+00 1.305E+00 2.668E+01 2.489E+01 5.287E+01 5.613E+01 1.079E+07 19.1893 1.00000
  1.995E+08 1.995E+08 3.278E+00 1.476E+00 2.998E+01 2.841E+01 5.987E+01 6.315E+01 1.116E+07 19.4196 1.00000
  2.239E+08 2.239E+08 3.293E+00 1.669E+00 3.368E+01 3.244E+01 6.779E+01 7.109E+01 1.152E+07 19.6498 1.00000
  2.512E+08 2.512E+08 3.307E+00 1.887E+00 3.784E+01 3.705E+01 7.677E+01 8.008E+01 1.188E+07 19.8801 1.00000
  2.818E+08 2.818E+08 3.322E+00 2.132E+00 4.251E+01 4.231E+01 8.695E+01 9.027E+01 1.224E+07 20.1103 1.00000
  3.162E+08 3.162E+08 3.337E+00 2.409E+00 4.774E+01 4.832E+01 9.847E+01 1.018E+02 1.260E+07 20.3406 1.00000
  3.548E+08 3.548E+08 3.352E+00 2.721E+00 5.362E+01 5.519E+01 1.115E+02 1.149E+02 1.296E+07 20.5709 1.00000
  3.981E+08 3.981E+08 3.367E+00 3.073E+00 6.022E+01 6.303E+01 1.263E+02 1.297E+02 1.332E+07 20.8011 1.00000
  4.467E+08 4.467E+08 3.381E+00 3.469E+00 6.762E+01 7.200E+01 1.431E+02 1.465E+02 1.367E+07 21.0314 1.00000
  5.012E+08 5.012E+08 3.396E+00 3.915E+00 7.593E+01 8.225E+01 1.621E+02 1.655E+02 1.402E+07 21.2616 1.00000
  5.623E+08 5.623E+08 3.412E+00 4.417E+00 8.525E+01 9.397E+01 1.836E+02 1.870E+02 1.437E+07 21.4919 1.00000
  6.310E+08 6.310E+08 3.427E+00 4.983E+00 9.572E+01 1.074E+02 2.081E+02 2.115E+02 1.471E+07 21.7221 1.00000
  7.079E+08 7.079E+08 3.442E+00 5.619E+00 1.075E+02 1.227E+02 2.357E+02 2.392E+02 1.506E+07 21.9524 1.00000
  7.943E+08 7.943E+08 3.457E+00 6.336E+00 1.206E+02 1.402E+02 2.671E+02 2.706E+02 1.540E+07 22.1827 1.00000
  8.913E+08 8.913E+08 3.473E+00 7.143E+00 1.354E+02 1.602E+02 3.027E+02 3.062E+02 1.573E+07 22.4129 1.00000
  1.000E+09 1.000E+09 3.488E+00 8.050E+00 1.520E+02 1.830E+02 3.431E+02 3.466E+02 1.607E+07 22.6432 1.00000
  1.122E+09 1.122E+09 3.504E+00 9.071E+00 1.706E+02 2.092E+02 3.888E+02 3.924E+02 1.640E+07 22.8734 1.00000
  1.259E+09 1.259E+09 3.520E+00 1.022E+01 1.915E+02 2.390E+02 4.408E+02 4.443E+02 1.673E+07 23.1037 1.00000
  1.413E+09 1.413E+09 3.535E+00 1.151E+01 2.149E+02 2.732E+02 4.997E+02 5.032E+02 1.705E+07 23.3339 1.00000
  1.585E+09 1.585E+09 3.551E+00 1.296E+01 2.412E+02 3.123E+02 5.665E+02 5.700E+02 1.738E+07 23.5642 1.00000
  1.778E+09 1.778E+09 3.567E+00 1.459E+01 2.708E+02 3.570E+02 6.423E+02 6.459E+02 1.770E+07 23.7945 1.00000
  1.995E+09 1.995E+09 3.583E+00 1.643E+01 3.039E+02 4.081E+02 7.284E+02 7.319E+02 1.801E+07 24.0247 1.00000
  2.239E+09 2.239E+09 3.599E+00 1.849E+01 3.410E+02 4.665E+02 8.260E+02 8.296E+02 1.833E+07 24.2550 1.00000
  2.512E+09 2.512E+09 3.615E+00 2.081E+01 3.827E+02 5.333E+02 9.368E+02 9.405E+02 1.864E+07 24.4852 1.00000
  2.818E+09 2.818E+09 3.632E+00 2.341E+01 4.295E+02 6.098E+02 1.063E+03 1.066E+03 1.894E+07 24.7155 1.00000
  3.162E+09 3.162E+09 3.648E+00 2.634E+01 4.820E+02 6.972E+02 1.206E+03 1.209E+03 1.925E+07 24.9458 1.00000
  3.548E+09 3.548E+09 3.664E+00 2.963E+01 5.409E+02 7.972E+02 1.368E+03 1.371E+03 1.955E+07 25.1760 1.00000
  3.981E+09 3.981E+09 3.681E+00 3.332E+01 6.069E+02 9.116E+02 1.552E+03 1.556E+03 1.984E+07 25.4063 1.00000
  4.467E+09 4.467E+09 3.698E+00 3.747E+01 6.811E+02 1.042E+03 1.761E+03 1.765E+03 2.014E+07 25.6365 1.00000
  5.012E+09 5.012E+09 3.714E+00 4.213E+01 7.643E+02 1.192E+03 1.999E+03 2.002E+03 2.043E+07 25.8668 1.00000
  5.623E+09 5.623E+09 3.731E+00 4.736E+01 8.576E+02 1.364E+03 2.268E+03 2.272E+03 2.071E+07 26.0970 1.00000
  6.310E+09 6.310E+09 3.748E+00 5.324E+01 9.623E+02 1.560E+03 2.575E+03 2.579E+03 2.100E+07 26.3273 1.00000
  7.079E+09 7.079E+09 3.765E+00 5.984E+01 1.080E+03 1.784E+03 2.923E+03 2.927E+03 2.128E+07 26.5576 1.00000
  7.943E+09 7.943E+09 3.782E+00 6.725E+01 1.212E+03 2.040E+03 3.319E+03 3.323E+03 2.156E+07 26.7878 1.00000
  8.913E+09 8.913E+09 3.799E+00 7.556E+01 1.360E+03 2.334E+03 3.769E+03 3.773E+03 2.183E+07 27.0181 1.00000
  1.000E+10 1.000E+10 3.817E+00 8.490E+01 1.526E+03 2.670E+03 4.281E+03 4.284E+03 2.210E+07 27.2483 1.00000
  1.122E+10 1.122E+10 3.834E+00 9.539E+01 1.712E+03 3.055E+03 4.862E+03 4.866E+03 2.237E+07 27.4786 1.00000
  1.259E+10 1.259E+10 3.852E+00 1.072E+02 1.921E+03 3.495E+03 5.523E+03 5.527E+03 2.263E+07 27.7089 1.00000
  1.413E+10 1.413E+10 3.869E+00 1.204E+02 2.155E+03 3.999E+03 6.274E+03 6.278E+03 2.290E+07 27.9391 1.00000
  1.585E+10 1.585E+10 3.887E+00 1.352E+02 2.418E+03 4.576E+03 7.129E+03 7.133E+03 2.315E+07 28.1694 1.00000
  1.778E+10 1.778E+10 3.905E+00 1.519E+02 2.713E+03 5.236E+03 8.101E+03 8.105E+03 2.341E+07 28.3996 1.00000
  1.995E+10 1.995E+10 3.923E+00 1.705E+02 3.044E+03 5.992E+03 9.207E+03 9.211E+03 2.366E+07 28.6299 1.00000
  2.239E+10 2.239E+10 3.941E+00 1.915E+02 3.416E+03 6.857E+03 1.046E+04 1.047E+04 2.391E+07 28.8602 1.00000
  2.512E+10 2.512E+10 3.959E+00 2.151E+02 3.833E+03 7.847E+03 1.190E+04 1.190E+04 2.415E+07 29.0904 1.00000
  2.818E+10 2.818E+10 3.977E+00 2.415E+02 4.301E+03 8.982E+03 1.352E+04 1.353E+04 2.440E+07 29.3207 1.00000
  3.162E+10 3.162E+10 3.995E+00 2.711E+02 4.825E+03 1.028E+04 1.538E+04 1.538E+04 2.463E+07 29.5509 1.00000
  3.548E+10 3.548E+10 4.014E+00 3.044E+02 5.414E+03 1.177E+04 1.749E+04 1.749E+04 2.487E+07 29.7812 1.00000
  3.981E+10 3.981E+10 4.032E+00 3.418E+02 6.075E+03 1.347E+04 1.989E+04 1.989E+04 2.510E+07 30.0114 1.00000
  4.467E+10 4.467E+10 4.051E+00 3.837E+02 6.816E+03 1.542E+04 2.262E+04 2.262E+04 2.533E+07 30.2417 1.00000
  5.012E+10 5.012E+10 4.069E+00 4.307E+02 7.647E+03 1.765E+04 2.573E+04 2.574E+04 2.556E+07 30.4720 1.00000
  5.623E+10 5.623E+10 4.088E+00 4.835E+02 8.581E+03 2.021E+04 2.928E+04 2.928E+04 2.578E+07 30.7022 1.00000
  6.310E+10 6.310E+10 4.107E+00 5.427E+02 9.627E+03 2.314E+04 3.331E+04 3.331E+04 2.600E+07 30.9325 1.00000
  7.079E+10 7.079E+10 4.126E+00 6.092E+02 1.080E+04 2.650E+04 3.791E+04 3.791E+04 2.622E+07 31.1627 1.00000
  7.943E+10 7.943E+10 4.145E+00 6.838E+02 1.212E+04 3.034E+04 4.314E+04 4.315E+04 2.643E+07 31.3930 1.00000
  8.913E+10 8.913E+10 4.165E+00 7.674E+02 1.360E+04 3.474E+04 4.911E+04 4.911E+04 2.664E+07 31.6233 1.00000
  1.000E+11 1.000E+11 4.184E+00 8.614E+02 1.526E+04 3.979E+04 5.591E+04 5.591E+04 2.685E+07 31.8535 1.00000
  1.122E+11 1.122E+11 4.203E+00 9.667E+02 1.712E+04 4.557E+04 6.365E+04 6.366E+04 2.706E+07 32.0838 1.00000
  1.259E+11 1.259E+11 4.223E+00 1.085E+03 1.921E+04 5.219E+04 7.248E+04 7.248E+04 2.726E+07 32.3140 1.00000
  1.413E+11 1.413E+11 4.243E+00 1.218E+03 2.155E+04 5.977E+04 8.254E+04 8.254E+04 2.746E+07 32.5443 1.00000
  1.585E+11 1.585E+11 4.263E+00 1.367E+03 2.418E+04 6.847E+04 9.401E+04 9.402E+04 2.765E+07 32.7745 1.00000
  1.778E+11 1.778E+11 4.282E+00 1.534E+03 2.713E+04 7.843E+04 1.071E+05 1.071E+05 2.785E+07 33.0048 1.00000
  1.995E+11 1.995E+11 4.302E+00 1.721E+03 3.044E+04 8.984E+04 1.220E+05 1.220E+05 2.804E+07 33.2351 1.00000
  2.239E+11 2.239E+11 4.323E+00 1.931E+03 3.415E+04 1.029E+05 1.390E+05 1.390E+05 2.822E+07 33.4653 1.00000
  2.512E+11 2.512E+11 4.343E+00 2.167E+03 3.832E+04 1.179E+05 1.584E+05 1.584E+05 2.841E+07 33.6956 1.00000
  2.818E+11 2.818E+11 4.363E+00 2.432E+03 4.299E+04 1.351E+05 1.805E+05 1.805E+05 2.859E+07 33.9258 1.00000
  3.162E+11 3.162E+11 4.384E+00 2.729E+03 4.824E+04 1.548E+05 2.058E+05 2.058E+05 2.877E+07 34.1561 1.00000
  3.548E+11 3.548E+11 4.404E+00 3.063E+03 5.412E+04 1.774E+05 2.345E+05 2.346E+05 2.895E+07 34.3864 1.00000
  3.981E+11 3.981E+11 4.425E+00 3.437E+03 6.072E+04 2.032E+05 2.674E+05 2.674E+05 2.912E+07 34.6166 1.00000
  4.467E+11 4.467E+11 4.446E+00 3.856E+03 6.813E+04 2.329E+05 3.049E+05 3.049E+05 2.929E+07 34.8469 1.00000
  5.012E+11 5.012E+11 4.467E+00 4.327E+03 7.644E+04 2.669E+05 3.477E+05 3.477E+05 2.946E+07 35.0771 1.00000
  5.623E+11 5.623E+11 4.488E+00 4.856E+03 8.576E+04 3.059E+05 3.965E+05 3.965E+05 2.962E+07 35.3074 1.00000
  6.310E+11 6.310E+11 4.509E+00 5.449E+03 9.623E+04 3.506E+05 4.523E+05 4.523E+05 2.978E+07 35.5376 1.00000
  7.079E+11 7.079E+11 4.530E+00 6.114E+03 1.080E+05 4.019E+05 5.159E+05 5.159E+05 2.994E+07 35.7679 1.00000
  7.943E+11 7.943E+11 4.552E+00 6.860E+03 1.211E+05 4.606E+05 5.886E+05 5.886E+05 3.010E+07 35.9982 1.00000
  8.913E+11 8.913E+11 4.573E+00 7.698E+03 1.359E+05 5.280E+05 6.716E+05 6.716E+05 3.026E+07 36.2284 1.00000
  1.000E+12 1.000E+12 4.595E+00 8.638E+03 1.525E+05 6.053E+05 7.664E+05 7.664E+05 3.041E+07 36.4587 1.00000
  1.122E+12 1.122E+12 4.617E+00 9.692E+03 1.711E+05 6.940E+05 8.747E+05 8.747E+05 3.056E+07 36.6889 1.00000
  1.259E+12 1.259E+12 4.639E+00 1.087E+04 1.920E+05 7.956E+05 9.984E+05 9.984E+05 3.070E+07 36.9192 1.00000
  1.413E+12 1.413E+12 4.661E+00 1.220E+04 2.154E+05 9.122E+05 1.140E+06 1.140E+06 3.085E+07 37.1495 1.00000
  1.585E+12 1.585E+12 4.683E+00 1.369E+04 2.416E+05 1.046E+06 1.301E+06 1.301E+06 3.099E+07 37.3797 1.00000
  1.778E+12 1.778E+12 4.705E+00 1.536E+04 2.711E+05 1.199E+06 1.486E+06 1.486E+06 3.113E+07 37.6100 1.00000
  1.995E+12 1.995E+12 4.727E+00 1.724E+04 3.042E+05 1.375E+06 1.697E+06 1.697E+06 3.127E+07 37.8402 1.00000
  2.239E+12 2.239E+12 4.750E+00 1.934E+04 3.413E+05 1.577E+06 1.938E+06 1.938E+06 3.140E+07 38.0705 1.00000
  2.512E+12 2.512E+12 4.773E+00 2.170E+04 3.829E+05 1.809E+06 2.213E+06 2.213E+06 3.153E+07 38.3007 1.00000
  2.818E+12 2.818E+12 4.795E+00 2.435E+04 4.296E+05 2.074E+06 2.528E+06 2.528E+06 3.166E+07 38.5310 1.00000
  3.162E+12 3.162E+12 4.818E+00 2.732E+04 4.820E+05 2.379E+06 2.889E+06 2.889E+06 3.179E+07 38.7613 1.00000
  3.548E+12 3.548E+12 4.841E+00 3.066E+04 5.408E+05 2.729E+06 3.300E+06 3.300E+06 3.192E+07 38.9915 1.00000
  3.981E+12 3.981E+12 4.864E+00 3.440E+04 6.068E+05 3.130E+06 3.772E+06 3.772E+06 3.204E+07 39.2218 1.00000
  4.467E+12 4.467E+12 4.888E+00 3.860E+04 6.808E+05 3.591E+06 4.310E+06 4.310E+06 3.216E+07 39.4520 1.00000
  5.012E+12 5.012E+12 4.911E+00 4.331E+04 7.638E+05 4.119E+06 4.927E+06 4.927E+06 3.228E+07 39.6823 1.00000
  5.623E+12 5.623E+12 4.935E+00 4.859E+04 8.570E+05 4.726E+06 5.631E+06 5.631E+06 3.239E+07 39.9126 1.00000
  6.310E+12 6.310E+12 4.958E+00 5.452E+04 9.615E+05 5.422E+06 6.438E+06 6.438E+06 3.251E+07 40.1428 1.00000
  7.079E+12 7.079E+12 4.982E+00 6.117E+04 1.079E+06 6.221E+06 7.361E+06 7.361E+06 3.262E+07 40.3731 1.00000
  7.943E+12 7.943E+12 5.006E+00 6.864E+04 1.210E+06 7.138E+06 8.417E+06 8.417E+06 3.273E+07 40.6033 1.00000
  8.913E+12 8.913E+12 5.030E+00 7.701E+04 1.358E+06 8.191E+06 9.626E+06 9.626E+06 3.284E+07 40.8336 1.00000
  1.000E+13 1.000E+13 5.054E+00 8.641E+04 1.524E+06 9.399E+06 1.101E+07 1.101E+07 3.294E+07 41.0639 1.00000
  1.122E+13 1.122E+13 5.078E+00 9.695E+04 1.709E+06 1.079E+07 1.259E+07 1.259E+07 3.305E+07 41.2941 1.00000
  1.259E+13 1.259E+13 5.103E+00 1.088E+05 1.918E+06 1.238E+07 1.440E+07 1.440E+07 3.315E+07 41.5244 1.00000
  1.413E+13 1.413E+13 5.127E+00 1.221E+05 2.152E+06 1.421E+07 1.648E+07 1.648E+07 3.325E+07 41.7546 1.00000
  1.585E+13 1.585E+13 5.152E+00 1.370E+05 2.414E+06 1.631E+07 1.886E+07 1.886E+07 3.335E+07 41.9849 1.00000
  1.778E+13 1.778E+13 5.177E+00 1.537E+05 2.709E+06 1.871E+07 2.158E+07 2.158E+07 3.344E+07 42.2151 1.00000
  1.995E+13 1.995E+13 5.202E+00 1.724E+05 3.039E+06 2.148E+07 2.469E+07 2.469E+07 3.354E+07 42.4454 1.00000
  2.239E+13 2.239E+13 5.227E+00 1.935E+05 3.410E+06 2.466E+07 2.826E+07 2.826E+07 3.363E+07 42.6757 1.00000
  2.512E+13 2.512E+13 5.252E+00 2.171E+05 3.825E+06 2.831E+07 3.235E+07 3.235E+07 3.372E+07 42.9059 1.00000
  2.818E+13 2.818E+13 5.278E+00 2.435E+05 4.292E+06 3.250E+07 3.703E+07 3.703E+07 3.381E+07 43.1362 1.00000
  3.162E+13 3.162E+13 5.303E+00 2.733E+05 4.815E+06 3.731E+07 4.240E+07 4.240E+07 3.390E+07 43.3664 1.00000
  3.548E+13 3.548E+13 5.329E+00 3.066E+05 5.403E+06 4.284E+07 4.855E+07 4.855E+07 3.398E+07 43.5967 1.00000
  3.981E+13 3.981E+13 5.355E+00 3.440E+05 6.062E+06 4.918E+07 5.559E+07 5.559E+07 3.407E+07 43.8270 1.00000
  4.467E+13 4.467E+13 5.381E+00 3.860E+05 6.801E+06 5.648E+07 6.366E+07 6.366E+07 3.415E+07 44.0572 1.00000
  5.012E+13 5.012E+13 5.407E+00 4.331E+05 7.630E+06 6.485E+07 7.291E+07 7.291E+07 3.423E+07 44.2875 1.00000
  5.623E+13 5.623E+13 5.433E+00 4.859E+05 8.561E+06 7.447E+07 8.352E+07 8.352E+07 3.431E+07 44.5177 1.00000
  6.310E+13 6.310E+13 5.459E+00 5.452E+05 9.605E+06 8.552E+07 9.567E+07 9.567E+07 3.438E+07 44.7480 1.00000
  7.079E+13 7.079E+13 5.486E+00 6.118E+05 1.078E+07 9.822E+07 1.096E+08 1.096E+08 3.446E+07 44.9782 1.00000
  7.943E+13 7.943E+13 5.512E+00 6.864E+05 1.209E+07 1.128E+08 1.256E+08 1.256E+08 3.453E+07 45.2085 1.00000
  8.913E+13 8.913E+13 5.539E+00 7.702E+05 1.356E+07 1.296E+08 1.439E+08 1.439E+08 3.461E+07 45.4388 1.00000
