 Incident particle is a Tau with M = 1776.82000 MeV
 Index = 0: Hassium
      Absorber with <Z/A> = 0.40129
 Sternheimer coef:  a     k=m_s   x_0    x_1    I[eV]   Cbar  delta0
                 0.2750  3.0000  0.6392  3.0000 1102.0  6.5619 0.00

 *** Table generated with PUMAS v1.00 ***

      T         p     Ionization  brems     pair     photonuc  Radloss    dE/dx   CSDA Range  delta   beta
    [MeV]    [MeV/c]  -----------------------[MeV cm^2/g]------------------------  [g/cm^2]
  1.000E+05 1.018E+05 1.598E+00 1.363E-03 2.471E-02 7.480E-03 3.355E-02 1.632E+00 3.065E+04  2.0606 0.99985
  1.122E+05 1.140E+05 1.616E+00 1.582E-03 2.957E-02 8.389E-03 3.954E-02 1.656E+00 3.807E+04  2.2270 0.99988
  1.259E+05 1.277E+05 1.634E+00 1.834E-03 3.528E-02 9.360E-03 4.648E-02 1.680E+00 4.628E+04  2.3984 0.99990
  1.413E+05 1.430E+05 1.652E+00 2.126E-03 4.199E-02 1.045E-02 5.456E-02 1.706E+00 5.535E+04  2.5747 0.99992
  1.585E+05 1.603E+05 1.669E+00 2.462E-03 4.983E-02 1.165E-02 6.395E-02 1.733E+00 6.537E+04  2.7557 0.99994
  1.778E+05 1.796E+05 1.686E+00 2.850E-03 5.900E-02 1.299E-02 7.484E-02 1.761E+00 7.645E+04  2.9410 0.99995
  1.995E+05 2.013E+05 1.703E+00 3.297E-03 6.969E-02 1.451E-02 8.750E-02 1.791E+00 8.867E+04  3.1307 0.99996
  2.239E+05 2.256E+05 1.720E+00 3.812E-03 8.213E-02 1.615E-02 1.021E-01 1.822E+00 1.021E+05  3.3243 0.99997
  2.512E+05 2.530E+05 1.736E+00 4.404E-03 9.658E-02 1.799E-02 1.190E-01 1.855E+00 1.170E+05  3.5218 0.99998
  2.818E+05 2.836E+05 1.753E+00 5.086E-03 1.133E-01 2.004E-02 1.384E-01 1.891E+00 1.334E+05  3.7228 0.99998
  3.162E+05 3.180E+05 1.769E+00 5.870E-03 1.327E-01 2.235E-02 1.609E-01 1.930E+00 1.514E+05  3.9273 0.99998
  3.548E+05 3.566E+05 1.785E+00 6.770E-03 1.551E-01 2.493E-02 1.868E-01 1.971E+00 1.712E+05  4.1349 0.99999
  3.981E+05 3.999E+05 1.800E+00 7.805E-03 1.809E-01 2.779E-02 2.165E-01 2.017E+00 1.929E+05  4.3455 0.99999
  4.467E+05 4.485E+05 1.816E+00 8.992E-03 2.106E-01 3.098E-02 2.506E-01 2.066E+00 2.167E+05  4.5589 0.99999
  5.012E+05 5.030E+05 1.831E+00 1.035E-02 2.448E-01 3.455E-02 2.897E-01 2.121E+00 2.427E+05  4.7748 0.99999
  5.623E+05 5.641E+05 1.846E+00 1.192E-02 2.840E-01 3.840E-02 3.343E-01 2.181E+00 2.711E+05  4.9930 1.00000
  6.310E+05 6.327E+05 1.861E+00 1.371E-02 3.290E-01 4.272E-02 3.855E-01 2.247E+00 3.021E+05  5.2133 1.00000
  7.079E+05 7.097E+05 1.876E+00 1.576E-02 3.806E-01 4.757E-02 4.439E-01 2.320E+00 3.359E+05  5.4356 1.00000
  7.943E+05 7.961E+05 1.891E+00 1.811E-02 4.395E-01 5.304E-02 5.107E-01 2.402E+00 3.725E+05  5.6596 1.00000
  8.913E+05 8.930E+05 1.906E+00 2.080E-02 5.069E-01 5.919E-02 5.869E-01 2.492E+00 4.121E+05  5.8850 1.00000
  1.000E+06 1.002E+06 1.920E+00 2.388E-02 5.837E-01 6.613E-02 6.738E-01 2.594E+00 4.549E+05  6.1117 1.00000
  1.122E+06 1.124E+06 1.934E+00 2.740E-02 6.714E-01 7.397E-02 7.727E-01 2.707E+00 5.009E+05  6.3395 1.00000
  1.259E+06 1.261E+06 1.948E+00 3.142E-02 7.711E-01 8.282E-02 8.854E-01 2.834E+00 5.504E+05  6.5682 1.00000
  1.413E+06 1.414E+06 1.963E+00 3.602E-02 8.846E-01 9.283E-02 1.013E+00 2.976E+00 6.033E+05  6.7975 1.00000
  1.585E+06 1.587E+06 1.976E+00 4.128E-02 1.014E+00 1.042E-01 1.159E+00 3.136E+00 6.597E+05  7.0273 1.00000
  1.778E+06 1.780E+06 1.990E+00 4.728E-02 1.160E+00 1.170E-01 1.324E+00 3.315E+00 7.197E+05  7.2572 1.00000
  1.995E+06 1.997E+06 2.004E+00 5.413E-02 1.326E+00 1.315E-01 1.512E+00 3.516E+00 7.833E+05  7.4873 1.00000
  2.239E+06 2.240E+06 2.018E+00 6.194E-02 1.515E+00 1.480E-01 1.725E+00 3.742E+00 8.505E+05  7.7174 1.00000
  2.512E+06 2.514E+06 2.031E+00 7.086E-02 1.728E+00 1.667E-01 1.966E+00 3.997E+00 9.211E+05  7.9474 1.00000
  2.818E+06 2.820E+06 2.044E+00 8.102E-02 1.970E+00 1.880E-01 2.239E+00 4.283E+00 9.953E+05  8.1775 1.00000
  3.162E+06 3.164E+06 2.058E+00 9.260E-02 2.243E+00 2.121E-01 2.548E+00 4.606E+00 1.073E+06  8.4077 1.00000
  3.548E+06 3.550E+06 2.071E+00 1.058E-01 2.552E+00 2.395E-01 2.897E+00 4.968E+00 1.153E+06  8.6378 1.00000
  3.981E+06 3.983E+06 2.084E+00 1.208E-01 2.901E+00 2.707E-01 3.293E+00 5.377E+00 1.237E+06  8.8680 1.00000
  4.467E+06 4.469E+06 2.097E+00 1.380E-01 3.295E+00 3.061E-01 3.740E+00 5.836E+00 1.324E+06  9.0981 1.00000
  5.012E+06 5.014E+06 2.109E+00 1.574E-01 3.740E+00 3.465E-01 4.244E+00 6.354E+00 1.414E+06  9.3283 1.00000
  5.623E+06 5.625E+06 2.122E+00 1.796E-01 4.242E+00 3.924E-01 4.814E+00 6.936E+00 1.506E+06  9.5585 1.00000
  6.310E+06 6.311E+06 2.135E+00 2.048E-01 4.808E+00 4.446E-01 5.458E+00 7.592E+00 1.601E+06  9.7887 1.00000
  7.079E+06 7.081E+06 2.147E+00 2.335E-01 5.446E+00 5.041E-01 6.184E+00 8.331E+00 1.697E+06 10.0189 1.00000
  7.943E+06 7.945E+06 2.159E+00 2.660E-01 6.165E+00 5.718E-01 7.003E+00 9.162E+00 1.796E+06 10.2491 1.00000
  8.913E+06 8.914E+06 2.171E+00 3.031E-01 6.975E+00 6.490E-01 7.927E+00 1.010E+01 1.897E+06 10.4793 1.00000
  1.000E+07 1.000E+07 2.183E+00 3.451E-01 7.886E+00 7.369E-01 8.968E+00 1.115E+01 2.000E+06 10.7095 1.00000
  1.122E+07 1.122E+07 2.195E+00 3.928E-01 8.912E+00 8.371E-01 1.014E+01 1.234E+01 2.104E+06 10.9397 1.00000
  1.259E+07 1.259E+07 2.207E+00 4.470E-01 1.007E+01 9.513E-01 1.147E+01 1.367E+01 2.210E+06 11.1699 1.00000
  1.413E+07 1.413E+07 2.219E+00 5.085E-01 1.137E+01 1.082E+00 1.296E+01 1.517E+01 2.316E+06 11.4002 1.00000
  1.585E+07 1.585E+07 2.230E+00 5.782E-01 1.283E+01 1.230E+00 1.463E+01 1.687E+01 2.424E+06 11.6304 1.00000
  1.778E+07 1.778E+07 2.242E+00 6.572E-01 1.447E+01 1.399E+00 1.653E+01 1.877E+01 2.533E+06 11.8606 1.00000
  1.995E+07 1.995E+07 2.253E+00 7.468E-01 1.632E+01 1.592E+00 1.866E+01 2.091E+01 2.643E+06 12.0909 1.00000
  2.239E+07 2.239E+07 2.265E+00 8.484E-01 1.839E+01 1.813E+00 2.105E+01 2.332E+01 2.753E+06 12.3211 1.00000
  2.512E+07 2.512E+07 2.276E+00 9.633E-01 2.073E+01 2.064E+00 2.375E+01 2.603E+01 2.864E+06 12.5513 1.00000
  2.818E+07 2.819E+07 2.287E+00 1.094E+00 2.335E+01 2.351E+00 2.679E+01 2.908E+01 2.976E+06 12.7816 1.00000
  3.162E+07 3.162E+07 2.298E+00 1.241E+00 2.629E+01 2.678E+00 3.021E+01 3.251E+01 3.088E+06 13.0118 1.00000
  3.548E+07 3.548E+07 2.310E+00 1.408E+00 2.960E+01 3.051E+00 3.406E+01 3.637E+01 3.200E+06 13.2421 1.00000
  3.981E+07 3.981E+07 2.321E+00 1.596E+00 3.332E+01 3.477E+00 3.839E+01 4.071E+01 3.313E+06 13.4723 1.00000
  4.467E+07 4.467E+07 2.332E+00 1.810E+00 3.750E+01 3.963E+00 4.327E+01 4.560E+01 3.426E+06 13.7026 1.00000
  5.012E+07 5.012E+07 2.343E+00 2.051E+00 4.218E+01 4.518E+00 4.875E+01 5.110E+01 3.539E+06 13.9328 1.00000
  5.623E+07 5.624E+07 2.354E+00 2.324E+00 4.745E+01 5.152E+00 5.493E+01 5.728E+01 3.652E+06 14.1631 1.00000
  6.310E+07 6.310E+07 2.365E+00 2.632E+00 5.336E+01 5.875E+00 6.187E+01 6.423E+01 3.766E+06 14.3933 1.00000
  7.079E+07 7.080E+07 2.377E+00 2.979E+00 6.000E+01 6.701E+00 6.968E+01 7.206E+01 3.879E+06 14.6236 1.00000
  7.943E+07 7.943E+07 2.388E+00 3.372E+00 6.745E+01 7.644E+00 7.847E+01 8.086E+01 3.992E+06 14.8538 1.00000
  8.913E+07 8.913E+07 2.399E+00 3.816E+00 7.582E+01 8.720E+00 8.836E+01 9.076E+01 4.106E+06 15.0841 1.00000
  1.000E+08 1.000E+08 2.410E+00 4.316E+00 8.521E+01 9.950E+00 9.948E+01 1.019E+02 4.219E+06 15.3143 1.00000
  1.122E+08 1.122E+08 2.421E+00 4.880E+00 9.576E+01 1.135E+01 1.120E+02 1.144E+02 4.332E+06 15.5446 1.00000
  1.259E+08 1.259E+08 2.433E+00 5.517E+00 1.076E+02 1.296E+01 1.261E+02 1.285E+02 4.445E+06 15.7748 1.00000
  1.413E+08 1.413E+08 2.444E+00 6.234E+00 1.209E+02 1.479E+01 1.419E+02 1.443E+02 4.558E+06 16.0051 1.00000
  1.585E+08 1.585E+08 2.455E+00 7.043E+00 1.358E+02 1.688E+01 1.597E+02 1.622E+02 4.671E+06 16.2354 1.00000
  1.778E+08 1.778E+08 2.467E+00 7.955E+00 1.525E+02 1.927E+01 1.797E+02 1.822E+02 4.784E+06 16.4656 1.00000
  1.995E+08 1.995E+08 2.478E+00 8.982E+00 1.713E+02 2.200E+01 2.023E+02 2.048E+02 4.896E+06 16.6959 1.00000
  2.239E+08 2.239E+08 2.489E+00 1.014E+01 1.924E+02 2.512E+01 2.276E+02 2.301E+02 5.009E+06 16.9261 1.00000
  2.512E+08 2.512E+08 2.501E+00 1.144E+01 2.160E+02 2.868E+01 2.562E+02 2.587E+02 5.121E+06 17.1564 1.00000
  2.818E+08 2.818E+08 2.512E+00 1.291E+01 2.426E+02 3.275E+01 2.882E+02 2.908E+02 5.233E+06 17.3866 1.00000
  3.162E+08 3.162E+08 2.524E+00 1.456E+01 2.724E+02 3.740E+01 3.243E+02 3.269E+02 5.344E+06 17.6169 1.00000
  3.548E+08 3.548E+08 2.536E+00 1.642E+01 3.058E+02 4.272E+01 3.649E+02 3.675E+02 5.456E+06 17.8472 1.00000
  3.981E+08 3.981E+08 2.547E+00 1.851E+01 3.433E+02 4.879E+01 4.106E+02 4.132E+02 5.567E+06 18.0774 1.00000
  4.467E+08 4.467E+08 2.559E+00 2.086E+01 3.854E+02 5.573E+01 4.620E+02 4.646E+02 5.678E+06 18.3077 1.00000
  5.012E+08 5.012E+08 2.571E+00 2.351E+01 4.327E+02 6.366E+01 5.198E+02 5.224E+02 5.789E+06 18.5379 1.00000
  5.623E+08 5.623E+08 2.583E+00 2.648E+01 4.857E+02 7.273E+01 5.849E+02 5.874E+02 5.900E+06 18.7682 1.00000
  6.310E+08 6.310E+08 2.595E+00 2.983E+01 5.451E+02 8.309E+01 6.581E+02 6.606E+02 6.010E+06 18.9984 1.00000
  7.079E+08 7.079E+08 2.607E+00 3.359E+01 6.119E+02 9.493E+01 7.404E+02 7.430E+02 6.120E+06 19.2287 1.00000
  7.943E+08 7.943E+08 2.619E+00 3.781E+01 6.868E+02 1.085E+02 8.331E+02 8.357E+02 6.230E+06 19.4590 1.00000
  8.913E+08 8.913E+08 2.631E+00 4.256E+01 7.708E+02 1.239E+02 9.373E+02 9.399E+02 6.339E+06 19.6892 1.00000
  1.000E+09 1.000E+09 2.643E+00 4.790E+01 8.651E+02 1.416E+02 1.055E+03 1.057E+03 6.449E+06 19.9195 1.00000
  1.122E+09 1.122E+09 2.655E+00 5.390E+01 9.709E+02 1.619E+02 1.187E+03 1.189E+03 6.558E+06 20.1497 1.00000
  1.259E+09 1.259E+09 2.667E+00 6.064E+01 1.090E+03 1.850E+02 1.335E+03 1.338E+03 6.666E+06 20.3800 1.00000
  1.413E+09 1.413E+09 2.680E+00 6.821E+01 1.223E+03 2.114E+02 1.502E+03 1.505E+03 6.775E+06 20.6102 1.00000
  1.585E+09 1.585E+09 2.692E+00 7.672E+01 1.372E+03 2.417E+02 1.691E+03 1.693E+03 6.883E+06 20.8405 1.00000
  1.778E+09 1.778E+09 2.705E+00 8.627E+01 1.540E+03 2.762E+02 1.903E+03 1.905E+03 6.991E+06 21.0708 1.00000
  1.995E+09 1.995E+09 2.717E+00 9.700E+01 1.728E+03 3.158E+02 2.141E+03 2.144E+03 7.098E+06 21.3010 1.00000
  2.239E+09 2.239E+09 2.730E+00 1.090E+02 1.939E+03 3.610E+02 2.409E+03 2.412E+03 7.206E+06 21.5313 1.00000
  2.512E+09 2.512E+09 2.743E+00 1.226E+02 2.176E+03 4.127E+02 2.711E+03 2.714E+03 7.313E+06 21.7615 1.00000
  2.818E+09 2.818E+09 2.755E+00 1.378E+02 2.442E+03 4.718E+02 3.052E+03 3.054E+03 7.419E+06 21.9918 1.00000
  3.162E+09 3.162E+09 2.768E+00 1.548E+02 2.740E+03 5.395E+02 3.435E+03 3.437E+03 7.526E+06 22.2221 1.00000
  3.548E+09 3.548E+09 2.781E+00 1.740E+02 3.075E+03 6.169E+02 3.866E+03 3.869E+03 7.632E+06 22.4523 1.00000
  3.981E+09 3.981E+09 2.794E+00 1.955E+02 3.450E+03 7.054E+02 4.351E+03 4.354E+03 7.737E+06 22.6826 1.00000
  4.467E+09 4.467E+09 2.807E+00 2.196E+02 3.872E+03 8.067E+02 4.898E+03 4.901E+03 7.843E+06 22.9128 1.00000
  5.012E+09 5.012E+09 2.820E+00 2.467E+02 4.344E+03 9.225E+02 5.514E+03 5.516E+03 7.948E+06 23.1431 1.00000
  5.623E+09 5.623E+09 2.834E+00 2.771E+02 4.875E+03 1.055E+03 6.207E+03 6.210E+03 8.052E+06 23.3733 1.00000
  6.310E+09 6.310E+09 2.847E+00 3.112E+02 5.470E+03 1.207E+03 6.988E+03 6.991E+03 8.157E+06 23.6036 1.00000
  7.079E+09 7.079E+09 2.860E+00 3.495E+02 6.137E+03 1.380E+03 7.867E+03 7.870E+03 8.261E+06 23.8339 1.00000
  7.943E+09 7.943E+09 2.874E+00 3.925E+02 6.887E+03 1.579E+03 8.858E+03 8.861E+03 8.364E+06 24.0641 1.00000
  8.913E+09 8.913E+09 2.887E+00 4.407E+02 7.727E+03 1.806E+03 9.974E+03 9.977E+03 8.467E+06 24.2944 1.00000
  1.000E+10 1.000E+10 2.901E+00 4.949E+02 8.670E+03 2.066E+03 1.123E+04 1.123E+04 8.570E+06 24.5246 1.00000
  1.122E+10 1.122E+10 2.914E+00 5.556E+02 9.728E+03 2.364E+03 1.265E+04 1.265E+04 8.673E+06 24.7549 1.00000
  1.259E+10 1.259E+10 2.928E+00 6.238E+02 1.092E+04 2.704E+03 1.424E+04 1.425E+04 8.775E+06 24.9852 1.00000
  1.413E+10 1.413E+10 2.942E+00 7.004E+02 1.225E+04 3.094E+03 1.604E+04 1.605E+04 8.877E+06 25.2154 1.00000
  1.585E+10 1.585E+10 2.956E+00 7.863E+02 1.374E+04 3.541E+03 1.807E+04 1.807E+04 8.978E+06 25.4457 1.00000
  1.778E+10 1.778E+10 2.970E+00 8.826E+02 1.542E+04 4.051E+03 2.035E+04 2.036E+04 9.079E+06 25.6759 1.00000
  1.995E+10 1.995E+10 2.984E+00 9.908E+02 1.730E+04 4.636E+03 2.293E+04 2.293E+04 9.180E+06 25.9062 1.00000
  2.239E+10 2.239E+10 2.998E+00 1.112E+03 1.941E+04 5.306E+03 2.583E+04 2.583E+04 9.280E+06 26.1365 1.00000
  2.512E+10 2.512E+10 3.012E+00 1.248E+03 2.178E+04 6.072E+03 2.910E+04 2.910E+04 9.380E+06 26.3667 1.00000
  2.818E+10 2.818E+10 3.027E+00 1.401E+03 2.444E+04 6.950E+03 3.279E+04 3.279E+04 9.479E+06 26.5970 1.00000
  3.162E+10 3.162E+10 3.041E+00 1.573E+03 2.742E+04 7.955E+03 3.695E+04 3.695E+04 9.578E+06 26.8272 1.00000
  3.548E+10 3.548E+10 3.055E+00 1.765E+03 3.076E+04 9.105E+03 4.163E+04 4.164E+04 9.677E+06 27.0575 1.00000
  3.981E+10 3.981E+10 3.070E+00 1.981E+03 3.452E+04 1.042E+04 4.692E+04 4.692E+04 9.775E+06 27.2877 1.00000
  4.467E+10 4.467E+10 3.085E+00 2.223E+03 3.873E+04 1.193E+04 5.288E+04 5.289E+04 9.873E+06 27.5180 1.00000
  5.012E+10 5.012E+10 3.099E+00 2.495E+03 4.345E+04 1.366E+04 5.961E+04 5.961E+04 9.970E+06 27.7483 1.00000
  5.623E+10 5.623E+10 3.114E+00 2.800E+03 4.875E+04 1.564E+04 6.719E+04 6.720E+04 1.007E+07 27.9785 1.00000
  6.310E+10 6.310E+10 3.129E+00 3.142E+03 5.470E+04 1.791E+04 7.575E+04 7.575E+04 1.016E+07 28.2088 1.00000
  7.079E+10 7.079E+10 3.144E+00 3.527E+03 6.138E+04 2.050E+04 8.541E+04 8.541E+04 1.026E+07 28.4390 1.00000
  7.943E+10 7.943E+10 3.159E+00 3.957E+03 6.886E+04 2.348E+04 9.630E+04 9.630E+04 1.035E+07 28.6693 1.00000
  8.913E+10 8.913E+10 3.174E+00 4.441E+03 7.727E+04 2.688E+04 1.086E+05 1.086E+05 1.045E+07 28.8996 1.00000
  1.000E+11 1.000E+11 3.189E+00 4.983E+03 8.669E+04 3.079E+04 1.225E+05 1.225E+05 1.054E+07 29.1298 1.00000
  1.122E+11 1.122E+11 3.204E+00 5.592E+03 9.727E+04 3.526E+04 1.381E+05 1.381E+05 1.064E+07 29.3601 1.00000
  1.259E+11 1.259E+11 3.220E+00 6.275E+03 1.091E+05 4.038E+04 1.558E+05 1.558E+05 1.073E+07 29.5903 1.00000
  1.413E+11 1.413E+11 3.235E+00 7.042E+03 1.224E+05 4.625E+04 1.757E+05 1.757E+05 1.082E+07 29.8206 1.00000
  1.585E+11 1.585E+11 3.251E+00 7.902E+03 1.374E+05 5.298E+04 1.983E+05 1.983E+05 1.092E+07 30.0508 1.00000
  1.778E+11 1.778E+11 3.266E+00 8.866E+03 1.541E+05 6.068E+04 2.237E+05 2.237E+05 1.101E+07 30.2811 1.00000
  1.995E+11 1.995E+11 3.282E+00 9.949E+03 1.729E+05 6.952E+04 2.524E+05 2.524E+05 1.110E+07 30.5114 1.00000
  2.239E+11 2.239E+11 3.298E+00 1.116E+04 1.940E+05 7.964E+04 2.848E+05 2.848E+05 1.119E+07 30.7416 1.00000
  2.512E+11 2.512E+11 3.314E+00 1.253E+04 2.177E+05 9.124E+04 3.215E+05 3.215E+05 1.128E+07 30.9719 1.00000
  2.818E+11 2.818E+11 3.330E+00 1.406E+04 2.443E+05 1.045E+05 3.629E+05 3.629E+05 1.137E+07 31.2021 1.00000
  3.162E+11 3.162E+11 3.346E+00 1.577E+04 2.741E+05 1.198E+05 4.096E+05 4.096E+05 1.146E+07 31.4324 1.00000
  3.548E+11 3.548E+11 3.362E+00 1.770E+04 3.075E+05 1.372E+05 4.624E+05 4.624E+05 1.155E+07 31.6627 1.00000
  3.981E+11 3.981E+11 3.378E+00 1.986E+04 3.450E+05 1.573E+05 5.221E+05 5.221E+05 1.164E+07 31.8929 1.00000
  4.467E+11 4.467E+11 3.395E+00 2.228E+04 3.871E+05 1.802E+05 5.896E+05 5.896E+05 1.173E+07 32.1232 1.00000
  5.012E+11 5.012E+11 3.411E+00 2.500E+04 4.343E+05 2.065E+05 6.658E+05 6.658E+05 1.181E+07 32.3534 1.00000
  5.623E+11 5.623E+11 3.428E+00 2.805E+04 4.873E+05 2.367E+05 7.520E+05 7.520E+05 1.190E+07 32.5837 1.00000
  6.310E+11 6.310E+11 3.444E+00 3.147E+04 5.467E+05 2.713E+05 8.495E+05 8.495E+05 1.199E+07 32.8139 1.00000
  7.079E+11 7.079E+11 3.461E+00 3.532E+04 6.134E+05 3.110E+05 9.597E+05 9.597E+05 1.207E+07 33.0442 1.00000
  7.943E+11 7.943E+11 3.478E+00 3.963E+04 6.882E+05 3.564E+05 1.084E+06 1.084E+06 1.216E+07 33.2745 1.00000
  8.913E+11 8.913E+11 3.495E+00 4.446E+04 7.722E+05 4.086E+05 1.225E+06 1.225E+06 1.224E+07 33.5047 1.00000
  1.000E+12 1.000E+12 3.512E+00 4.989E+04 8.664E+05 4.684E+05 1.385E+06 1.385E+06 1.232E+07 33.7350 1.00000
  1.122E+12 1.122E+12 3.529E+00 5.598E+04 9.721E+05 5.370E+05 1.565E+06 1.565E+06 1.241E+07 33.9652 1.00000
  1.259E+12 1.259E+12 3.546E+00 6.281E+04 1.091E+06 6.156E+05 1.769E+06 1.769E+06 1.249E+07 34.1955 1.00000
  1.413E+12 1.413E+12 3.563E+00 7.047E+04 1.224E+06 7.058E+05 2.000E+06 2.000E+06 1.257E+07 34.4258 1.00000
  1.585E+12 1.585E+12 3.581E+00 7.907E+04 1.373E+06 8.093E+05 2.261E+06 2.261E+06 1.265E+07 34.6560 1.00000
  1.778E+12 1.778E+12 3.598E+00 8.872E+04 1.540E+06 9.280E+05 2.557E+06 2.557E+06 1.273E+07 34.8863 1.00000
  1.995E+12 1.995E+12 3.616E+00 9.955E+04 1.728E+06 1.064E+06 2.892E+06 2.892E+06 1.281E+07 35.1165 1.00000
  2.239E+12 2.239E+12 3.634E+00 1.117E+05 1.939E+06 1.220E+06 3.271E+06 3.271E+06 1.289E+07 35.3468 1.00000
  2.512E+12 2.512E+12 3.651E+00 1.253E+05 2.176E+06 1.400E+06 3.700E+06 3.700E+06 1.297E+07 35.5770 1.00000
  2.818E+12 2.818E+12 3.669E+00 1.406E+05 2.441E+06 1.605E+06 4.187E+06 4.187E+06 1.305E+07 35.8073 1.00000
  3.162E+12 3.162E+12 3.687E+00 1.578E+05 2.739E+06 1.841E+06 4.737E+06 4.737E+06 1.313E+07 36.0376 1.00000
  3.548E+12 3.548E+12 3.705E+00 1.770E+05 3.073E+06 2.112E+06 5.361E+06 5.361E+06 1.320E+07 36.2678 1.00000
  3.981E+12 3.981E+12 3.723E+00 1.986E+05 3.447E+06 2.422E+06 6.068E+06 6.068E+06 1.328E+07 36.4981 1.00000
  4.467E+12 4.467E+12 3.742E+00 2.229E+05 3.868E+06 2.779E+06 6.869E+06 6.869E+06 1.335E+07 36.7283 1.00000
  5.012E+12 5.012E+12 3.760E+00 2.501E+05 4.340E+06 3.188E+06 7.777E+06 7.777E+06 1.343E+07 36.9586 1.00000
  5.623E+12 5.623E+12 3.779E+00 2.806E+05 4.869E+06 3.657E+06 8.806E+06 8.806E+06 1.350E+07 37.1889 1.00000
  6.310E+12 6.310E+12 3.797E+00 3.148E+05 5.463E+06 4.196E+06 9.973E+06 9.973E+06 1.358E+07 37.4191 1.00000
  7.079E+12 7.079E+12 3.816E+00 3.532E+05 6.129E+06 4.814E+06 1.130E+07 1.130E+07 1.365E+07 37.6494 1.00000
  7.943E+12 7.943E+12 3.835E+00 3.963E+05 6.877E+06 5.523E+06 1.280E+07 1.280E+07 1.372E+07 37.8796 1.00000
  8.913E+12 8.913E+12 3.853E+00 4.447E+05 7.715E+06 6.338E+06 1.450E+07 1.450E+07 1.379E+07 38.1099 1.00000
  1.000E+13 1.000E+13 3.872E+00 4.989E+05 8.656E+06 7.273E+06 1.643E+07 1.643E+07 1.386E+07 38.3402 1.00000
  1.122E+13 1.122E+13 3.891E+00 5.598E+05 9.712E+06 8.346E+06 1.862E+07 1.862E+07 1.393E+07 38.5704 1.00000
  1.259E+13 1.259E+13 3.911E+00 6.281E+05 1.090E+07 9.578E+06 2.110E+07 2.110E+07 1.400E+07 38.8007 1.00000
  1.413E+13 1.413E+13 3.930E+00 7.048E+05 1.223E+07 1.099E+07 2.392E+07 2.392E+07 1.407E+07 39.0309 1.00000
  1.585E+13 1.585E+13 3.949E+00 7.908E+05 1.372E+07 1.262E+07 2.712E+07 2.712E+07 1.414E+07 39.2612 1.00000
  1.778E+13 1.778E+13 3.969E+00 8.873E+05 1.539E+07 1.448E+07 3.076E+07 3.076E+07 1.421E+07 39.4914 1.00000
  1.995E+13 1.995E+13 3.988E+00 9.955E+05 1.727E+07 1.662E+07 3.488E+07 3.488E+07 1.427E+07 39.7217 1.00000
  2.239E+13 2.239E+13 4.008E+00 1.117E+06 1.937E+07 1.908E+07 3.957E+07 3.957E+07 1.434E+07 39.9520 1.00000
  2.512E+13 2.512E+13 4.028E+00 1.253E+06 2.173E+07 2.190E+07 4.489E+07 4.489E+07 1.440E+07 40.1822 1.00000
  2.818E+13 2.818E+13 4.048E+00 1.406E+06 2.439E+07 2.515E+07 5.094E+07 5.094E+07 1.447E+07 40.4125 1.00000
  3.162E+13 3.162E+13 4.068E+00 1.578E+06 2.736E+07 2.887E+07 5.781E+07 5.781E+07 1.453E+07 40.6427 1.00000
  3.548E+13 3.548E+13 4.088E+00 1.770E+06 3.070E+07 3.315E+07 6.561E+07 6.561E+07 1.459E+07 40.8730 1.00000
  3.981E+13 3.981E+13 4.108E+00 1.986E+06 3.444E+07 3.806E+07 7.448E+07 7.448E+07 1.465E+07 41.1033 1.00000
  4.467E+13 4.467E+13 4.129E+00 2.229E+06 3.864E+07 4.370E+07 8.457E+07 8.457E+07 1.472E+07 41.3335 1.00000
  5.012E+13 5.012E+13 4.149E+00 2.501E+06 4.335E+07 5.018E+07 9.603E+07 9.603E+07 1.478E+07 41.5638 1.00000
  5.623E+13 5.623E+13 4.170E+00 2.806E+06 4.864E+07 5.762E+07 1.091E+08 1.091E+08 1.484E+07 41.7940 1.00000
  6.310E+13 6.310E+13 4.190E+00 3.148E+06 5.457E+07 6.617E+07 1.239E+08 1.239E+08 1.490E+07 42.0243 1.00000
  7.079E+13 7.079E+13 4.211E+00 3.532E+06 6.123E+07 7.600E+07 1.408E+08 1.408E+08 1.495E+07 42.2545 1.00000
  7.943E+13 7.943E+13 4.232E+00 3.963E+06 6.869E+07 8.728E+07 1.599E+08 1.599E+08 1.501E+07 42.4848 1.00000
  8.913E+13 8.913E+13 4.253E+00 4.447E+06 7.707E+07 1.003E+08 1.818E+08 1.818E+08 1.507E+07 42.7151 1.00000
