 Incident particle is a Tau with M = 1776.82000 MeV
 Index = 0: HeavymetInATLASCalorimeter
      Absorber with <Z/A> = 0.40594
 Sternheimer coef:  a     k=m_s   x_0    x_1    I[eV]   Cbar  delta0
                 0.1551  2.8447  0.2167  3.4960  727.0  5.4059 0.14

 *** Table generated with PUMAS v1.00 ***

      T         p     Ionization  brems     pair     photonuc  Radloss    dE/dx   CSDA Range  delta   beta
    [MeV]    [MeV/c]  -----------------------[MeV cm^2/g]------------------------  [g/cm^2]
  1.000E+05 1.018E+05 1.583E+00 9.425E-04 1.663E-02 7.593E-03 2.517E-02 1.608E+00 3.110E+04  3.4371 0.99985
  1.122E+05 1.140E+05 1.601E+00 1.093E-03 1.992E-02 8.525E-03 2.953E-02 1.630E+00 3.864E+04  3.6050 0.99988
  1.259E+05 1.277E+05 1.619E+00 1.266E-03 2.378E-02 9.521E-03 3.456E-02 1.653E+00 4.697E+04  3.7762 0.99990
  1.413E+05 1.430E+05 1.637E+00 1.467E-03 2.831E-02 1.064E-02 4.041E-02 1.677E+00 5.620E+04  3.9508 0.99992
  1.585E+05 1.603E+05 1.655E+00 1.698E-03 3.361E-02 1.188E-02 4.719E-02 1.702E+00 6.640E+04  4.1285 0.99994
  1.778E+05 1.796E+05 1.672E+00 1.964E-03 3.982E-02 1.325E-02 5.503E-02 1.727E+00 7.768E+04  4.3094 0.99995
  1.995E+05 2.013E+05 1.690E+00 2.270E-03 4.705E-02 1.481E-02 6.414E-02 1.754E+00 9.015E+04  4.4932 0.99996
  2.239E+05 2.256E+05 1.707E+00 2.623E-03 5.548E-02 1.651E-02 7.461E-02 1.782E+00 1.039E+05  4.6799 0.99997
  2.512E+05 2.530E+05 1.724E+00 3.029E-03 6.527E-02 1.840E-02 8.670E-02 1.811E+00 1.191E+05  4.8695 0.99998
  2.818E+05 2.836E+05 1.741E+00 3.496E-03 7.663E-02 2.052E-02 1.006E-01 1.842E+00 1.359E+05  5.0618 0.99998
  3.162E+05 3.180E+05 1.758E+00 4.033E-03 8.978E-02 2.291E-02 1.167E-01 1.875E+00 1.544E+05  5.2567 0.99998
  3.548E+05 3.566E+05 1.775E+00 4.649E-03 1.050E-01 2.557E-02 1.352E-01 1.910E+00 1.748E+05  5.4541 0.99999
  3.981E+05 3.999E+05 1.791E+00 5.357E-03 1.225E-01 2.854E-02 1.564E-01 1.948E+00 1.973E+05  5.6540 0.99999
  4.467E+05 4.485E+05 1.808E+00 6.169E-03 1.427E-01 3.184E-02 1.807E-01 1.989E+00 2.219E+05  5.8563 0.99999
  5.012E+05 5.030E+05 1.824E+00 7.100E-03 1.660E-01 3.555E-02 2.086E-01 2.033E+00 2.490E+05  6.0608 0.99999
  5.623E+05 5.641E+05 1.840E+00 8.168E-03 1.927E-01 3.954E-02 2.404E-01 2.081E+00 2.788E+05  6.2676 1.00000
  6.310E+05 6.327E+05 1.856E+00 9.391E-03 2.234E-01 4.402E-02 2.768E-01 2.133E+00 3.114E+05  6.4764 1.00000
  7.079E+05 7.097E+05 1.872E+00 1.079E-02 2.585E-01 4.907E-02 3.184E-01 2.190E+00 3.470E+05  6.6872 1.00000
  7.943E+05 7.961E+05 1.887E+00 1.240E-02 2.988E-01 5.475E-02 3.659E-01 2.253E+00 3.859E+05  6.8999 1.00000
  8.913E+05 8.930E+05 1.903E+00 1.423E-02 3.448E-01 6.115E-02 4.201E-01 2.323E+00 4.282E+05  7.1144 1.00000
  1.000E+06 1.002E+06 1.918E+00 1.633E-02 3.973E-01 6.838E-02 4.820E-01 2.400E+00 4.743E+05  7.3306 1.00000
  1.122E+06 1.124E+06 1.933E+00 1.874E-02 4.572E-01 7.654E-02 5.525E-01 2.486E+00 5.243E+05  7.5485 1.00000
  1.259E+06 1.261E+06 1.948E+00 2.148E-02 5.255E-01 8.576E-02 6.327E-01 2.581E+00 5.783E+05  7.7679 1.00000
  1.413E+06 1.414E+06 1.963E+00 2.462E-02 6.032E-01 9.619E-02 7.240E-01 2.687E+00 6.367E+05  7.9887 1.00000
  1.585E+06 1.587E+06 1.977E+00 2.820E-02 6.916E-01 1.080E-01 8.278E-01 2.805E+00 6.995E+05  8.2108 1.00000
  1.778E+06 1.780E+06 1.992E+00 3.230E-02 7.921E-01 1.214E-01 9.457E-01 2.938E+00 7.668E+05  8.4343 1.00000
  1.995E+06 1.997E+06 2.006E+00 3.697E-02 9.061E-01 1.365E-01 1.080E+00 3.086E+00 8.389E+05  8.6588 1.00000
  2.239E+06 2.240E+06 2.020E+00 4.230E-02 1.035E+00 1.537E-01 1.231E+00 3.252E+00 9.158E+05  8.8844 1.00000
  2.512E+06 2.514E+06 2.034E+00 4.837E-02 1.182E+00 1.733E-01 1.404E+00 3.438E+00 9.976E+05  9.1110 1.00000
  2.818E+06 2.820E+06 2.048E+00 5.530E-02 1.348E+00 1.954E-01 1.599E+00 3.646E+00 1.084E+06  9.3384 1.00000
  3.162E+06 3.164E+06 2.061E+00 6.320E-02 1.536E+00 2.206E-01 1.820E+00 3.881E+00 1.176E+06  9.5665 1.00000
  3.548E+06 3.550E+06 2.075E+00 7.220E-02 1.749E+00 2.492E-01 2.070E+00 4.145E+00 1.272E+06  9.7953 1.00000
  3.981E+06 3.983E+06 2.088E+00 8.244E-02 1.989E+00 2.818E-01 2.353E+00 4.441E+00 1.373E+06 10.0246 1.00000
  4.467E+06 4.469E+06 2.101E+00 9.411E-02 2.260E+00 3.188E-01 2.673E+00 4.774E+00 1.478E+06 10.2543 1.00000
  5.012E+06 5.014E+06 2.114E+00 1.074E-01 2.567E+00 3.609E-01 3.035E+00 5.149E+00 1.588E+06 10.4843 1.00000
  5.623E+06 5.625E+06 2.126E+00 1.225E-01 2.913E+00 4.088E-01 3.444E+00 5.570E+00 1.703E+06 10.7145 1.00000
  6.310E+06 6.311E+06 2.139E+00 1.397E-01 3.303E+00 4.633E-01 3.906E+00 6.045E+00 1.821E+06 10.9447 1.00000
  7.079E+06 7.081E+06 2.152E+00 1.592E-01 3.743E+00 5.255E-01 4.427E+00 6.579E+00 1.943E+06 11.1749 1.00000
  7.943E+06 7.945E+06 2.164E+00 1.814E-01 4.239E+00 5.962E-01 5.016E+00 7.180E+00 2.069E+06 11.4051 1.00000
  8.913E+06 8.914E+06 2.176E+00 2.067E-01 4.797E+00 6.768E-01 5.681E+00 7.857E+00 2.198E+06 11.6353 1.00000
  1.000E+07 1.000E+07 2.188E+00 2.353E-01 5.426E+00 7.686E-01 6.430E+00 8.619E+00 2.331E+06 11.8655 1.00000
  1.122E+07 1.122E+07 2.200E+00 2.679E-01 6.135E+00 8.733E-01 7.276E+00 9.476E+00 2.466E+06 12.0957 1.00000
  1.259E+07 1.259E+07 2.212E+00 3.049E-01 6.932E+00 9.926E-01 8.229E+00 1.044E+01 2.603E+06 12.3259 1.00000
  1.413E+07 1.413E+07 2.224E+00 3.468E-01 7.829E+00 1.129E+00 9.304E+00 1.153E+01 2.744E+06 12.5562 1.00000
  1.585E+07 1.585E+07 2.236E+00 3.944E-01 8.838E+00 1.284E+00 1.052E+01 1.275E+01 2.886E+06 12.7864 1.00000
  1.778E+07 1.778E+07 2.248E+00 4.483E-01 9.973E+00 1.461E+00 1.188E+01 1.413E+01 3.030E+06 13.0166 1.00000
  1.995E+07 1.995E+07 2.259E+00 5.095E-01 1.125E+01 1.662E+00 1.342E+01 1.568E+01 3.176E+06 13.2469 1.00000
  2.239E+07 2.239E+07 2.271E+00 5.788E-01 1.268E+01 1.893E+00 1.516E+01 1.743E+01 3.324E+06 13.4771 1.00000
  2.512E+07 2.512E+07 2.282E+00 6.573E-01 1.430E+01 2.155E+00 1.711E+01 1.939E+01 3.473E+06 13.7073 1.00000
  2.818E+07 2.819E+07 2.294E+00 7.462E-01 1.611E+01 2.455E+00 1.931E+01 2.160E+01 3.623E+06 13.9376 1.00000
  3.162E+07 3.162E+07 2.305E+00 8.469E-01 1.815E+01 2.796E+00 2.179E+01 2.409E+01 3.773E+06 14.1678 1.00000
  3.548E+07 3.548E+07 2.316E+00 9.608E-01 2.043E+01 3.186E+00 2.458E+01 2.690E+01 3.925E+06 14.3981 1.00000
  3.981E+07 3.981E+07 2.328E+00 1.090E+00 2.300E+01 3.632E+00 2.773E+01 3.005E+01 4.078E+06 14.6283 1.00000
  4.467E+07 4.467E+07 2.339E+00 1.236E+00 2.589E+01 4.140E+00 3.127E+01 3.361E+01 4.231E+06 14.8586 1.00000
  5.012E+07 5.012E+07 2.350E+00 1.400E+00 2.914E+01 4.720E+00 3.526E+01 3.761E+01 4.384E+06 15.0888 1.00000
  5.623E+07 5.624E+07 2.361E+00 1.587E+00 3.278E+01 5.382E+00 3.975E+01 4.211E+01 4.538E+06 15.3191 1.00000
  6.310E+07 6.310E+07 2.373E+00 1.798E+00 3.687E+01 6.137E+00 4.480E+01 4.718E+01 4.693E+06 15.5493 1.00000
  7.079E+07 7.080E+07 2.384E+00 2.036E+00 4.146E+01 7.000E+00 5.050E+01 5.288E+01 4.847E+06 15.7796 1.00000
  7.943E+07 7.943E+07 2.395E+00 2.304E+00 4.662E+01 7.986E+00 5.691E+01 5.930E+01 5.001E+06 16.0098 1.00000
  8.913E+07 8.913E+07 2.407E+00 2.608E+00 5.240E+01 9.111E+00 6.412E+01 6.653E+01 5.156E+06 16.2401 1.00000
  1.000E+08 1.000E+08 2.418E+00 2.950E+00 5.890E+01 1.040E+01 7.225E+01 7.467E+01 5.311E+06 16.4703 1.00000
  1.122E+08 1.122E+08 2.429E+00 3.337E+00 6.620E+01 1.186E+01 8.140E+01 8.383E+01 5.465E+06 16.7006 1.00000
  1.259E+08 1.259E+08 2.441E+00 3.773E+00 7.439E+01 1.354E+01 9.170E+01 9.414E+01 5.619E+06 16.9308 1.00000
  1.413E+08 1.413E+08 2.452E+00 4.264E+00 8.358E+01 1.545E+01 1.033E+02 1.057E+02 5.774E+06 17.1611 1.00000
  1.585E+08 1.585E+08 2.463E+00 4.819E+00 9.390E+01 1.764E+01 1.164E+02 1.188E+02 5.928E+06 17.3914 1.00000
  1.778E+08 1.778E+08 2.475E+00 5.444E+00 1.055E+02 2.013E+01 1.311E+02 1.335E+02 6.081E+06 17.6216 1.00000
  1.995E+08 1.995E+08 2.486E+00 6.148E+00 1.185E+02 2.299E+01 1.476E+02 1.501E+02 6.235E+06 17.8519 1.00000
  2.239E+08 2.239E+08 2.498E+00 6.941E+00 1.331E+02 2.625E+01 1.662E+02 1.687E+02 6.388E+06 18.0821 1.00000
  2.512E+08 2.512E+08 2.510E+00 7.835E+00 1.494E+02 2.997E+01 1.872E+02 1.897E+02 6.541E+06 18.3124 1.00000
  2.818E+08 2.818E+08 2.521E+00 8.841E+00 1.678E+02 3.422E+01 2.109E+02 2.134E+02 6.694E+06 18.5426 1.00000
  3.162E+08 3.162E+08 2.533E+00 9.974E+00 1.884E+02 3.908E+01 2.375E+02 2.400E+02 6.846E+06 18.7729 1.00000
  3.548E+08 3.548E+08 2.545E+00 1.125E+01 2.116E+02 4.464E+01 2.674E+02 2.700E+02 6.998E+06 19.0032 1.00000
  3.981E+08 3.981E+08 2.557E+00 1.268E+01 2.375E+02 5.098E+01 3.012E+02 3.037E+02 7.149E+06 19.2334 1.00000
  4.467E+08 4.467E+08 2.569E+00 1.430E+01 2.667E+02 5.823E+01 3.392E+02 3.418E+02 7.300E+06 19.4637 1.00000
  5.012E+08 5.012E+08 2.580E+00 1.612E+01 2.993E+02 6.652E+01 3.820E+02 3.846E+02 7.451E+06 19.6939 1.00000
  5.623E+08 5.623E+08 2.592E+00 1.816E+01 3.360E+02 7.599E+01 4.302E+02 4.328E+02 7.601E+06 19.9242 1.00000
  6.310E+08 6.310E+08 2.605E+00 2.046E+01 3.772E+02 8.682E+01 4.845E+02 4.871E+02 7.751E+06 20.1544 1.00000
  7.079E+08 7.079E+08 2.617E+00 2.304E+01 4.234E+02 9.920E+01 5.456E+02 5.483E+02 7.900E+06 20.3847 1.00000
  7.943E+08 7.943E+08 2.629E+00 2.595E+01 4.752E+02 1.133E+02 6.145E+02 6.172E+02 8.049E+06 20.6150 1.00000
  8.913E+08 8.913E+08 2.641E+00 2.921E+01 5.334E+02 1.295E+02 6.921E+02 6.948E+02 8.197E+06 20.8452 1.00000
  1.000E+09 1.000E+09 2.653E+00 3.288E+01 5.987E+02 1.480E+02 7.795E+02 7.822E+02 8.345E+06 21.0755 1.00000
  1.122E+09 1.122E+09 2.666E+00 3.700E+01 6.719E+02 1.691E+02 8.780E+02 8.807E+02 8.492E+06 21.3057 1.00000
  1.259E+09 1.259E+09 2.678E+00 4.164E+01 7.541E+02 1.933E+02 9.890E+02 9.917E+02 8.639E+06 21.5360 1.00000
  1.413E+09 1.413E+09 2.691E+00 4.685E+01 8.463E+02 2.209E+02 1.114E+03 1.117E+03 8.785E+06 21.7662 1.00000
  1.585E+09 1.585E+09 2.703E+00 5.269E+01 9.497E+02 2.525E+02 1.255E+03 1.258E+03 8.931E+06 21.9965 1.00000
  1.778E+09 1.778E+09 2.716E+00 5.926E+01 1.066E+03 2.887E+02 1.414E+03 1.416E+03 9.076E+06 22.2268 1.00000
  1.995E+09 1.995E+09 2.729E+00 6.664E+01 1.196E+03 3.300E+02 1.593E+03 1.595E+03 9.221E+06 22.4570 1.00000
  2.239E+09 2.239E+09 2.741E+00 7.493E+01 1.342E+03 3.772E+02 1.794E+03 1.797E+03 9.365E+06 22.6873 1.00000
  2.512E+09 2.512E+09 2.754E+00 8.424E+01 1.506E+03 4.313E+02 2.022E+03 2.024E+03 9.508E+06 22.9175 1.00000
  2.818E+09 2.818E+09 2.767E+00 9.469E+01 1.690E+03 4.931E+02 2.278E+03 2.281E+03 9.651E+06 23.1478 1.00000
  3.162E+09 3.162E+09 2.780E+00 1.064E+02 1.897E+03 5.638E+02 2.567E+03 2.570E+03 9.793E+06 23.3781 1.00000
  3.548E+09 3.548E+09 2.793E+00 1.196E+02 2.128E+03 6.446E+02 2.892E+03 2.895E+03 9.935E+06 23.6083 1.00000
  3.981E+09 3.981E+09 2.806E+00 1.344E+02 2.388E+03 7.371E+02 3.260E+03 3.262E+03 1.008E+07 23.8386 1.00000
  4.467E+09 4.467E+09 2.820E+00 1.510E+02 2.680E+03 8.430E+02 3.674E+03 3.676E+03 1.022E+07 24.0688 1.00000
  5.012E+09 5.012E+09 2.833E+00 1.696E+02 3.007E+03 9.640E+02 4.141E+03 4.143E+03 1.036E+07 24.2991 1.00000
  5.623E+09 5.623E+09 2.846E+00 1.906E+02 3.374E+03 1.103E+03 4.667E+03 4.670E+03 1.050E+07 24.5293 1.00000
  6.310E+09 6.310E+09 2.860E+00 2.141E+02 3.786E+03 1.261E+03 5.261E+03 5.264E+03 1.063E+07 24.7596 1.00000
  7.079E+09 7.079E+09 2.873E+00 2.404E+02 4.248E+03 1.442E+03 5.931E+03 5.934E+03 1.077E+07 24.9899 1.00000
  7.943E+09 7.943E+09 2.887E+00 2.700E+02 4.767E+03 1.650E+03 6.686E+03 6.689E+03 1.091E+07 25.2201 1.00000
  8.913E+09 8.913E+09 2.900E+00 3.032E+02 5.348E+03 1.887E+03 7.539E+03 7.542E+03 1.105E+07 25.4504 1.00000
  1.000E+10 1.000E+10 2.914E+00 3.405E+02 6.001E+03 2.159E+03 8.501E+03 8.504E+03 1.118E+07 25.6806 1.00000
  1.122E+10 1.122E+10 2.928E+00 3.824E+02 6.733E+03 2.470E+03 9.586E+03 9.589E+03 1.132E+07 25.9109 1.00000
  1.259E+10 1.259E+10 2.942E+00 4.293E+02 7.555E+03 2.826E+03 1.081E+04 1.081E+04 1.145E+07 26.1412 1.00000
  1.413E+10 1.413E+10 2.956E+00 4.820E+02 8.477E+03 3.234E+03 1.219E+04 1.220E+04 1.159E+07 26.3714 1.00000
  1.585E+10 1.585E+10 2.970E+00 5.412E+02 9.512E+03 3.700E+03 1.375E+04 1.376E+04 1.172E+07 26.6017 1.00000
  1.778E+10 1.778E+10 2.984E+00 6.075E+02 1.067E+04 4.234E+03 1.551E+04 1.552E+04 1.185E+07 26.8319 1.00000
  1.995E+10 1.995E+10 2.998E+00 6.820E+02 1.197E+04 4.845E+03 1.750E+04 1.750E+04 1.198E+07 27.0622 1.00000
  2.239E+10 2.239E+10 3.013E+00 7.656E+02 1.344E+04 5.545E+03 1.975E+04 1.975E+04 1.212E+07 27.2925 1.00000
  2.512E+10 2.512E+10 3.027E+00 8.594E+02 1.508E+04 6.346E+03 2.228E+04 2.228E+04 1.225E+07 27.5227 1.00000
  2.818E+10 2.818E+10 3.041E+00 9.646E+02 1.691E+04 7.263E+03 2.514E+04 2.514E+04 1.238E+07 27.7530 1.00000
  3.162E+10 3.162E+10 3.056E+00 1.083E+03 1.898E+04 8.313E+03 2.837E+04 2.838E+04 1.250E+07 27.9832 1.00000
  3.548E+10 3.548E+10 3.071E+00 1.215E+03 2.129E+04 9.515E+03 3.202E+04 3.203E+04 1.263E+07 28.2135 1.00000
  3.981E+10 3.981E+10 3.085E+00 1.364E+03 2.389E+04 1.089E+04 3.615E+04 3.615E+04 1.276E+07 28.4437 1.00000
  4.467E+10 4.467E+10 3.100E+00 1.531E+03 2.681E+04 1.247E+04 4.081E+04 4.081E+04 1.289E+07 28.6740 1.00000
  5.012E+10 5.012E+10 3.115E+00 1.718E+03 3.008E+04 1.427E+04 4.607E+04 4.607E+04 1.301E+07 28.9043 1.00000
  5.623E+10 5.623E+10 3.130E+00 1.928E+03 3.375E+04 1.634E+04 5.202E+04 5.202E+04 1.314E+07 29.1345 1.00000
  6.310E+10 6.310E+10 3.145E+00 2.164E+03 3.786E+04 1.871E+04 5.874E+04 5.874E+04 1.326E+07 29.3648 1.00000
  7.079E+10 7.079E+10 3.160E+00 2.428E+03 4.248E+04 2.142E+04 6.634E+04 6.634E+04 1.339E+07 29.5950 1.00000
  7.943E+10 7.943E+10 3.175E+00 2.725E+03 4.767E+04 2.453E+04 7.492E+04 7.493E+04 1.351E+07 29.8253 1.00000
  8.913E+10 8.913E+10 3.191E+00 3.058E+03 5.348E+04 2.809E+04 8.463E+04 8.464E+04 1.363E+07 30.0556 1.00000
  1.000E+11 1.000E+11 3.206E+00 3.432E+03 6.001E+04 3.217E+04 9.561E+04 9.561E+04 1.375E+07 30.2858 1.00000
  1.122E+11 1.122E+11 3.221E+00 3.851E+03 6.733E+04 3.684E+04 1.080E+05 1.080E+05 1.387E+07 30.5161 1.00000
  1.259E+11 1.259E+11 3.237E+00 4.322E+03 7.554E+04 4.220E+04 1.221E+05 1.221E+05 1.399E+07 30.7463 1.00000
  1.413E+11 1.413E+11 3.253E+00 4.849E+03 8.476E+04 4.833E+04 1.379E+05 1.379E+05 1.411E+07 30.9766 1.00000
  1.585E+11 1.585E+11 3.268E+00 5.442E+03 9.509E+04 5.536E+04 1.559E+05 1.559E+05 1.423E+07 31.2068 1.00000
  1.778E+11 1.778E+11 3.284E+00 6.106E+03 1.067E+05 6.342E+04 1.762E+05 1.762E+05 1.434E+07 31.4371 1.00000
  1.995E+11 1.995E+11 3.300E+00 6.852E+03 1.197E+05 7.264E+04 1.992E+05 1.992E+05 1.446E+07 31.6674 1.00000
  2.239E+11 2.239E+11 3.316E+00 7.689E+03 1.343E+05 8.322E+04 2.252E+05 2.252E+05 1.458E+07 31.8976 1.00000
  2.512E+11 2.512E+11 3.332E+00 8.627E+03 1.507E+05 9.534E+04 2.547E+05 2.547E+05 1.469E+07 32.1279 1.00000
  2.818E+11 2.818E+11 3.348E+00 9.681E+03 1.691E+05 1.092E+05 2.880E+05 2.880E+05 1.480E+07 32.3581 1.00000
  3.162E+11 3.162E+11 3.365E+00 1.086E+04 1.897E+05 1.252E+05 3.257E+05 3.257E+05 1.492E+07 32.5884 1.00000
  3.548E+11 3.548E+11 3.381E+00 1.219E+04 2.128E+05 1.434E+05 3.685E+05 3.685E+05 1.503E+07 32.8187 1.00000
  3.981E+11 3.981E+11 3.397E+00 1.368E+04 2.388E+05 1.643E+05 4.168E+05 4.168E+05 1.514E+07 33.0489 1.00000
  4.467E+11 4.467E+11 3.414E+00 1.535E+04 2.679E+05 1.883E+05 4.716E+05 4.716E+05 1.525E+07 33.2792 1.00000
  5.012E+11 5.012E+11 3.431E+00 1.722E+04 3.006E+05 2.158E+05 5.337E+05 5.337E+05 1.536E+07 33.5094 1.00000
  5.623E+11 5.623E+11 3.447E+00 1.932E+04 3.373E+05 2.474E+05 6.040E+05 6.040E+05 1.546E+07 33.7397 1.00000
  6.310E+11 6.310E+11 3.464E+00 2.168E+04 3.784E+05 2.835E+05 6.836E+05 6.836E+05 1.557E+07 33.9699 1.00000
  7.079E+11 7.079E+11 3.481E+00 2.432E+04 4.246E+05 3.249E+05 7.739E+05 7.739E+05 1.568E+07 34.2002 1.00000
  7.943E+11 7.943E+11 3.498E+00 2.729E+04 4.764E+05 3.725E+05 8.762E+05 8.762E+05 1.578E+07 34.4305 1.00000
  8.913E+11 8.913E+11 3.515E+00 3.062E+04 5.345E+05 4.270E+05 9.921E+05 9.921E+05 1.589E+07 34.6607 1.00000
  1.000E+12 1.000E+12 3.532E+00 3.436E+04 5.997E+05 4.895E+05 1.124E+06 1.124E+06 1.599E+07 34.8910 1.00000
  1.122E+12 1.122E+12 3.550E+00 3.855E+04 6.728E+05 5.611E+05 1.273E+06 1.273E+06 1.609E+07 35.1212 1.00000
  1.259E+12 1.259E+12 3.567E+00 4.326E+04 7.549E+05 6.433E+05 1.442E+06 1.442E+06 1.619E+07 35.3515 1.00000
  1.413E+12 1.413E+12 3.585E+00 4.854E+04 8.470E+05 7.376E+05 1.633E+06 1.633E+06 1.629E+07 35.5818 1.00000
  1.585E+12 1.585E+12 3.602E+00 5.446E+04 9.503E+05 8.457E+05 1.851E+06 1.851E+06 1.639E+07 35.8120 1.00000
  1.778E+12 1.778E+12 3.620E+00 6.111E+04 1.066E+06 9.698E+05 2.097E+06 2.097E+06 1.649E+07 36.0423 1.00000
  1.995E+12 1.995E+12 3.638E+00 6.857E+04 1.196E+06 1.112E+06 2.377E+06 2.377E+06 1.659E+07 36.2725 1.00000
  2.239E+12 2.239E+12 3.655E+00 7.693E+04 1.342E+06 1.275E+06 2.694E+06 2.694E+06 1.669E+07 36.5028 1.00000
  2.512E+12 2.512E+12 3.673E+00 8.632E+04 1.506E+06 1.463E+06 3.055E+06 3.055E+06 1.678E+07 36.7330 1.00000
  2.818E+12 2.818E+12 3.692E+00 9.685E+04 1.690E+06 1.677E+06 3.464E+06 3.464E+06 1.688E+07 36.9633 1.00000
  3.162E+12 3.162E+12 3.710E+00 1.087E+05 1.896E+06 1.924E+06 3.928E+06 3.928E+06 1.697E+07 37.1936 1.00000
  3.548E+12 3.548E+12 3.728E+00 1.219E+05 2.127E+06 2.207E+06 4.455E+06 4.455E+06 1.706E+07 37.4238 1.00000
  3.981E+12 3.981E+12 3.746E+00 1.368E+05 2.386E+06 2.531E+06 5.054E+06 5.054E+06 1.715E+07 37.6541 1.00000
  4.467E+12 4.467E+12 3.765E+00 1.535E+05 2.677E+06 2.904E+06 5.734E+06 5.734E+06 1.724E+07 37.8843 1.00000
  5.012E+12 5.012E+12 3.783E+00 1.722E+05 3.004E+06 3.331E+06 6.507E+06 6.507E+06 1.733E+07 38.1146 1.00000
  5.623E+12 5.623E+12 3.802E+00 1.933E+05 3.370E+06 3.821E+06 7.385E+06 7.385E+06 1.742E+07 38.3449 1.00000
  6.310E+12 6.310E+12 3.821E+00 2.168E+05 3.781E+06 4.384E+06 8.382E+06 8.382E+06 1.751E+07 38.5751 1.00000
  7.079E+12 7.079E+12 3.840E+00 2.433E+05 4.242E+06 5.030E+06 9.516E+06 9.516E+06 1.759E+07 38.8054 1.00000
  7.943E+12 7.943E+12 3.859E+00 2.730E+05 4.760E+06 5.772E+06 1.080E+07 1.080E+07 1.768E+07 39.0356 1.00000
  8.913E+12 8.913E+12 3.878E+00 3.063E+05 5.340E+06 6.623E+06 1.227E+07 1.227E+07 1.776E+07 39.2659 1.00000
  1.000E+13 1.000E+13 3.897E+00 3.437E+05 5.992E+06 7.600E+06 1.394E+07 1.394E+07 1.785E+07 39.4962 1.00000
  1.122E+13 1.122E+13 3.916E+00 3.856E+05 6.723E+06 8.721E+06 1.583E+07 1.583E+07 1.793E+07 39.7264 1.00000
  1.259E+13 1.259E+13 3.936E+00 4.327E+05 7.543E+06 1.001E+07 1.798E+07 1.798E+07 1.801E+07 39.9567 1.00000
  1.413E+13 1.413E+13 3.955E+00 4.854E+05 8.462E+06 1.149E+07 2.044E+07 2.044E+07 1.809E+07 40.1869 1.00000
  1.585E+13 1.585E+13 3.975E+00 5.447E+05 9.494E+06 1.318E+07 2.322E+07 2.322E+07 1.817E+07 40.4172 1.00000
  1.778E+13 1.778E+13 3.995E+00 6.111E+05 1.065E+07 1.513E+07 2.640E+07 2.640E+07 1.825E+07 40.6474 1.00000
  1.995E+13 1.995E+13 4.014E+00 6.857E+05 1.195E+07 1.737E+07 3.001E+07 3.001E+07 1.833E+07 40.8777 1.00000
  2.239E+13 2.239E+13 4.034E+00 7.694E+05 1.341E+07 1.994E+07 3.412E+07 3.412E+07 1.840E+07 41.1080 1.00000
  2.512E+13 2.512E+13 4.054E+00 8.633E+05 1.504E+07 2.289E+07 3.880E+07 3.880E+07 1.848E+07 41.3382 1.00000
  2.818E+13 2.818E+13 4.075E+00 9.686E+05 1.688E+07 2.628E+07 4.413E+07 4.413E+07 1.855E+07 41.5685 1.00000
  3.162E+13 3.162E+13 4.095E+00 1.087E+06 1.894E+07 3.017E+07 5.019E+07 5.019E+07 1.863E+07 41.7987 1.00000
  3.548E+13 3.548E+13 4.115E+00 1.219E+06 2.125E+07 3.464E+07 5.710E+07 5.710E+07 1.870E+07 42.0290 1.00000
  3.981E+13 3.981E+13 4.136E+00 1.368E+06 2.384E+07 3.977E+07 6.498E+07 6.498E+07 1.877E+07 42.2593 1.00000
  4.467E+13 4.467E+13 4.156E+00 1.535E+06 2.675E+07 4.567E+07 7.395E+07 7.395E+07 1.884E+07 42.4895 1.00000
  5.012E+13 5.012E+13 4.177E+00 1.722E+06 3.001E+07 5.244E+07 8.417E+07 8.417E+07 1.891E+07 42.7198 1.00000
  5.623E+13 5.623E+13 4.198E+00 1.933E+06 3.367E+07 6.022E+07 9.582E+07 9.582E+07 1.898E+07 42.9500 1.00000
  6.310E+13 6.310E+13 4.219E+00 2.168E+06 3.777E+07 6.915E+07 1.091E+08 1.091E+08 1.904E+07 43.1803 1.00000
  7.079E+13 7.079E+13 4.240E+00 2.433E+06 4.238E+07 7.942E+07 1.242E+08 1.242E+08 1.911E+07 43.4105 1.00000
  7.943E+13 7.943E+13 4.261E+00 2.730E+06 4.755E+07 9.121E+07 1.415E+08 1.415E+08 1.918E+07 43.6408 1.00000
  8.913E+13 8.913E+13 4.282E+00 3.063E+06 5.335E+07 1.048E+08 1.612E+08 1.612E+08 1.924E+07 43.8711 1.00000
