 Incident particle is a Tau with M = 1776.82000 MeV
 Index = 0: KryptonGas
      Absorber with <Z/A> = 0.42960
 Sternheimer coef:  a     k=m_s   x_0    x_1    I[eV]   Cbar  delta0
                 0.0745  3.4051  1.7153  5.0743  352.0 12.5094 0.00

 *** Table generated with PUMAS v1.00 ***

      T         p     Ionization  brems     pair     photonuc  Radloss    dE/dx   CSDA Range  delta   beta
    [MeV]    [MeV/c]  -----------------------[MeV cm^2/g]------------------------  [g/cm^2]
  1.000E+05 1.018E+05 1.997E+00 5.350E-04 9.002E-03 7.789E-03 1.733E-02 2.015E+00 2.482E+04  0.0025 0.99985
  1.122E+05 1.140E+05 2.027E+00 6.196E-04 1.079E-02 8.759E-03 2.017E-02 2.047E+00 3.083E+04  0.0100 0.99988
  1.259E+05 1.277E+05 2.056E+00 7.171E-04 1.289E-02 9.798E-03 2.341E-02 2.080E+00 3.746E+04  0.0252 0.99990
  1.413E+05 1.430E+05 2.085E+00 8.295E-04 1.537E-02 1.096E-02 2.716E-02 2.113E+00 4.479E+04  0.0482 0.99992
  1.585E+05 1.603E+05 2.114E+00 9.591E-04 1.827E-02 1.226E-02 3.149E-02 2.145E+00 5.289E+04  0.0787 0.99994
  1.778E+05 1.796E+05 2.142E+00 1.108E-03 2.166E-02 1.370E-02 3.647E-02 2.178E+00 6.183E+04  0.1166 0.99995
  1.995E+05 2.013E+05 2.170E+00 1.280E-03 2.562E-02 1.534E-02 4.224E-02 2.212E+00 7.172E+04  0.1618 0.99996
  2.239E+05 2.256E+05 2.197E+00 1.477E-03 3.024E-02 1.713E-02 4.884E-02 2.246E+00 8.264E+04  0.2141 0.99997
  2.512E+05 2.530E+05 2.224E+00 1.704E-03 3.561E-02 1.912E-02 5.643E-02 2.280E+00 9.472E+04  0.2735 0.99998
  2.818E+05 2.836E+05 2.250E+00 1.965E-03 4.184E-02 2.136E-02 6.516E-02 2.315E+00 1.081E+05  0.3396 0.99998
  3.162E+05 3.180E+05 2.276E+00 2.264E-03 4.907E-02 2.388E-02 7.521E-02 2.351E+00 1.228E+05  0.4124 0.99998
  3.548E+05 3.566E+05 2.301E+00 2.608E-03 5.743E-02 2.670E-02 8.673E-02 2.388E+00 1.391E+05  0.4918 0.99999
  3.981E+05 3.999E+05 2.326E+00 3.002E-03 6.709E-02 2.983E-02 9.993E-02 2.426E+00 1.571E+05  0.5775 0.99999
  4.467E+05 4.485E+05 2.351E+00 3.455E-03 7.824E-02 3.334E-02 1.150E-01 2.466E+00 1.769E+05  0.6695 0.99999
  5.012E+05 5.030E+05 2.375E+00 3.973E-03 9.108E-02 3.728E-02 1.323E-01 2.508E+00 1.988E+05  0.7675 0.99999
  5.623E+05 5.641E+05 2.399E+00 4.567E-03 1.059E-01 4.152E-02 1.519E-01 2.551E+00 2.230E+05  0.8714 1.00000
  6.310E+05 6.327E+05 2.423E+00 5.247E-03 1.228E-01 4.630E-02 1.744E-01 2.597E+00 2.497E+05  0.9811 1.00000
  7.079E+05 7.097E+05 2.445E+00 6.026E-03 1.423E-01 5.167E-02 2.000E-01 2.645E+00 2.791E+05  1.0964 1.00000
  7.943E+05 7.961E+05 2.468E+00 6.918E-03 1.646E-01 5.773E-02 2.293E-01 2.697E+00 3.114E+05  1.2171 1.00000
  8.913E+05 8.930E+05 2.490E+00 7.938E-03 1.902E-01 6.457E-02 2.627E-01 2.753E+00 3.470E+05  1.3431 1.00000
  1.000E+06 1.002E+06 2.512E+00 9.104E-03 2.194E-01 7.229E-02 3.008E-01 2.813E+00 3.861E+05  1.4743 1.00000
  1.122E+06 1.124E+06 2.533E+00 1.044E-02 2.528E-01 8.101E-02 3.442E-01 2.878E+00 4.289E+05  1.6105 1.00000
  1.259E+06 1.261E+06 2.554E+00 1.196E-02 2.909E-01 9.087E-02 3.937E-01 2.948E+00 4.760E+05  1.7515 1.00000
  1.413E+06 1.414E+06 2.575E+00 1.370E-02 3.343E-01 1.020E-01 4.500E-01 3.025E+00 5.274E+05  1.8972 1.00000
  1.585E+06 1.587E+06 2.595E+00 1.569E-02 3.837E-01 1.147E-01 5.141E-01 3.109E+00 5.836E+05  2.0475 1.00000
  1.778E+06 1.780E+06 2.615E+00 1.796E-02 4.399E-01 1.290E-01 5.869E-01 3.202E+00 6.449E+05  2.2022 1.00000
  1.995E+06 1.997E+06 2.634E+00 2.055E-02 5.038E-01 1.453E-01 6.696E-01 3.304E+00 7.116E+05  2.3611 1.00000
  2.239E+06 2.240E+06 2.653E+00 2.350E-02 5.763E-01 1.637E-01 7.635E-01 3.417E+00 7.841E+05  2.5242 1.00000
  2.512E+06 2.514E+06 2.672E+00 2.687E-02 6.586E-01 1.846E-01 8.702E-01 3.542E+00 8.627E+05  2.6912 1.00000
  2.818E+06 2.820E+06 2.690E+00 3.071E-02 7.520E-01 2.084E-01 9.911E-01 3.681E+00 9.476E+05  2.8620 1.00000
  3.162E+06 3.164E+06 2.708E+00 3.509E-02 8.577E-01 2.354E-01 1.128E+00 3.836E+00 1.039E+06  3.0366 1.00000
  3.548E+06 3.550E+06 2.725E+00 4.008E-02 9.774E-01 2.662E-01 1.284E+00 4.009E+00 1.138E+06  3.2147 1.00000
  3.981E+06 3.983E+06 2.742E+00 4.576E-02 1.113E+00 3.011E-01 1.460E+00 4.202E+00 1.243E+06  3.3962 1.00000
  4.467E+06 4.469E+06 2.759E+00 5.222E-02 1.266E+00 3.408E-01 1.659E+00 4.418E+00 1.356E+06  3.5810 1.00000
  5.012E+06 5.014E+06 2.776E+00 5.959E-02 1.439E+00 3.860E-01 1.884E+00 4.660E+00 1.476E+06  3.7690 1.00000
  5.623E+06 5.625E+06 2.792E+00 6.796E-02 1.634E+00 4.375E-01 2.140E+00 4.931E+00 1.604E+06  3.9599 1.00000
  6.310E+06 6.311E+06 2.807E+00 7.749E-02 1.855E+00 4.961E-01 2.428E+00 5.236E+00 1.739E+06  4.1538 1.00000
  7.079E+06 7.081E+06 2.823E+00 8.833E-02 2.104E+00 5.628E-01 2.755E+00 5.578E+00 1.881E+06  4.3504 1.00000
  7.943E+06 7.945E+06 2.838E+00 1.007E-01 2.384E+00 6.389E-01 3.124E+00 5.962E+00 2.031E+06  4.5497 1.00000
  8.913E+06 8.914E+06 2.853E+00 1.147E-01 2.700E+00 7.255E-01 3.541E+00 6.393E+00 2.188E+06  4.7515 1.00000
  1.000E+07 1.000E+07 2.867E+00 1.306E-01 3.057E+00 8.242E-01 4.012E+00 6.879E+00 2.352E+06  4.9556 1.00000
  1.122E+07 1.122E+07 2.882E+00 1.486E-01 3.458E+00 9.367E-01 4.544E+00 7.425E+00 2.523E+06  5.1621 1.00000
  1.259E+07 1.259E+07 2.896E+00 1.692E-01 3.910E+00 1.065E+00 5.144E+00 8.040E+00 2.700E+06  5.3707 1.00000
  1.413E+07 1.413E+07 2.910E+00 1.924E-01 4.419E+00 1.211E+00 5.823E+00 8.732E+00 2.884E+06  5.5813 1.00000
  1.585E+07 1.585E+07 2.923E+00 2.189E-01 4.992E+00 1.378E+00 6.589E+00 9.512E+00 3.073E+06  5.7938 1.00000
  1.778E+07 1.778E+07 2.937E+00 2.489E-01 5.636E+00 1.568E+00 7.453E+00 1.039E+01 3.268E+06  6.0081 1.00000
  1.995E+07 1.995E+07 2.950E+00 2.829E-01 6.361E+00 1.785E+00 8.429E+00 1.138E+01 3.468E+06  6.2241 1.00000
  2.239E+07 2.239E+07 2.963E+00 3.214E-01 7.176E+00 2.032E+00 9.530E+00 1.249E+01 3.672E+06  6.4417 1.00000
  2.512E+07 2.512E+07 2.976E+00 3.651E-01 8.093E+00 2.315E+00 1.077E+01 1.375E+01 3.881E+06  6.6607 1.00000
  2.818E+07 2.819E+07 2.988E+00 4.146E-01 9.123E+00 2.637E+00 1.217E+01 1.516E+01 4.093E+06  6.8812 1.00000
  3.162E+07 3.162E+07 3.001E+00 4.706E-01 1.028E+01 3.004E+00 1.376E+01 1.676E+01 4.309E+06  7.1029 1.00000
  3.548E+07 3.548E+07 3.013E+00 5.341E-01 1.158E+01 3.424E+00 1.554E+01 1.855E+01 4.529E+06  7.3257 1.00000
  3.981E+07 3.981E+07 3.026E+00 6.059E-01 1.304E+01 3.902E+00 1.755E+01 2.058E+01 4.750E+06  7.5496 1.00000
  4.467E+07 4.467E+07 3.038E+00 6.872E-01 1.469E+01 4.448E+00 1.982E+01 2.286E+01 4.975E+06  7.7745 1.00000
  5.012E+07 5.012E+07 3.050E+00 7.792E-01 1.653E+01 5.072E+00 2.238E+01 2.543E+01 5.201E+06  8.0003 1.00000
  5.623E+07 5.624E+07 3.063E+00 8.832E-01 1.860E+01 5.784E+00 2.527E+01 2.833E+01 5.429E+06  8.2268 1.00000
  6.310E+07 6.310E+07 3.075E+00 1.001E+00 2.093E+01 6.597E+00 2.853E+01 3.160E+01 5.659E+06  8.4541 1.00000
  7.079E+07 7.080E+07 3.087E+00 1.134E+00 2.354E+01 7.524E+00 3.220E+01 3.529E+01 5.890E+06  8.6819 1.00000
  7.943E+07 7.943E+07 3.099E+00 1.284E+00 2.648E+01 8.584E+00 3.635E+01 3.945E+01 6.122E+06  8.9103 1.00000
  8.913E+07 8.913E+07 3.111E+00 1.454E+00 2.977E+01 9.794E+00 4.102E+01 4.413E+01 6.354E+06  9.1392 1.00000
  1.000E+08 1.000E+08 3.123E+00 1.645E+00 3.347E+01 1.117E+01 4.629E+01 4.942E+01 6.588E+06  9.3684 1.00000
  1.122E+08 1.122E+08 3.135E+00 1.861E+00 3.763E+01 1.275E+01 5.224E+01 5.538E+01 6.821E+06  9.5980 1.00000
  1.259E+08 1.259E+08 3.147E+00 2.105E+00 4.229E+01 1.455E+01 5.895E+01 6.210E+01 7.055E+06  9.8278 1.00000
  1.413E+08 1.413E+08 3.159E+00 2.381E+00 4.752E+01 1.661E+01 6.652E+01 6.968E+01 7.289E+06 10.0578 1.00000
  1.585E+08 1.585E+08 3.171E+00 2.691E+00 5.340E+01 1.896E+01 7.505E+01 7.822E+01 7.523E+06 10.2879 1.00000
  1.778E+08 1.778E+08 3.183E+00 3.042E+00 5.999E+01 2.165E+01 8.468E+01 8.787E+01 7.756E+06 10.5181 1.00000
  1.995E+08 1.995E+08 3.196E+00 3.437E+00 6.740E+01 2.472E+01 9.555E+01 9.874E+01 7.990E+06 10.7484 1.00000
  2.239E+08 2.239E+08 3.208E+00 3.882E+00 7.570E+01 2.822E+01 1.078E+02 1.110E+02 8.223E+06 10.9786 1.00000
  2.512E+08 2.512E+08 3.220E+00 4.383E+00 8.503E+01 3.222E+01 1.216E+02 1.249E+02 8.455E+06 11.2089 1.00000
  2.818E+08 2.818E+08 3.233E+00 4.948E+00 9.549E+01 3.680E+01 1.372E+02 1.405E+02 8.687E+06 11.4391 1.00000
  3.162E+08 3.162E+08 3.245E+00 5.585E+00 1.072E+02 4.202E+01 1.548E+02 1.581E+02 8.918E+06 11.6694 1.00000
  3.548E+08 3.548E+08 3.257E+00 6.302E+00 1.204E+02 4.799E+01 1.747E+02 1.780E+02 9.149E+06 11.8997 1.00000
  3.981E+08 3.981E+08 3.270E+00 7.109E+00 1.352E+02 5.482E+01 1.971E+02 2.004E+02 9.378E+06 12.1299 1.00000
  4.467E+08 4.467E+08 3.283E+00 8.017E+00 1.518E+02 6.262E+01 2.224E+02 2.257E+02 9.607E+06 12.3602 1.00000
  5.012E+08 5.012E+08 3.295E+00 9.039E+00 1.704E+02 7.153E+01 2.510E+02 2.543E+02 9.835E+06 12.5904 1.00000
  5.623E+08 5.623E+08 3.308E+00 1.019E+01 1.913E+02 8.172E+01 2.832E+02 2.865E+02 1.006E+07 12.8207 1.00000
  6.310E+08 6.310E+08 3.321E+00 1.148E+01 2.148E+02 9.336E+01 3.196E+02 3.229E+02 1.029E+07 13.0509 1.00000
  7.079E+08 7.079E+08 3.333E+00 1.294E+01 2.411E+02 1.067E+02 3.607E+02 3.640E+02 1.051E+07 13.2812 1.00000
  7.943E+08 7.943E+08 3.346E+00 1.458E+01 2.706E+02 1.219E+02 4.071E+02 4.104E+02 1.074E+07 13.5115 1.00000
  8.913E+08 8.913E+08 3.359E+00 1.642E+01 3.038E+02 1.393E+02 4.595E+02 4.628E+02 1.096E+07 13.7417 1.00000
  1.000E+09 1.000E+09 3.372E+00 1.849E+01 3.410E+02 1.592E+02 5.186E+02 5.220E+02 1.118E+07 13.9720 1.00000
  1.122E+09 1.122E+09 3.385E+00 2.081E+01 3.827E+02 1.819E+02 5.854E+02 5.888E+02 1.140E+07 14.2022 1.00000
  1.259E+09 1.259E+09 3.399E+00 2.343E+01 4.295E+02 2.079E+02 6.608E+02 6.642E+02 1.162E+07 14.4325 1.00000
  1.413E+09 1.413E+09 3.412E+00 2.636E+01 4.820E+02 2.376E+02 7.460E+02 7.494E+02 1.184E+07 14.6627 1.00000
  1.585E+09 1.585E+09 3.425E+00 2.967E+01 5.410E+02 2.716E+02 8.422E+02 8.456E+02 1.206E+07 14.8930 1.00000
  1.778E+09 1.778E+09 3.438E+00 3.338E+01 6.071E+02 3.104E+02 9.509E+02 9.543E+02 1.227E+07 15.1233 1.00000
  1.995E+09 1.995E+09 3.452E+00 3.754E+01 6.813E+02 3.548E+02 1.074E+03 1.077E+03 1.249E+07 15.3535 1.00000
  2.239E+09 2.239E+09 3.465E+00 4.222E+01 7.646E+02 4.057E+02 1.212E+03 1.216E+03 1.270E+07 15.5838 1.00000
  2.512E+09 2.512E+09 3.479E+00 4.748E+01 8.580E+02 4.638E+02 1.369E+03 1.373E+03 1.291E+07 15.8140 1.00000
  2.818E+09 2.818E+09 3.493E+00 5.339E+01 9.628E+02 5.302E+02 1.546E+03 1.550E+03 1.312E+07 16.0443 1.00000
  3.162E+09 3.162E+09 3.507E+00 6.002E+01 1.080E+03 6.063E+02 1.747E+03 1.750E+03 1.333E+07 16.2746 1.00000
  3.548E+09 3.548E+09 3.520E+00 6.747E+01 1.212E+03 6.932E+02 1.973E+03 1.977E+03 1.354E+07 16.5048 1.00000
  3.981E+09 3.981E+09 3.534E+00 7.583E+01 1.361E+03 7.927E+02 2.229E+03 2.233E+03 1.375E+07 16.7351 1.00000
  4.467E+09 4.467E+09 3.548E+00 8.522E+01 1.527E+03 9.065E+02 2.518E+03 2.522E+03 1.395E+07 16.9653 1.00000
  5.012E+09 5.012E+09 3.562E+00 9.577E+01 1.713E+03 1.037E+03 2.846E+03 2.849E+03 1.415E+07 17.1956 1.00000
  5.623E+09 5.623E+09 3.576E+00 1.076E+02 1.922E+03 1.186E+03 3.215E+03 3.219E+03 1.436E+07 17.4258 1.00000
  6.310E+09 6.310E+09 3.591E+00 1.209E+02 2.157E+03 1.356E+03 3.634E+03 3.637E+03 1.456E+07 17.6561 1.00000
  7.079E+09 7.079E+09 3.605E+00 1.358E+02 2.420E+03 1.551E+03 4.107E+03 4.111E+03 1.476E+07 17.8864 1.00000
  7.943E+09 7.943E+09 3.619E+00 1.526E+02 2.716E+03 1.774E+03 4.642E+03 4.646E+03 1.495E+07 18.1166 1.00000
  8.913E+09 8.913E+09 3.634E+00 1.713E+02 3.047E+03 2.030E+03 5.248E+03 5.252E+03 1.515E+07 18.3469 1.00000
  1.000E+10 1.000E+10 3.648E+00 1.924E+02 3.419E+03 2.322E+03 5.933E+03 5.937E+03 1.535E+07 18.5771 1.00000
  1.122E+10 1.122E+10 3.663E+00 2.161E+02 3.836E+03 2.656E+03 6.709E+03 6.713E+03 1.554E+07 18.8074 1.00000
  1.259E+10 1.259E+10 3.678E+00 2.427E+02 4.305E+03 3.039E+03 7.586E+03 7.590E+03 1.573E+07 19.0377 1.00000
  1.413E+10 1.413E+10 3.692E+00 2.725E+02 4.830E+03 3.477E+03 8.580E+03 8.583E+03 1.592E+07 19.2679 1.00000
  1.585E+10 1.585E+10 3.707E+00 3.060E+02 5.419E+03 3.979E+03 9.704E+03 9.708E+03 1.611E+07 19.4982 1.00000
  1.778E+10 1.778E+10 3.722E+00 3.436E+02 6.081E+03 4.553E+03 1.098E+04 1.098E+04 1.630E+07 19.7284 1.00000
  1.995E+10 1.995E+10 3.737E+00 3.857E+02 6.823E+03 5.210E+03 1.242E+04 1.242E+04 1.649E+07 19.9587 1.00000
  2.239E+10 2.239E+10 3.752E+00 4.330E+02 7.655E+03 5.962E+03 1.405E+04 1.405E+04 1.667E+07 20.1890 1.00000
  2.512E+10 2.512E+10 3.768E+00 4.861E+02 8.589E+03 6.824E+03 1.590E+04 1.590E+04 1.685E+07 20.4192 1.00000
  2.818E+10 2.818E+10 3.783E+00 5.457E+02 9.638E+03 7.810E+03 1.799E+04 1.800E+04 1.703E+07 20.6495 1.00000
  3.162E+10 3.162E+10 3.798E+00 6.126E+02 1.081E+04 8.939E+03 2.037E+04 2.037E+04 1.721E+07 20.8797 1.00000
  3.548E+10 3.548E+10 3.814E+00 6.876E+02 1.213E+04 1.023E+04 2.305E+04 2.306E+04 1.739E+07 21.1100 1.00000
  3.981E+10 3.981E+10 3.829E+00 7.718E+02 1.361E+04 1.171E+04 2.610E+04 2.610E+04 1.757E+07 21.3402 1.00000
  4.467E+10 4.467E+10 3.845E+00 8.663E+02 1.527E+04 1.341E+04 2.955E+04 2.955E+04 1.775E+07 21.5705 1.00000
  5.012E+10 5.012E+10 3.861E+00 9.723E+02 1.714E+04 1.535E+04 3.346E+04 3.346E+04 1.792E+07 21.8008 1.00000
  5.623E+10 5.623E+10 3.877E+00 1.091E+03 1.923E+04 1.757E+04 3.789E+04 3.790E+04 1.809E+07 22.0310 1.00000
  6.310E+10 6.310E+10 3.893E+00 1.225E+03 2.157E+04 2.012E+04 4.292E+04 4.292E+04 1.826E+07 22.2613 1.00000
  7.079E+10 7.079E+10 3.909E+00 1.375E+03 2.421E+04 2.304E+04 4.862E+04 4.862E+04 1.843E+07 22.4915 1.00000
  7.943E+10 7.943E+10 3.925E+00 1.543E+03 2.716E+04 2.638E+04 5.508E+04 5.509E+04 1.860E+07 22.7218 1.00000
  8.913E+10 8.913E+10 3.941E+00 1.731E+03 3.047E+04 3.021E+04 6.241E+04 6.242E+04 1.876E+07 22.9521 1.00000
  1.000E+11 1.000E+11 3.957E+00 1.943E+03 3.419E+04 3.460E+04 7.073E+04 7.073E+04 1.893E+07 23.1823 1.00000
  1.122E+11 1.122E+11 3.973E+00 2.180E+03 3.836E+04 3.962E+04 8.016E+04 8.017E+04 1.909E+07 23.4126 1.00000
  1.259E+11 1.259E+11 3.990E+00 2.447E+03 4.304E+04 4.538E+04 9.087E+04 9.087E+04 1.925E+07 23.6428 1.00000
  1.413E+11 1.413E+11 4.006E+00 2.746E+03 4.829E+04 5.198E+04 1.030E+05 1.030E+05 1.941E+07 23.8731 1.00000
  1.585E+11 1.585E+11 4.023E+00 3.081E+03 5.418E+04 5.953E+04 1.168E+05 1.168E+05 1.957E+07 24.1033 1.00000
  1.778E+11 1.778E+11 4.040E+00 3.457E+03 6.079E+04 6.819E+04 1.324E+05 1.324E+05 1.972E+07 24.3336 1.00000
  1.995E+11 1.995E+11 4.057E+00 3.880E+03 6.821E+04 7.812E+04 1.502E+05 1.502E+05 1.988E+07 24.5639 1.00000
  2.239E+11 2.239E+11 4.074E+00 4.354E+03 7.653E+04 8.949E+04 1.704E+05 1.704E+05 2.003E+07 24.7941 1.00000
  2.512E+11 2.512E+11 4.091E+00 4.885E+03 8.587E+04 1.025E+05 1.933E+05 1.933E+05 2.018E+07 25.0244 1.00000
  2.818E+11 2.818E+11 4.108E+00 5.482E+03 9.634E+04 1.175E+05 2.193E+05 2.193E+05 2.033E+07 25.2546 1.00000
  3.162E+11 3.162E+11 4.125E+00 6.151E+03 1.081E+05 1.346E+05 2.488E+05 2.488E+05 2.048E+07 25.4849 1.00000
  3.548E+11 3.548E+11 4.142E+00 6.902E+03 1.213E+05 1.542E+05 2.824E+05 2.824E+05 2.062E+07 25.7152 1.00000
  3.981E+11 3.981E+11 4.160E+00 7.745E+03 1.361E+05 1.767E+05 3.205E+05 3.205E+05 2.077E+07 25.9454 1.00000
  4.467E+11 4.467E+11 4.177E+00 8.690E+03 1.527E+05 2.025E+05 3.639E+05 3.639E+05 2.091E+07 26.1757 1.00000
  5.012E+11 5.012E+11 4.195E+00 9.751E+03 1.713E+05 2.321E+05 4.131E+05 4.131E+05 2.105E+07 26.4059 1.00000
  5.623E+11 5.623E+11 4.213E+00 1.094E+04 1.922E+05 2.660E+05 4.691E+05 4.691E+05 2.119E+07 26.6362 1.00000
  6.310E+11 6.310E+11 4.230E+00 1.228E+04 2.156E+05 3.049E+05 5.328E+05 5.328E+05 2.133E+07 26.8664 1.00000
  7.079E+11 7.079E+11 4.248E+00 1.378E+04 2.419E+05 3.494E+05 6.051E+05 6.051E+05 2.146E+07 27.0967 1.00000
  7.943E+11 7.943E+11 4.266E+00 1.546E+04 2.714E+05 4.005E+05 6.874E+05 6.874E+05 2.160E+07 27.3270 1.00000
  8.913E+11 8.913E+11 4.284E+00 1.734E+04 3.046E+05 4.591E+05 7.810E+05 7.810E+05 2.173E+07 27.5572 1.00000
  1.000E+12 1.000E+12 4.303E+00 1.946E+04 3.417E+05 5.264E+05 8.875E+05 8.875E+05 2.186E+07 27.7875 1.00000
  1.122E+12 1.122E+12 4.321E+00 2.184E+04 3.834E+05 6.034E+05 1.009E+06 1.009E+06 2.199E+07 28.0177 1.00000
  1.259E+12 1.259E+12 4.339E+00 2.450E+04 4.301E+05 6.918E+05 1.146E+06 1.146E+06 2.212E+07 28.2480 1.00000
  1.413E+12 1.413E+12 4.358E+00 2.749E+04 4.826E+05 7.932E+05 1.303E+06 1.303E+06 2.224E+07 28.4783 1.00000
  1.585E+12 1.585E+12 4.376E+00 3.084E+04 5.415E+05 9.095E+05 1.482E+06 1.482E+06 2.237E+07 28.7085 1.00000
  1.778E+12 1.778E+12 4.395E+00 3.461E+04 6.075E+05 1.043E+06 1.685E+06 1.685E+06 2.249E+07 28.9388 1.00000
  1.995E+12 1.995E+12 4.414E+00 3.883E+04 6.816E+05 1.196E+06 1.916E+06 1.916E+06 2.261E+07 29.1690 1.00000
  2.239E+12 2.239E+12 4.433E+00 4.357E+04 7.648E+05 1.371E+06 2.180E+06 2.180E+06 2.273E+07 29.3993 1.00000
  2.512E+12 2.512E+12 4.452E+00 4.889E+04 8.580E+05 1.573E+06 2.480E+06 2.480E+06 2.285E+07 29.6295 1.00000
  2.818E+12 2.818E+12 4.471E+00 5.485E+04 9.627E+05 1.804E+06 2.821E+06 2.821E+06 2.296E+07 29.8598 1.00000
  3.162E+12 3.162E+12 4.490E+00 6.155E+04 1.080E+06 2.069E+06 3.211E+06 3.211E+06 2.308E+07 30.0901 1.00000
  3.548E+12 3.548E+12 4.510E+00 6.906E+04 1.212E+06 2.373E+06 3.654E+06 3.654E+06 2.319E+07 30.3203 1.00000
  3.981E+12 3.981E+12 4.529E+00 7.749E+04 1.360E+06 2.722E+06 4.159E+06 4.159E+06 2.330E+07 30.5506 1.00000
  4.467E+12 4.467E+12 4.549E+00 8.694E+04 1.526E+06 3.122E+06 4.735E+06 4.735E+06 2.341E+07 30.7808 1.00000
  5.012E+12 5.012E+12 4.568E+00 9.755E+04 1.712E+06 3.582E+06 5.391E+06 5.391E+06 2.352E+07 31.0111 1.00000
  5.623E+12 5.623E+12 4.588E+00 1.095E+05 1.920E+06 4.109E+06 6.139E+06 6.139E+06 2.363E+07 31.2414 1.00000
  6.310E+12 6.310E+12 4.608E+00 1.228E+05 2.155E+06 4.715E+06 6.992E+06 6.992E+06 2.373E+07 31.4716 1.00000
  7.079E+12 7.079E+12 4.628E+00 1.378E+05 2.417E+06 5.409E+06 7.965E+06 7.965E+06 2.384E+07 31.7019 1.00000
  7.943E+12 7.943E+12 4.648E+00 1.546E+05 2.712E+06 6.207E+06 9.074E+06 9.074E+06 2.394E+07 31.9321 1.00000
  8.913E+12 8.913E+12 4.668E+00 1.735E+05 3.043E+06 7.122E+06 1.034E+07 1.034E+07 2.404E+07 32.1624 1.00000
  1.000E+13 1.000E+13 4.688E+00 1.946E+05 3.414E+06 8.173E+06 1.178E+07 1.178E+07 2.414E+07 32.3927 1.00000
  1.122E+13 1.122E+13 4.709E+00 2.184E+05 3.830E+06 9.379E+06 1.343E+07 1.343E+07 2.423E+07 32.6229 1.00000
  1.259E+13 1.259E+13 4.729E+00 2.450E+05 4.298E+06 1.076E+07 1.531E+07 1.531E+07 2.433E+07 32.8532 1.00000
  1.413E+13 1.413E+13 4.750E+00 2.749E+05 4.822E+06 1.235E+07 1.745E+07 1.745E+07 2.442E+07 33.0834 1.00000
  1.585E+13 1.585E+13 4.771E+00 3.085E+05 5.410E+06 1.418E+07 1.990E+07 1.990E+07 2.452E+07 33.3137 1.00000
  1.778E+13 1.778E+13 4.792E+00 3.461E+05 6.070E+06 1.627E+07 2.269E+07 2.269E+07 2.461E+07 33.5439 1.00000
  1.995E+13 1.995E+13 4.813E+00 3.884E+05 6.810E+06 1.868E+07 2.588E+07 2.588E+07 2.470E+07 33.7742 1.00000
  2.239E+13 2.239E+13 4.834E+00 4.358E+05 7.640E+06 2.144E+07 2.952E+07 2.952E+07 2.479E+07 34.0045 1.00000
  2.512E+13 2.512E+13 4.855E+00 4.889E+05 8.572E+06 2.462E+07 3.368E+07 3.368E+07 2.487E+07 34.2347 1.00000
  2.818E+13 2.818E+13 4.876E+00 5.486E+05 9.618E+06 2.826E+07 3.842E+07 3.842E+07 2.496E+07 34.4650 1.00000
  3.162E+13 3.162E+13 4.898E+00 6.155E+05 1.079E+07 3.244E+07 4.385E+07 4.385E+07 2.504E+07 34.6952 1.00000
  3.548E+13 3.548E+13 4.919E+00 6.906E+05 1.211E+07 3.725E+07 5.005E+07 5.005E+07 2.512E+07 34.9255 1.00000
  3.981E+13 3.981E+13 4.941E+00 7.749E+05 1.358E+07 4.277E+07 5.713E+07 5.713E+07 2.521E+07 35.1558 1.00000
  4.467E+13 4.467E+13 4.963E+00 8.694E+05 1.524E+07 4.911E+07 6.522E+07 6.522E+07 2.528E+07 35.3860 1.00000
  5.012E+13 5.012E+13 4.985E+00 9.755E+05 1.710E+07 5.639E+07 7.446E+07 7.446E+07 2.536E+07 35.6163 1.00000
  5.623E+13 5.623E+13 5.007E+00 1.095E+06 1.918E+07 6.476E+07 8.503E+07 8.503E+07 2.544E+07 35.8465 1.00000
  6.310E+13 6.310E+13 5.029E+00 1.228E+06 2.152E+07 7.436E+07 9.712E+07 9.712E+07 2.552E+07 36.0768 1.00000
  7.079E+13 7.079E+13 5.051E+00 1.378E+06 2.415E+07 8.540E+07 1.109E+08 1.109E+08 2.559E+07 36.3070 1.00000
  7.943E+13 7.943E+13 5.074E+00 1.546E+06 2.709E+07 9.809E+07 1.267E+08 1.267E+08 2.566E+07 36.5373 1.00000
  8.913E+13 8.913E+13 5.096E+00 1.735E+06 3.040E+07 1.127E+08 1.448E+08 1.448E+08 2.574E+07 36.7676 1.00000
