 Incident particle is a Tau with M = 1776.82000 MeV
 Index = 0: LanthanumFluoride
      Absorber with <Z/A> = 0.42879
 Sternheimer coef:  a     k=m_s   x_0    x_1    I[eV]   Cbar  delta0
                 0.1852  3.0000  0.2000  3.0000  336.3  4.9860 0.00

 *** Table generated with PUMAS v1.00 ***

      T         p     Ionization  brems     pair     photonuc  Radloss    dE/dx   CSDA Range  delta   beta
    [MeV]    [MeV/c]  -----------------------[MeV cm^2/g]------------------------  [g/cm^2]
  1.000E+05 1.018E+05 1.771E+00 5.991E-04 1.032E-02 7.817E-03 1.874E-02 1.790E+00 2.793E+04  3.4645 0.99985
  1.122E+05 1.140E+05 1.789E+00 6.942E-04 1.237E-02 8.792E-03 2.185E-02 1.811E+00 3.471E+04  3.6505 0.99988
  1.259E+05 1.277E+05 1.807E+00 8.039E-04 1.477E-02 9.838E-03 2.541E-02 1.833E+00 4.222E+04  3.8400 0.99990
  1.413E+05 1.430E+05 1.825E+00 9.304E-04 1.760E-02 1.101E-02 2.954E-02 1.855E+00 5.055E+04  4.0330 0.99992
  1.585E+05 1.603E+05 1.843E+00 1.076E-03 2.091E-02 1.232E-02 3.430E-02 1.877E+00 5.979E+04  4.2291 0.99994
  1.778E+05 1.796E+05 1.860E+00 1.244E-03 2.479E-02 1.377E-02 3.980E-02 1.900E+00 7.003E+04  4.4284 0.99995
  1.995E+05 2.013E+05 1.877E+00 1.438E-03 2.931E-02 1.542E-02 4.617E-02 1.923E+00 8.138E+04  4.6306 0.99996
  2.239E+05 2.256E+05 1.894E+00 1.660E-03 3.458E-02 1.722E-02 5.346E-02 1.948E+00 9.396E+04  4.8356 0.99997
  2.512E+05 2.530E+05 1.911E+00 1.916E-03 4.070E-02 1.923E-02 6.185E-02 1.973E+00 1.079E+05  5.0432 0.99998
  2.818E+05 2.836E+05 1.928E+00 2.211E-03 4.781E-02 2.148E-02 7.150E-02 2.000E+00 1.233E+05  5.2533 0.99998
  3.162E+05 3.180E+05 1.945E+00 2.549E-03 5.605E-02 2.402E-02 8.262E-02 2.028E+00 1.404E+05  5.4657 0.99998
  3.548E+05 3.566E+05 1.961E+00 2.937E-03 6.557E-02 2.687E-02 9.538E-02 2.057E+00 1.593E+05  5.6803 0.99999
  3.981E+05 3.999E+05 1.978E+00 3.382E-03 7.657E-02 3.003E-02 1.100E-01 2.088E+00 1.802E+05  5.8970 0.99999
  4.467E+05 4.485E+05 1.994E+00 3.893E-03 8.926E-02 3.357E-02 1.267E-01 2.121E+00 2.033E+05  6.1156 0.99999
  5.012E+05 5.030E+05 2.010E+00 4.479E-03 1.039E-01 3.754E-02 1.459E-01 2.156E+00 2.288E+05  6.3359 0.99999
  5.623E+05 5.641E+05 2.026E+00 5.151E-03 1.207E-01 4.183E-02 1.676E-01 2.194E+00 2.569E+05  6.5578 1.00000
  6.310E+05 6.327E+05 2.042E+00 5.921E-03 1.399E-01 4.665E-02 1.925E-01 2.235E+00 2.879E+05  6.7811 1.00000
  7.079E+05 7.097E+05 2.058E+00 6.802E-03 1.621E-01 5.208E-02 2.209E-01 2.279E+00 3.220E+05  7.0058 1.00000
  7.943E+05 7.961E+05 2.073E+00 7.811E-03 1.874E-01 5.820E-02 2.534E-01 2.327E+00 3.595E+05  7.2317 1.00000
  8.913E+05 8.930E+05 2.089E+00 8.965E-03 2.164E-01 6.511E-02 2.905E-01 2.379E+00 4.007E+05  7.4585 1.00000
  1.000E+06 1.002E+06 2.104E+00 1.029E-02 2.495E-01 7.291E-02 3.327E-01 2.437E+00 4.459E+05  7.6863 1.00000
  1.122E+06 1.124E+06 2.119E+00 1.179E-02 2.873E-01 8.172E-02 3.808E-01 2.500E+00 4.953E+05  7.9147 1.00000
  1.259E+06 1.261E+06 2.135E+00 1.352E-02 3.304E-01 9.169E-02 4.357E-01 2.570E+00 5.493E+05  8.1438 1.00000
  1.413E+06 1.414E+06 2.150E+00 1.549E-02 3.796E-01 1.030E-01 4.980E-01 2.648E+00 6.082E+05  8.3733 1.00000
  1.585E+06 1.587E+06 2.164E+00 1.774E-02 4.355E-01 1.158E-01 5.690E-01 2.733E+00 6.723E+05  8.6032 1.00000
  1.778E+06 1.780E+06 2.179E+00 2.031E-02 4.990E-01 1.302E-01 6.496E-01 2.829E+00 7.418E+05  8.8331 1.00000
  1.995E+06 1.997E+06 2.194E+00 2.325E-02 5.712E-01 1.467E-01 7.412E-01 2.935E+00 8.172E+05  9.0632 1.00000
  2.239E+06 2.240E+06 2.208E+00 2.659E-02 6.532E-01 1.653E-01 8.451E-01 3.053E+00 8.985E+05  9.2933 1.00000
  2.512E+06 2.514E+06 2.223E+00 3.041E-02 7.461E-01 1.865E-01 9.630E-01 3.186E+00 9.861E+05  9.5233 1.00000
  2.818E+06 2.820E+06 2.237E+00 3.477E-02 8.515E-01 2.105E-01 1.097E+00 3.334E+00 1.080E+06  9.7534 1.00000
  3.162E+06 3.164E+06 2.251E+00 3.973E-02 9.707E-01 2.378E-01 1.248E+00 3.500E+00 1.181E+06  9.9836 1.00000
  3.548E+06 3.550E+06 2.265E+00 4.538E-02 1.106E+00 2.689E-01 1.420E+00 3.685E+00 1.288E+06 10.2137 1.00000
  3.981E+06 3.983E+06 2.279E+00 5.182E-02 1.258E+00 3.042E-01 1.614E+00 3.894E+00 1.403E+06 10.4439 1.00000
  4.467E+06 4.469E+06 2.293E+00 5.915E-02 1.431E+00 3.444E-01 1.834E+00 4.127E+00 1.524E+06 10.6740 1.00000
  5.012E+06 5.014E+06 2.307E+00 6.750E-02 1.626E+00 3.901E-01 2.083E+00 4.390E+00 1.652E+06 10.9042 1.00000
  5.623E+06 5.625E+06 2.320E+00 7.699E-02 1.846E+00 4.422E-01 2.365E+00 4.685E+00 1.787E+06 11.1344 1.00000
  6.310E+06 6.311E+06 2.333E+00 8.780E-02 2.094E+00 5.015E-01 2.683E+00 5.017E+00 1.929E+06 11.3646 1.00000
  7.079E+06 7.081E+06 2.347E+00 1.001E-01 2.374E+00 5.690E-01 3.043E+00 5.390E+00 2.077E+06 11.5948 1.00000
  7.943E+06 7.945E+06 2.360E+00 1.140E-01 2.690E+00 6.458E-01 3.450E+00 5.810E+00 2.231E+06 11.8250 1.00000
  8.913E+06 8.914E+06 2.373E+00 1.299E-01 3.046E+00 7.335E-01 3.909E+00 6.282E+00 2.392E+06 12.0552 1.00000
  1.000E+07 1.000E+07 2.385E+00 1.480E-01 3.447E+00 8.333E-01 4.428E+00 6.814E+00 2.558E+06 12.2854 1.00000
  1.122E+07 1.122E+07 2.398E+00 1.684E-01 3.899E+00 9.471E-01 5.014E+00 7.412E+00 2.730E+06 12.5156 1.00000
  1.259E+07 1.259E+07 2.411E+00 1.917E-01 4.407E+00 1.077E+00 5.676E+00 8.086E+00 2.907E+06 12.7458 1.00000
  1.413E+07 1.413E+07 2.423E+00 2.181E-01 4.979E+00 1.225E+00 6.422E+00 8.845E+00 3.089E+06 12.9761 1.00000
  1.585E+07 1.585E+07 2.436E+00 2.480E-01 5.623E+00 1.393E+00 7.265E+00 9.700E+00 3.275E+06 13.2063 1.00000
  1.778E+07 1.778E+07 2.448E+00 2.820E-01 6.348E+00 1.586E+00 8.215E+00 1.066E+01 3.465E+06 13.4365 1.00000
  1.995E+07 1.995E+07 2.460E+00 3.205E-01 7.162E+00 1.805E+00 9.288E+00 1.175E+01 3.659E+06 13.6668 1.00000
  2.239E+07 2.239E+07 2.472E+00 3.642E-01 8.078E+00 2.055E+00 1.050E+01 1.297E+01 3.857E+06 13.8970 1.00000
  2.512E+07 2.512E+07 2.484E+00 4.136E-01 9.108E+00 2.341E+00 1.186E+01 1.435E+01 4.057E+06 14.1272 1.00000
  2.818E+07 2.819E+07 2.497E+00 4.697E-01 1.027E+01 2.667E+00 1.340E+01 1.590E+01 4.261E+06 14.3575 1.00000
  3.162E+07 3.162E+07 2.509E+00 5.332E-01 1.157E+01 3.038E+00 1.514E+01 1.765E+01 4.466E+06 14.5877 1.00000
  3.548E+07 3.548E+07 2.521E+00 6.050E-01 1.303E+01 3.463E+00 1.710E+01 1.962E+01 4.674E+06 14.8180 1.00000
  3.981E+07 3.981E+07 2.532E+00 6.863E-01 1.467E+01 3.947E+00 1.930E+01 2.184E+01 4.883E+06 15.0482 1.00000
  4.467E+07 4.467E+07 2.544E+00 7.784E-01 1.652E+01 4.499E+00 2.179E+01 2.434E+01 5.094E+06 15.2785 1.00000
  5.012E+07 5.012E+07 2.556E+00 8.824E-01 1.859E+01 5.130E+00 2.460E+01 2.716E+01 5.307E+06 15.5087 1.00000
  5.623E+07 5.624E+07 2.568E+00 1.000E+00 2.092E+01 5.850E+00 2.777E+01 3.033E+01 5.520E+06 15.7390 1.00000
  6.310E+07 6.310E+07 2.580E+00 1.133E+00 2.353E+01 6.672E+00 3.134E+01 3.392E+01 5.734E+06 15.9692 1.00000
  7.079E+07 7.080E+07 2.592E+00 1.283E+00 2.647E+01 7.611E+00 3.536E+01 3.795E+01 5.949E+06 16.1995 1.00000
  7.943E+07 7.943E+07 2.604E+00 1.453E+00 2.976E+01 8.683E+00 3.990E+01 4.250E+01 6.165E+06 16.4297 1.00000
  8.913E+07 8.913E+07 2.616E+00 1.645E+00 3.346E+01 9.906E+00 4.501E+01 4.763E+01 6.381E+06 16.6600 1.00000
  1.000E+08 1.000E+08 2.628E+00 1.862E+00 3.762E+01 1.130E+01 5.078E+01 5.341E+01 6.596E+06 16.8902 1.00000
  1.122E+08 1.122E+08 2.640E+00 2.106E+00 4.228E+01 1.290E+01 5.729E+01 5.993E+01 6.813E+06 17.1205 1.00000
  1.259E+08 1.259E+08 2.652E+00 2.382E+00 4.752E+01 1.472E+01 6.462E+01 6.727E+01 7.028E+06 17.3507 1.00000
  1.413E+08 1.413E+08 2.664E+00 2.693E+00 5.340E+01 1.680E+01 7.289E+01 7.556E+01 7.244E+06 17.5810 1.00000
  1.585E+08 1.585E+08 2.676E+00 3.044E+00 5.999E+01 1.918E+01 8.222E+01 8.490E+01 7.460E+06 17.8113 1.00000
  1.778E+08 1.778E+08 2.688E+00 3.439E+00 6.740E+01 2.190E+01 9.274E+01 9.542E+01 7.675E+06 18.0415 1.00000
  1.995E+08 1.995E+08 2.700E+00 3.885E+00 7.571E+01 2.500E+01 1.046E+02 1.073E+02 7.890E+06 18.2718 1.00000
  2.239E+08 2.239E+08 2.713E+00 4.388E+00 8.504E+01 2.855E+01 1.180E+02 1.207E+02 8.104E+06 18.5020 1.00000
  2.512E+08 2.512E+08 2.725E+00 4.954E+00 9.551E+01 3.260E+01 1.331E+02 1.358E+02 8.318E+06 18.7323 1.00000
  2.818E+08 2.818E+08 2.737E+00 5.592E+00 1.073E+02 3.722E+01 1.501E+02 1.528E+02 8.531E+06 18.9625 1.00000
  3.162E+08 3.162E+08 2.750E+00 6.311E+00 1.204E+02 4.251E+01 1.693E+02 1.720E+02 8.744E+06 19.1928 1.00000
  3.548E+08 3.548E+08 2.762E+00 7.119E+00 1.352E+02 4.855E+01 1.909E+02 1.937E+02 8.955E+06 19.4231 1.00000
  3.981E+08 3.981E+08 2.774E+00 8.030E+00 1.518E+02 5.545E+01 2.153E+02 2.181E+02 9.166E+06 19.6533 1.00000
  4.467E+08 4.467E+08 2.787E+00 9.055E+00 1.705E+02 6.334E+01 2.429E+02 2.457E+02 9.377E+06 19.8836 1.00000
  5.012E+08 5.012E+08 2.800E+00 1.021E+01 1.914E+02 7.236E+01 2.740E+02 2.768E+02 9.586E+06 20.1138 1.00000
  5.623E+08 5.623E+08 2.812E+00 1.150E+01 2.149E+02 8.266E+01 3.090E+02 3.118E+02 9.795E+06 20.3441 1.00000
  6.310E+08 6.310E+08 2.825E+00 1.296E+01 2.412E+02 9.444E+01 3.486E+02 3.514E+02 1.000E+07 20.5743 1.00000
  7.079E+08 7.079E+08 2.838E+00 1.460E+01 2.707E+02 1.079E+02 3.932E+02 3.961E+02 1.021E+07 20.8046 1.00000
  7.943E+08 7.943E+08 2.851E+00 1.645E+01 3.039E+02 1.233E+02 4.436E+02 4.465E+02 1.041E+07 21.0349 1.00000
  8.913E+08 8.913E+08 2.864E+00 1.853E+01 3.411E+02 1.409E+02 5.005E+02 5.034E+02 1.062E+07 21.2651 1.00000
  1.000E+09 1.000E+09 2.877E+00 2.086E+01 3.828E+02 1.610E+02 5.647E+02 5.676E+02 1.082E+07 21.4954 1.00000
  1.122E+09 1.122E+09 2.890E+00 2.348E+01 4.297E+02 1.840E+02 6.372E+02 6.400E+02 1.103E+07 21.7256 1.00000
  1.259E+09 1.259E+09 2.903E+00 2.643E+01 4.822E+02 2.103E+02 7.190E+02 7.219E+02 1.123E+07 21.9559 1.00000
  1.413E+09 1.413E+09 2.916E+00 2.974E+01 5.412E+02 2.403E+02 8.113E+02 8.142E+02 1.143E+07 22.1861 1.00000
  1.585E+09 1.585E+09 2.929E+00 3.346E+01 6.074E+02 2.747E+02 9.156E+02 9.185E+02 1.163E+07 22.4164 1.00000
  1.778E+09 1.778E+09 2.943E+00 3.764E+01 6.816E+02 3.140E+02 1.033E+03 1.036E+03 1.183E+07 22.6467 1.00000
  1.995E+09 1.995E+09 2.956E+00 4.233E+01 7.650E+02 3.590E+02 1.166E+03 1.169E+03 1.202E+07 22.8769 1.00000
  2.239E+09 2.239E+09 2.970E+00 4.760E+01 8.584E+02 4.104E+02 1.316E+03 1.319E+03 1.222E+07 23.1072 1.00000
  2.512E+09 2.512E+09 2.983E+00 5.353E+01 9.633E+02 4.691E+02 1.486E+03 1.489E+03 1.242E+07 23.3374 1.00000
  2.818E+09 2.818E+09 2.997E+00 6.018E+01 1.081E+03 5.364E+02 1.678E+03 1.681E+03 1.261E+07 23.5677 1.00000
  3.162E+09 3.162E+09 3.011E+00 6.765E+01 1.213E+03 6.133E+02 1.894E+03 1.897E+03 1.280E+07 23.7980 1.00000
  3.548E+09 3.548E+09 3.024E+00 7.604E+01 1.361E+03 7.013E+02 2.139E+03 2.142E+03 1.299E+07 24.0282 1.00000
  3.981E+09 3.981E+09 3.038E+00 8.545E+01 1.527E+03 8.019E+02 2.415E+03 2.418E+03 1.319E+07 24.2585 1.00000
  4.467E+09 4.467E+09 3.052E+00 9.603E+01 1.714E+03 9.170E+02 2.727E+03 2.730E+03 1.337E+07 24.4887 1.00000
  5.012E+09 5.012E+09 3.066E+00 1.079E+02 1.923E+03 1.049E+03 3.080E+03 3.083E+03 1.356E+07 24.7190 1.00000
  5.623E+09 5.623E+09 3.080E+00 1.212E+02 2.158E+03 1.199E+03 3.479E+03 3.482E+03 1.375E+07 24.9492 1.00000
  6.310E+09 6.310E+09 3.095E+00 1.362E+02 2.422E+03 1.372E+03 3.930E+03 3.933E+03 1.394E+07 25.1795 1.00000
  7.079E+09 7.079E+09 3.109E+00 1.530E+02 2.717E+03 1.569E+03 4.439E+03 4.442E+03 1.412E+07 25.4098 1.00000
  7.943E+09 7.943E+09 3.123E+00 1.718E+02 3.049E+03 1.795E+03 5.016E+03 5.019E+03 1.430E+07 25.6400 1.00000
  8.913E+09 8.913E+09 3.138E+00 1.930E+02 3.421E+03 2.053E+03 5.667E+03 5.670E+03 1.449E+07 25.8703 1.00000
  1.000E+10 1.000E+10 3.152E+00 2.167E+02 3.839E+03 2.349E+03 6.404E+03 6.407E+03 1.467E+07 26.1005 1.00000
  1.122E+10 1.122E+10 3.167E+00 2.434E+02 4.307E+03 2.687E+03 7.238E+03 7.241E+03 1.485E+07 26.3308 1.00000
  1.259E+10 1.259E+10 3.181E+00 2.733E+02 4.833E+03 3.074E+03 8.180E+03 8.184E+03 1.502E+07 26.5611 1.00000
  1.413E+10 1.413E+10 3.196E+00 3.069E+02 5.423E+03 3.518E+03 9.247E+03 9.250E+03 1.520E+07 26.7913 1.00000
  1.585E+10 1.585E+10 3.211E+00 3.446E+02 6.084E+03 4.025E+03 1.045E+04 1.046E+04 1.538E+07 27.0216 1.00000
  1.778E+10 1.778E+10 3.226E+00 3.869E+02 6.827E+03 4.606E+03 1.182E+04 1.182E+04 1.555E+07 27.2518 1.00000
  1.995E+10 1.995E+10 3.241E+00 4.343E+02 7.660E+03 5.270E+03 1.336E+04 1.337E+04 1.572E+07 27.4821 1.00000
  2.239E+10 2.239E+10 3.256E+00 4.876E+02 8.594E+03 6.032E+03 1.511E+04 1.512E+04 1.590E+07 27.7124 1.00000
  2.512E+10 2.512E+10 3.271E+00 5.474E+02 9.643E+03 6.903E+03 1.709E+04 1.710E+04 1.607E+07 27.9426 1.00000
  2.818E+10 2.818E+10 3.286E+00 6.144E+02 1.082E+04 7.901E+03 1.933E+04 1.934E+04 1.623E+07 28.1729 1.00000
  3.162E+10 3.162E+10 3.302E+00 6.897E+02 1.214E+04 9.043E+03 2.187E+04 2.188E+04 1.640E+07 28.4031 1.00000
  3.548E+10 3.548E+10 3.317E+00 7.742E+02 1.362E+04 1.035E+04 2.475E+04 2.475E+04 1.657E+07 28.6334 1.00000
  3.981E+10 3.981E+10 3.333E+00 8.689E+02 1.528E+04 1.185E+04 2.800E+04 2.800E+04 1.673E+07 28.8636 1.00000
  4.467E+10 4.467E+10 3.348E+00 9.753E+02 1.715E+04 1.356E+04 3.169E+04 3.169E+04 1.690E+07 29.0939 1.00000
  5.012E+10 5.012E+10 3.364E+00 1.095E+03 1.924E+04 1.553E+04 3.586E+04 3.587E+04 1.706E+07 29.3242 1.00000
  5.623E+10 5.623E+10 3.380E+00 1.229E+03 2.159E+04 1.778E+04 4.059E+04 4.060E+04 1.722E+07 29.5544 1.00000
  6.310E+10 6.310E+10 3.396E+00 1.379E+03 2.422E+04 2.036E+04 4.595E+04 4.596E+04 1.738E+07 29.7847 1.00000
  7.079E+10 7.079E+10 3.412E+00 1.547E+03 2.718E+04 2.331E+04 5.203E+04 5.203E+04 1.754E+07 30.0149 1.00000
  7.943E+10 7.943E+10 3.428E+00 1.737E+03 3.049E+04 2.669E+04 5.892E+04 5.892E+04 1.769E+07 30.2452 1.00000
  8.913E+10 8.913E+10 3.444E+00 1.949E+03 3.421E+04 3.056E+04 6.672E+04 6.672E+04 1.785E+07 30.4755 1.00000
  1.000E+11 1.000E+11 3.460E+00 2.187E+03 3.838E+04 3.500E+04 7.557E+04 7.557E+04 1.800E+07 30.7057 1.00000
  1.122E+11 1.122E+11 3.477E+00 2.454E+03 4.307E+04 4.008E+04 8.560E+04 8.561E+04 1.815E+07 30.9360 1.00000
  1.259E+11 1.259E+11 3.493E+00 2.754E+03 4.832E+04 4.591E+04 9.698E+04 9.698E+04 1.830E+07 31.1662 1.00000
  1.413E+11 1.413E+11 3.510E+00 3.091E+03 5.422E+04 5.258E+04 1.099E+05 1.099E+05 1.845E+07 31.3965 1.00000
  1.585E+11 1.585E+11 3.526E+00 3.468E+03 6.083E+04 6.022E+04 1.245E+05 1.245E+05 1.860E+07 31.6267 1.00000
  1.778E+11 1.778E+11 3.543E+00 3.892E+03 6.825E+04 6.899E+04 1.411E+05 1.411E+05 1.875E+07 31.8570 1.00000
  1.995E+11 1.995E+11 3.560E+00 4.367E+03 7.658E+04 7.903E+04 1.600E+05 1.600E+05 1.889E+07 32.0873 1.00000
  2.239E+11 2.239E+11 3.577E+00 4.900E+03 8.592E+04 9.053E+04 1.814E+05 1.814E+05 1.903E+07 32.3175 1.00000
  2.512E+11 2.512E+11 3.594E+00 5.499E+03 9.640E+04 1.037E+05 2.056E+05 2.056E+05 1.918E+07 32.5478 1.00000
  2.818E+11 2.818E+11 3.611E+00 6.170E+03 1.082E+05 1.188E+05 2.332E+05 2.332E+05 1.932E+07 32.7780 1.00000
  3.162E+11 3.162E+11 3.628E+00 6.924E+03 1.214E+05 1.362E+05 2.644E+05 2.644E+05 1.945E+07 33.0083 1.00000
  3.548E+11 3.548E+11 3.645E+00 7.769E+03 1.362E+05 1.560E+05 2.999E+05 2.999E+05 1.959E+07 33.2386 1.00000
  3.981E+11 3.981E+11 3.663E+00 8.717E+03 1.528E+05 1.788E+05 3.403E+05 3.403E+05 1.973E+07 33.4688 1.00000
  4.467E+11 4.467E+11 3.680E+00 9.782E+03 1.714E+05 2.049E+05 3.860E+05 3.861E+05 1.986E+07 33.6991 1.00000
  5.012E+11 5.012E+11 3.698E+00 1.098E+04 1.923E+05 2.348E+05 4.381E+05 4.381E+05 1.999E+07 33.9293 1.00000
  5.623E+11 5.623E+11 3.715E+00 1.232E+04 2.158E+05 2.691E+05 4.972E+05 4.972E+05 2.013E+07 34.1596 1.00000
  6.310E+11 6.310E+11 3.733E+00 1.382E+04 2.421E+05 3.084E+05 5.643E+05 5.643E+05 2.026E+07 34.3898 1.00000
  7.079E+11 7.079E+11 3.751E+00 1.551E+04 2.716E+05 3.535E+05 6.406E+05 6.406E+05 2.038E+07 34.6201 1.00000
  7.943E+11 7.943E+11 3.769E+00 1.740E+04 3.047E+05 4.052E+05 7.273E+05 7.273E+05 2.051E+07 34.8504 1.00000
  8.913E+11 8.913E+11 3.787E+00 1.952E+04 3.419E+05 4.645E+05 8.259E+05 8.259E+05 2.064E+07 35.0806 1.00000
  1.000E+12 1.000E+12 3.805E+00 2.190E+04 3.836E+05 5.325E+05 9.380E+05 9.380E+05 2.076E+07 35.3109 1.00000
  1.122E+12 1.122E+12 3.823E+00 2.458E+04 4.304E+05 6.104E+05 1.065E+06 1.065E+06 2.088E+07 35.5411 1.00000
  1.259E+12 1.259E+12 3.842E+00 2.758E+04 4.829E+05 6.998E+05 1.210E+06 1.210E+06 2.100E+07 35.7714 1.00000
  1.413E+12 1.413E+12 3.860E+00 3.094E+04 5.418E+05 8.024E+05 1.375E+06 1.375E+06 2.112E+07 36.0017 1.00000
  1.585E+12 1.585E+12 3.879E+00 3.472E+04 6.079E+05 9.200E+05 1.563E+06 1.563E+06 2.124E+07 36.2319 1.00000
  1.778E+12 1.778E+12 3.897E+00 3.895E+04 6.820E+05 1.055E+06 1.776E+06 1.776E+06 2.136E+07 36.4622 1.00000
  1.995E+12 1.995E+12 3.916E+00 4.371E+04 7.652E+05 1.210E+06 2.019E+06 2.019E+06 2.147E+07 36.6924 1.00000
  2.239E+12 2.239E+12 3.935E+00 4.904E+04 8.586E+05 1.387E+06 2.295E+06 2.295E+06 2.158E+07 36.9227 1.00000
  2.512E+12 2.512E+12 3.954E+00 5.503E+04 9.633E+05 1.591E+06 2.609E+06 2.609E+06 2.170E+07 37.1529 1.00000
  2.818E+12 2.818E+12 3.973E+00 6.174E+04 1.081E+06 1.825E+06 2.967E+06 2.967E+06 2.181E+07 37.3832 1.00000
  3.162E+12 3.162E+12 3.992E+00 6.927E+04 1.213E+06 2.093E+06 3.375E+06 3.375E+06 2.192E+07 37.6135 1.00000
  3.548E+12 3.548E+12 4.012E+00 7.773E+04 1.361E+06 2.401E+06 3.839E+06 3.839E+06 2.202E+07 37.8437 1.00000
  3.981E+12 3.981E+12 4.031E+00 8.721E+04 1.526E+06 2.754E+06 4.367E+06 4.367E+06 2.213E+07 38.0740 1.00000
  4.467E+12 4.467E+12 4.051E+00 9.785E+04 1.713E+06 3.159E+06 4.969E+06 4.969E+06 2.223E+07 38.3042 1.00000
  5.012E+12 5.012E+12 4.070E+00 1.098E+05 1.922E+06 3.624E+06 5.655E+06 5.655E+06 2.234E+07 38.5345 1.00000
  5.623E+12 5.623E+12 4.090E+00 1.232E+05 2.156E+06 4.157E+06 6.436E+06 6.436E+06 2.244E+07 38.7648 1.00000
  6.310E+12 6.310E+12 4.110E+00 1.382E+05 2.419E+06 4.769E+06 7.326E+06 7.326E+06 2.254E+07 38.9950 1.00000
  7.079E+12 7.079E+12 4.130E+00 1.551E+05 2.714E+06 5.472E+06 8.341E+06 8.341E+06 2.264E+07 39.2253 1.00000
  7.943E+12 7.943E+12 4.150E+00 1.740E+05 3.045E+06 6.279E+06 9.498E+06 9.498E+06 2.273E+07 39.4555 1.00000
  8.913E+12 8.913E+12 4.170E+00 1.953E+05 3.416E+06 7.205E+06 1.082E+07 1.082E+07 2.283E+07 39.6858 1.00000
  1.000E+13 1.000E+13 4.190E+00 2.191E+05 3.833E+06 8.268E+06 1.232E+07 1.232E+07 2.292E+07 39.9161 1.00000
  1.122E+13 1.122E+13 4.211E+00 2.458E+05 4.300E+06 9.488E+06 1.403E+07 1.403E+07 2.302E+07 40.1463 1.00000
  1.259E+13 1.259E+13 4.231E+00 2.758E+05 4.825E+06 1.089E+07 1.599E+07 1.599E+07 2.311E+07 40.3766 1.00000
  1.413E+13 1.413E+13 4.252E+00 3.095E+05 5.413E+06 1.250E+07 1.822E+07 1.822E+07 2.320E+07 40.6068 1.00000
  1.585E+13 1.585E+13 4.273E+00 3.472E+05 6.073E+06 1.434E+07 2.076E+07 2.076E+07 2.329E+07 40.8371 1.00000
  1.778E+13 1.778E+13 4.293E+00 3.896E+05 6.814E+06 1.646E+07 2.367E+07 2.367E+07 2.338E+07 41.0673 1.00000
  1.995E+13 1.995E+13 4.314E+00 4.371E+05 7.645E+06 1.890E+07 2.698E+07 2.698E+07 2.346E+07 41.2976 1.00000
  2.239E+13 2.239E+13 4.335E+00 4.905E+05 8.578E+06 2.169E+07 3.076E+07 3.076E+07 2.355E+07 41.5279 1.00000
  2.512E+13 2.512E+13 4.357E+00 5.503E+05 9.624E+06 2.490E+07 3.507E+07 3.507E+07 2.363E+07 41.7581 1.00000
  2.818E+13 2.818E+13 4.378E+00 6.174E+05 1.080E+07 2.859E+07 4.000E+07 4.000E+07 2.371E+07 41.9884 1.00000
  3.162E+13 3.162E+13 4.399E+00 6.928E+05 1.211E+07 3.282E+07 4.563E+07 4.563E+07 2.379E+07 42.2186 1.00000
  3.548E+13 3.548E+13 4.421E+00 7.773E+05 1.359E+07 3.768E+07 5.205E+07 5.205E+07 2.387E+07 42.4489 1.00000
  3.981E+13 3.981E+13 4.442E+00 8.722E+05 1.525E+07 4.326E+07 5.939E+07 5.939E+07 2.395E+07 42.6792 1.00000
  4.467E+13 4.467E+13 4.464E+00 9.786E+05 1.711E+07 4.968E+07 6.777E+07 6.777E+07 2.403E+07 42.9094 1.00000
  5.012E+13 5.012E+13 4.486E+00 1.098E+06 1.920E+07 5.704E+07 7.734E+07 7.734E+07 2.410E+07 43.1397 1.00000
  5.623E+13 5.623E+13 4.508E+00 1.232E+06 2.154E+07 6.551E+07 8.827E+07 8.827E+07 2.418E+07 43.3699 1.00000
  6.310E+13 6.310E+13 4.530E+00 1.382E+06 2.416E+07 7.523E+07 1.008E+08 1.008E+08 2.425E+07 43.6002 1.00000
  7.079E+13 7.079E+13 4.552E+00 1.551E+06 2.711E+07 8.639E+07 1.151E+08 1.151E+08 2.432E+07 43.8304 1.00000
  7.943E+13 7.943E+13 4.575E+00 1.740E+06 3.042E+07 9.922E+07 1.314E+08 1.314E+08 2.439E+07 44.0607 1.00000
  8.913E+13 8.913E+13 4.597E+00 1.953E+06 3.413E+07 1.140E+08 1.500E+08 1.500E+08 2.446E+07 44.2910 1.00000
