 Incident particle is a Tau with M = 1776.82000 MeV
 Index = 0: LanthanumOxysulfide
      Absorber with <Z/A> = 0.42706
 Sternheimer coef:  a     k=m_s   x_0    x_1    I[eV]   Cbar  delta0
                 0.2150  2.7298  0.0906  3.2664  421.2  5.4470 0.00

 *** Table generated with PUMAS v1.00 ***

      T         p     Ionization  brems     pair     photonuc  Radloss    dE/dx   CSDA Range  delta   beta
    [MeV]    [MeV/c]  -----------------------[MeV cm^2/g]------------------------  [g/cm^2]
  1.000E+05 1.018E+05 1.745E+00 6.741E-04 1.164E-02 7.749E-03 2.006E-02 1.765E+00 2.833E+04  3.3090 0.99985
  1.122E+05 1.140E+05 1.764E+00 7.811E-04 1.394E-02 8.710E-03 2.343E-02 1.787E+00 3.520E+04  3.4784 0.99988
  1.259E+05 1.277E+05 1.783E+00 9.046E-04 1.665E-02 9.741E-03 2.730E-02 1.810E+00 4.281E+04  3.6513 0.99990
  1.413E+05 1.430E+05 1.802E+00 1.047E-03 1.984E-02 1.090E-02 3.178E-02 1.833E+00 5.124E+04  3.8277 0.99992
  1.585E+05 1.603E+05 1.820E+00 1.211E-03 2.357E-02 1.218E-02 3.696E-02 1.857E+00 6.058E+04  4.0074 0.99994
  1.778E+05 1.796E+05 1.839E+00 1.401E-03 2.793E-02 1.361E-02 4.294E-02 1.882E+00 7.093E+04  4.1903 0.99995
  1.995E+05 2.013E+05 1.857E+00 1.618E-03 3.302E-02 1.524E-02 4.987E-02 1.907E+00 8.239E+04  4.3765 0.99996
  2.239E+05 2.256E+05 1.875E+00 1.869E-03 3.895E-02 1.700E-02 5.782E-02 1.933E+00 9.507E+04  4.5656 0.99997
  2.512E+05 2.530E+05 1.893E+00 2.157E-03 4.585E-02 1.897E-02 6.698E-02 1.960E+00 1.091E+05  4.7578 0.99998
  2.818E+05 2.836E+05 1.911E+00 2.489E-03 5.385E-02 2.119E-02 7.753E-02 1.988E+00 1.246E+05  4.9528 0.99998
  3.162E+05 3.180E+05 1.928E+00 2.869E-03 6.312E-02 2.368E-02 8.967E-02 2.018E+00 1.418E+05  5.1505 0.99998
  3.548E+05 3.566E+05 1.946E+00 3.307E-03 7.384E-02 2.647E-02 1.036E-01 2.049E+00 1.608E+05  5.3510 0.99999
  3.981E+05 3.999E+05 1.963E+00 3.808E-03 8.622E-02 2.957E-02 1.196E-01 2.082E+00 1.817E+05  5.5539 0.99999
  4.467E+05 4.485E+05 1.980E+00 4.384E-03 1.005E-01 3.304E-02 1.379E-01 2.118E+00 2.049E+05  5.7594 0.99999
  5.012E+05 5.030E+05 1.997E+00 5.044E-03 1.169E-01 3.693E-02 1.589E-01 2.156E+00 2.304E+05  5.9672 0.99999
  5.623E+05 5.641E+05 2.013E+00 5.800E-03 1.358E-01 4.112E-02 1.827E-01 2.196E+00 2.585E+05  6.1772 1.00000
  6.310E+05 6.327E+05 2.030E+00 6.667E-03 1.575E-01 4.584E-02 2.100E-01 2.240E+00 2.894E+05  6.3894 1.00000
  7.079E+05 7.097E+05 2.046E+00 7.660E-03 1.824E-01 5.115E-02 2.412E-01 2.288E+00 3.234E+05  6.6037 1.00000
  7.943E+05 7.961E+05 2.063E+00 8.796E-03 2.109E-01 5.714E-02 2.768E-01 2.339E+00 3.608E+05  6.8199 1.00000
  8.913E+05 8.930E+05 2.079E+00 1.010E-02 2.435E-01 6.389E-02 3.175E-01 2.396E+00 4.017E+05  7.0379 1.00000
  1.000E+06 1.002E+06 2.094E+00 1.158E-02 2.807E-01 7.151E-02 3.638E-01 2.458E+00 4.465E+05  7.2576 1.00000
  1.122E+06 1.124E+06 2.110E+00 1.328E-02 3.232E-01 8.012E-02 4.167E-01 2.527E+00 4.955E+05  7.4789 1.00000
  1.259E+06 1.261E+06 2.125E+00 1.523E-02 3.717E-01 8.985E-02 4.768E-01 2.602E+00 5.489E+05  7.7017 1.00000
  1.413E+06 1.414E+06 2.141E+00 1.745E-02 4.269E-01 1.009E-01 5.453E-01 2.686E+00 6.070E+05  7.9259 1.00000
  1.585E+06 1.587E+06 2.156E+00 1.998E-02 4.898E-01 1.134E-01 6.231E-01 2.779E+00 6.701E+05  8.1514 1.00000
  1.778E+06 1.780E+06 2.171E+00 2.288E-02 5.612E-01 1.275E-01 7.116E-01 2.882E+00 7.385E+05  8.3779 1.00000
  1.995E+06 1.997E+06 2.185E+00 2.618E-02 6.423E-01 1.435E-01 8.121E-01 2.998E+00 8.123E+05  8.6055 1.00000
  2.239E+06 2.240E+06 2.200E+00 2.995E-02 7.344E-01 1.617E-01 9.261E-01 3.126E+00 8.918E+05  8.8338 1.00000
  2.512E+06 2.514E+06 2.214E+00 3.425E-02 8.388E-01 1.824E-01 1.055E+00 3.270E+00 9.773E+05  9.0629 1.00000
  2.818E+06 2.820E+06 2.229E+00 3.915E-02 9.572E-01 2.058E-01 1.202E+00 3.431E+00 1.069E+06  9.2926 1.00000
  3.162E+06 3.164E+06 2.243E+00 4.474E-02 1.091E+00 2.325E-01 1.368E+00 3.611E+00 1.167E+06  9.5226 1.00000
  3.548E+06 3.550E+06 2.257E+00 5.110E-02 1.243E+00 2.628E-01 1.557E+00 3.814E+00 1.271E+06  9.7527 1.00000
  3.981E+06 3.983E+06 2.271E+00 5.835E-02 1.414E+00 2.973E-01 1.770E+00 4.041E+00 1.381E+06  9.9829 1.00000
  4.467E+06 4.469E+06 2.284E+00 6.661E-02 1.608E+00 3.365E-01 2.011E+00 4.295E+00 1.498E+06 10.2130 1.00000
  5.012E+06 5.014E+06 2.298E+00 7.601E-02 1.827E+00 3.811E-01 2.284E+00 4.582E+00 1.620E+06 10.4432 1.00000
  5.623E+06 5.625E+06 2.311E+00 8.670E-02 2.074E+00 4.318E-01 2.592E+00 4.904E+00 1.750E+06 10.6734 1.00000
  6.310E+06 6.311E+06 2.325E+00 9.886E-02 2.353E+00 4.896E-01 2.941E+00 5.266E+00 1.885E+06 10.9036 1.00000
  7.079E+06 7.081E+06 2.338E+00 1.127E-01 2.667E+00 5.555E-01 3.335E+00 5.673E+00 2.026E+06 11.1338 1.00000
  7.943E+06 7.945E+06 2.351E+00 1.284E-01 3.022E+00 6.305E-01 3.781E+00 6.131E+00 2.172E+06 11.3640 1.00000
  8.913E+06 8.914E+06 2.364E+00 1.463E-01 3.421E+00 7.159E-01 4.283E+00 6.647E+00 2.324E+06 11.5942 1.00000
  1.000E+07 1.000E+07 2.377E+00 1.666E-01 3.871E+00 8.133E-01 4.851E+00 7.228E+00 2.481E+06 11.8244 1.00000
  1.122E+07 1.122E+07 2.389E+00 1.896E-01 4.378E+00 9.242E-01 5.492E+00 7.881E+00 2.643E+06 12.0546 1.00000
  1.259E+07 1.259E+07 2.402E+00 2.158E-01 4.949E+00 1.051E+00 6.215E+00 8.617E+00 2.809E+06 12.2848 1.00000
  1.413E+07 1.413E+07 2.414E+00 2.455E-01 5.591E+00 1.195E+00 7.031E+00 9.446E+00 2.980E+06 12.5151 1.00000
  1.585E+07 1.585E+07 2.427E+00 2.792E-01 6.314E+00 1.359E+00 7.952E+00 1.038E+01 3.154E+06 12.7453 1.00000
  1.778E+07 1.778E+07 2.439E+00 3.174E-01 7.126E+00 1.547E+00 8.991E+00 1.143E+01 3.332E+06 12.9755 1.00000
  1.995E+07 1.995E+07 2.451E+00 3.607E-01 8.041E+00 1.761E+00 1.016E+01 1.261E+01 3.513E+06 13.2058 1.00000
  2.239E+07 2.239E+07 2.463E+00 4.099E-01 9.068E+00 2.005E+00 1.148E+01 1.395E+01 3.697E+06 13.4360 1.00000
  2.512E+07 2.512E+07 2.475E+00 4.655E-01 1.022E+01 2.283E+00 1.297E+01 1.545E+01 3.883E+06 13.6662 1.00000
  2.818E+07 2.819E+07 2.487E+00 5.286E-01 1.152E+01 2.601E+00 1.465E+01 1.714E+01 4.071E+06 13.8965 1.00000
  3.162E+07 3.162E+07 2.499E+00 6.000E-01 1.298E+01 2.963E+00 1.655E+01 1.904E+01 4.262E+06 14.1267 1.00000
  3.548E+07 3.548E+07 2.511E+00 6.808E-01 1.462E+01 3.377E+00 1.868E+01 2.119E+01 4.454E+06 14.3570 1.00000
  3.981E+07 3.981E+07 2.523E+00 7.723E-01 1.646E+01 3.849E+00 2.109E+01 2.361E+01 4.648E+06 14.5872 1.00000
  4.467E+07 4.467E+07 2.535E+00 8.758E-01 1.853E+01 4.388E+00 2.380E+01 2.633E+01 4.843E+06 14.8175 1.00000
  5.012E+07 5.012E+07 2.547E+00 9.928E-01 2.086E+01 5.003E+00 2.686E+01 2.940E+01 5.040E+06 15.0477 1.00000
  5.623E+07 5.624E+07 2.559E+00 1.125E+00 2.347E+01 5.705E+00 3.030E+01 3.286E+01 5.237E+06 15.2780 1.00000
  6.310E+07 6.310E+07 2.570E+00 1.275E+00 2.640E+01 6.507E+00 3.418E+01 3.676E+01 5.434E+06 15.5082 1.00000
  7.079E+07 7.080E+07 2.582E+00 1.444E+00 2.970E+01 7.422E+00 3.856E+01 4.114E+01 5.633E+06 15.7385 1.00000
  7.943E+07 7.943E+07 2.594E+00 1.635E+00 3.339E+01 8.466E+00 4.350E+01 4.609E+01 5.831E+06 15.9687 1.00000
  8.913E+07 8.913E+07 2.606E+00 1.850E+00 3.755E+01 9.660E+00 4.906E+01 5.166E+01 6.030E+06 16.1990 1.00000
  1.000E+08 1.000E+08 2.618E+00 2.094E+00 4.221E+01 1.102E+01 5.532E+01 5.794E+01 6.229E+06 16.4292 1.00000
  1.122E+08 1.122E+08 2.630E+00 2.368E+00 4.744E+01 1.258E+01 6.238E+01 6.501E+01 6.429E+06 16.6595 1.00000
  1.259E+08 1.259E+08 2.642E+00 2.678E+00 5.331E+01 1.436E+01 7.035E+01 7.299E+01 6.628E+06 16.8897 1.00000
  1.413E+08 1.413E+08 2.654E+00 3.028E+00 5.990E+01 1.638E+01 7.932E+01 8.197E+01 6.827E+06 17.1200 1.00000
  1.585E+08 1.585E+08 2.666E+00 3.423E+00 6.730E+01 1.870E+01 8.943E+01 9.210E+01 7.025E+06 17.3503 1.00000
  1.778E+08 1.778E+08 2.678E+00 3.867E+00 7.561E+01 2.135E+01 1.008E+02 1.035E+02 7.224E+06 17.5805 1.00000
  1.995E+08 1.995E+08 2.690E+00 4.368E+00 8.493E+01 2.438E+01 1.137E+02 1.164E+02 7.422E+06 17.8108 1.00000
  2.239E+08 2.239E+08 2.702E+00 4.933E+00 9.540E+01 2.783E+01 1.282E+02 1.309E+02 7.619E+06 18.0410 1.00000
  2.512E+08 2.512E+08 2.715E+00 5.570E+00 1.071E+02 3.178E+01 1.445E+02 1.472E+02 7.816E+06 18.2713 1.00000
  2.818E+08 2.818E+08 2.727E+00 6.286E+00 1.203E+02 3.629E+01 1.629E+02 1.656E+02 8.013E+06 18.5015 1.00000
  3.162E+08 3.162E+08 2.739E+00 7.093E+00 1.351E+02 4.145E+01 1.836E+02 1.864E+02 8.209E+06 18.7318 1.00000
  3.548E+08 3.548E+08 2.752E+00 8.002E+00 1.517E+02 4.734E+01 2.070E+02 2.098E+02 8.405E+06 18.9621 1.00000
  3.981E+08 3.981E+08 2.764E+00 9.025E+00 1.703E+02 5.407E+01 2.334E+02 2.362E+02 8.599E+06 19.1923 1.00000
  4.467E+08 4.467E+08 2.776E+00 1.018E+01 1.912E+02 6.176E+01 2.632E+02 2.659E+02 8.794E+06 19.4226 1.00000
  5.012E+08 5.012E+08 2.789E+00 1.147E+01 2.147E+02 7.055E+01 2.967E+02 2.995E+02 8.987E+06 19.6528 1.00000
  5.623E+08 5.623E+08 2.802E+00 1.293E+01 2.410E+02 8.060E+01 3.345E+02 3.373E+02 9.180E+06 19.8831 1.00000
  6.310E+08 6.310E+08 2.814E+00 1.457E+01 2.705E+02 9.208E+01 3.772E+02 3.800E+02 9.372E+06 20.1133 1.00000
  7.079E+08 7.079E+08 2.827E+00 1.641E+01 3.037E+02 1.052E+02 4.253E+02 4.281E+02 9.563E+06 20.3436 1.00000
  7.943E+08 7.943E+08 2.840E+00 1.848E+01 3.409E+02 1.202E+02 4.796E+02 4.824E+02 9.753E+06 20.5739 1.00000
  8.913E+08 8.913E+08 2.853E+00 2.081E+01 3.826E+02 1.374E+02 5.408E+02 5.436E+02 9.943E+06 20.8041 1.00000
  1.000E+09 1.000E+09 2.866E+00 2.343E+01 4.294E+02 1.570E+02 6.098E+02 6.127E+02 1.013E+07 21.0344 1.00000
  1.122E+09 1.122E+09 2.879E+00 2.638E+01 4.820E+02 1.794E+02 6.877E+02 6.906E+02 1.032E+07 21.2646 1.00000
  1.259E+09 1.259E+09 2.892E+00 2.968E+01 5.409E+02 2.050E+02 7.756E+02 7.785E+02 1.051E+07 21.4949 1.00000
  1.413E+09 1.413E+09 2.905E+00 3.340E+01 6.071E+02 2.343E+02 8.748E+02 8.777E+02 1.069E+07 21.7251 1.00000
  1.585E+09 1.585E+09 2.918E+00 3.758E+01 6.813E+02 2.678E+02 9.867E+02 9.896E+02 1.088E+07 21.9554 1.00000
  1.778E+09 1.778E+09 2.932E+00 4.227E+01 7.646E+02 3.061E+02 1.113E+03 1.116E+03 1.106E+07 22.1857 1.00000
  1.995E+09 1.995E+09 2.945E+00 4.754E+01 8.580E+02 3.500E+02 1.256E+03 1.258E+03 1.125E+07 22.4159 1.00000
  2.239E+09 2.239E+09 2.958E+00 5.346E+01 9.629E+02 4.001E+02 1.416E+03 1.419E+03 1.143E+07 22.6462 1.00000
  2.512E+09 2.512E+09 2.972E+00 6.011E+01 1.081E+03 4.574E+02 1.598E+03 1.601E+03 1.161E+07 22.8764 1.00000
  2.818E+09 2.818E+09 2.985E+00 6.758E+01 1.213E+03 5.229E+02 1.803E+03 1.806E+03 1.179E+07 23.1067 1.00000
  3.162E+09 3.162E+09 2.999E+00 7.596E+01 1.361E+03 5.979E+02 2.035E+03 2.038E+03 1.197E+07 23.3370 1.00000
  3.548E+09 3.548E+09 3.013E+00 8.538E+01 1.527E+03 6.837E+02 2.296E+03 2.299E+03 1.215E+07 23.5672 1.00000
  3.981E+09 3.981E+09 3.027E+00 9.595E+01 1.713E+03 7.818E+02 2.591E+03 2.594E+03 1.233E+07 23.7975 1.00000
  4.467E+09 4.467E+09 3.041E+00 1.078E+02 1.922E+03 8.940E+02 2.924E+03 2.927E+03 1.250E+07 24.0277 1.00000
  5.012E+09 5.012E+09 3.055E+00 1.211E+02 2.157E+03 1.022E+03 3.301E+03 3.304E+03 1.268E+07 24.2580 1.00000
  5.623E+09 5.623E+09 3.069E+00 1.361E+02 2.421E+03 1.169E+03 3.726E+03 3.729E+03 1.285E+07 24.4882 1.00000
  6.310E+09 6.310E+09 3.083E+00 1.529E+02 2.716E+03 1.337E+03 4.206E+03 4.210E+03 1.303E+07 24.7185 1.00000
  7.079E+09 7.079E+09 3.097E+00 1.718E+02 3.048E+03 1.530E+03 4.749E+03 4.752E+03 1.320E+07 24.9488 1.00000
  7.943E+09 7.943E+09 3.111E+00 1.929E+02 3.420E+03 1.750E+03 5.363E+03 5.366E+03 1.337E+07 25.1790 1.00000
  8.913E+09 8.913E+09 3.126E+00 2.167E+02 3.837E+03 2.002E+03 6.056E+03 6.059E+03 1.354E+07 25.4093 1.00000
  1.000E+10 1.000E+10 3.140E+00 2.433E+02 4.305E+03 2.290E+03 6.839E+03 6.842E+03 1.371E+07 25.6395 1.00000
  1.122E+10 1.122E+10 3.155E+00 2.732E+02 4.831E+03 2.620E+03 7.724E+03 7.727E+03 1.388E+07 25.8698 1.00000
  1.259E+10 1.259E+10 3.169E+00 3.068E+02 5.421E+03 2.997E+03 8.725E+03 8.728E+03 1.405E+07 26.1001 1.00000
  1.413E+10 1.413E+10 3.184E+00 3.445E+02 6.082E+03 3.429E+03 9.856E+03 9.859E+03 1.421E+07 26.3303 1.00000
  1.585E+10 1.585E+10 3.199E+00 3.868E+02 6.824E+03 3.924E+03 1.114E+04 1.114E+04 1.438E+07 26.5606 1.00000
  1.778E+10 1.778E+10 3.214E+00 4.343E+02 7.657E+03 4.490E+03 1.258E+04 1.258E+04 1.454E+07 26.7908 1.00000
  1.995E+10 1.995E+10 3.229E+00 4.875E+02 8.591E+03 5.138E+03 1.422E+04 1.422E+04 1.470E+07 27.0211 1.00000
  2.239E+10 2.239E+10 3.244E+00 5.473E+02 9.640E+03 5.881E+03 1.607E+04 1.607E+04 1.486E+07 27.2514 1.00000
  2.512E+10 2.512E+10 3.259E+00 6.144E+02 1.082E+04 6.730E+03 1.816E+04 1.816E+04 1.502E+07 27.4816 1.00000
  2.818E+10 2.818E+10 3.274E+00 6.896E+02 1.214E+04 7.703E+03 2.053E+04 2.053E+04 1.518E+07 27.7119 1.00000
  3.162E+10 3.162E+10 3.289E+00 7.741E+02 1.362E+04 8.816E+03 2.321E+04 2.321E+04 1.534E+07 27.9421 1.00000
  3.548E+10 3.548E+10 3.305E+00 8.689E+02 1.528E+04 1.009E+04 2.624E+04 2.624E+04 1.550E+07 28.1724 1.00000
  3.981E+10 3.981E+10 3.320E+00 9.752E+02 1.714E+04 1.155E+04 2.967E+04 2.967E+04 1.565E+07 28.4026 1.00000
  4.467E+10 4.467E+10 3.336E+00 1.095E+03 1.923E+04 1.322E+04 3.355E+04 3.356E+04 1.581E+07 28.6329 1.00000
  5.012E+10 5.012E+10 3.351E+00 1.229E+03 2.158E+04 1.514E+04 3.795E+04 3.795E+04 1.596E+07 28.8632 1.00000
  5.623E+10 5.623E+10 3.367E+00 1.379E+03 2.421E+04 1.733E+04 4.292E+04 4.293E+04 1.611E+07 29.0934 1.00000
  6.310E+10 6.310E+10 3.383E+00 1.547E+03 2.717E+04 1.985E+04 4.856E+04 4.856E+04 1.626E+07 29.3237 1.00000
  7.079E+10 7.079E+10 3.399E+00 1.737E+03 3.048E+04 2.272E+04 5.494E+04 5.494E+04 1.641E+07 29.5539 1.00000
  7.943E+10 7.943E+10 3.415E+00 1.949E+03 3.420E+04 2.602E+04 6.217E+04 6.217E+04 1.656E+07 29.7842 1.00000
  8.913E+10 8.913E+10 3.431E+00 2.187E+03 3.837E+04 2.980E+04 7.035E+04 7.036E+04 1.671E+07 30.0145 1.00000
  1.000E+11 1.000E+11 3.447E+00 2.454E+03 4.305E+04 3.412E+04 7.963E+04 7.963E+04 1.685E+07 30.2447 1.00000
  1.122E+11 1.122E+11 3.463E+00 2.754E+03 4.831E+04 3.908E+04 9.014E+04 9.014E+04 1.700E+07 30.4750 1.00000
  1.259E+11 1.259E+11 3.480E+00 3.091E+03 5.420E+04 4.476E+04 1.020E+05 1.020E+05 1.714E+07 30.7052 1.00000
  1.413E+11 1.413E+11 3.496E+00 3.468E+03 6.081E+04 5.126E+04 1.155E+05 1.155E+05 1.728E+07 30.9355 1.00000
  1.585E+11 1.585E+11 3.513E+00 3.892E+03 6.823E+04 5.872E+04 1.308E+05 1.308E+05 1.742E+07 31.1657 1.00000
  1.778E+11 1.778E+11 3.529E+00 4.367E+03 7.655E+04 6.726E+04 1.482E+05 1.482E+05 1.756E+07 31.3960 1.00000
  1.995E+11 1.995E+11 3.546E+00 4.901E+03 8.589E+04 7.705E+04 1.678E+05 1.678E+05 1.770E+07 31.6263 1.00000
  2.239E+11 2.239E+11 3.563E+00 5.499E+03 9.637E+04 8.827E+04 1.901E+05 1.901E+05 1.783E+07 31.8565 1.00000
  2.512E+11 2.512E+11 3.580E+00 6.171E+03 1.081E+05 1.011E+05 2.154E+05 2.154E+05 1.797E+07 32.0868 1.00000
  2.818E+11 2.818E+11 3.597E+00 6.924E+03 1.213E+05 1.159E+05 2.441E+05 2.441E+05 1.810E+07 32.3170 1.00000
  3.162E+11 3.162E+11 3.614E+00 7.770E+03 1.361E+05 1.327E+05 2.766E+05 2.766E+05 1.824E+07 32.5473 1.00000
  3.548E+11 3.548E+11 3.631E+00 8.718E+03 1.527E+05 1.521E+05 3.135E+05 3.135E+05 1.837E+07 32.7776 1.00000
  3.981E+11 3.981E+11 3.648E+00 9.783E+03 1.713E+05 1.743E+05 3.554E+05 3.554E+05 1.850E+07 33.0078 1.00000
  4.467E+11 4.467E+11 3.666E+00 1.098E+04 1.922E+05 1.997E+05 4.030E+05 4.030E+05 1.863E+07 33.2381 1.00000
  5.012E+11 5.012E+11 3.683E+00 1.232E+04 2.157E+05 2.289E+05 4.569E+05 4.569E+05 1.875E+07 33.4683 1.00000
  5.623E+11 5.623E+11 3.701E+00 1.382E+04 2.420E+05 2.623E+05 5.182E+05 5.182E+05 1.888E+07 33.6986 1.00000
  6.310E+11 6.310E+11 3.719E+00 1.551E+04 2.715E+05 3.007E+05 5.877E+05 5.877E+05 1.900E+07 33.9288 1.00000
  7.079E+11 7.079E+11 3.736E+00 1.740E+04 3.046E+05 3.446E+05 6.667E+05 6.667E+05 1.913E+07 34.1591 1.00000
  7.943E+11 7.943E+11 3.754E+00 1.952E+04 3.418E+05 3.950E+05 7.564E+05 7.564E+05 1.925E+07 34.3894 1.00000
  8.913E+11 8.913E+11 3.772E+00 2.191E+04 3.835E+05 4.528E+05 8.582E+05 8.582E+05 1.937E+07 34.6196 1.00000
  1.000E+12 1.000E+12 3.790E+00 2.458E+04 4.303E+05 5.191E+05 9.740E+05 9.740E+05 1.949E+07 34.8499 1.00000
  1.122E+12 1.122E+12 3.809E+00 2.758E+04 4.828E+05 5.951E+05 1.105E+06 1.105E+06 1.961E+07 35.0801 1.00000
  1.259E+12 1.259E+12 3.827E+00 3.094E+04 5.416E+05 6.823E+05 1.255E+06 1.255E+06 1.972E+07 35.3104 1.00000
  1.413E+12 1.413E+12 3.845E+00 3.472E+04 6.077E+05 7.823E+05 1.425E+06 1.425E+06 1.984E+07 35.5407 1.00000
  1.585E+12 1.585E+12 3.864E+00 3.896E+04 6.818E+05 8.970E+05 1.618E+06 1.618E+06 1.995E+07 35.7709 1.00000
  1.778E+12 1.778E+12 3.882E+00 4.371E+04 7.650E+05 1.029E+06 1.837E+06 1.837E+06 2.006E+07 36.0012 1.00000
  1.995E+12 1.995E+12 3.901E+00 4.905E+04 8.583E+05 1.179E+06 2.087E+06 2.087E+06 2.018E+07 36.2314 1.00000
  2.239E+12 2.239E+12 3.920E+00 5.503E+04 9.630E+05 1.353E+06 2.371E+06 2.371E+06 2.029E+07 36.4617 1.00000
  2.512E+12 2.512E+12 3.939E+00 6.175E+04 1.080E+06 1.551E+06 2.693E+06 2.693E+06 2.039E+07 36.6919 1.00000
  2.818E+12 2.818E+12 3.958E+00 6.928E+04 1.212E+06 1.779E+06 3.061E+06 3.061E+06 2.050E+07 36.9222 1.00000
  3.162E+12 3.162E+12 3.977E+00 7.774E+04 1.360E+06 2.040E+06 3.478E+06 3.478E+06 2.061E+07 37.1525 1.00000
  3.548E+12 3.548E+12 3.996E+00 8.722E+04 1.526E+06 2.340E+06 3.954E+06 3.954E+06 2.071E+07 37.3827 1.00000
  3.981E+12 3.981E+12 4.016E+00 9.787E+04 1.712E+06 2.685E+06 4.495E+06 4.495E+06 2.081E+07 37.6130 1.00000
  4.467E+12 4.467E+12 4.035E+00 1.098E+05 1.921E+06 3.080E+06 5.110E+06 5.110E+06 2.092E+07 37.8432 1.00000
  5.012E+12 5.012E+12 4.055E+00 1.232E+05 2.155E+06 3.533E+06 5.811E+06 5.811E+06 2.102E+07 38.0735 1.00000
  5.623E+12 5.623E+12 4.074E+00 1.382E+05 2.418E+06 4.053E+06 6.609E+06 6.609E+06 2.111E+07 38.3038 1.00000
  6.310E+12 6.310E+12 4.094E+00 1.551E+05 2.713E+06 4.650E+06 7.518E+06 7.518E+06 2.121E+07 38.5340 1.00000
  7.079E+12 7.079E+12 4.114E+00 1.740E+05 3.044E+06 5.335E+06 8.553E+06 8.553E+06 2.131E+07 38.7643 1.00000
  7.943E+12 7.943E+12 4.134E+00 1.953E+05 3.415E+06 6.122E+06 9.732E+06 9.732E+06 2.140E+07 38.9945 1.00000
  8.913E+12 8.913E+12 4.154E+00 2.191E+05 3.832E+06 7.024E+06 1.108E+07 1.108E+07 2.150E+07 39.2248 1.00000
  1.000E+13 1.000E+13 4.174E+00 2.458E+05 4.299E+06 8.060E+06 1.261E+07 1.261E+07 2.159E+07 39.4551 1.00000
  1.122E+13 1.122E+13 4.194E+00 2.758E+05 4.823E+06 9.250E+06 1.435E+07 1.435E+07 2.168E+07 39.6853 1.00000
  1.259E+13 1.259E+13 4.215E+00 3.095E+05 5.412E+06 1.062E+07 1.634E+07 1.634E+07 2.177E+07 39.9156 1.00000
  1.413E+13 1.413E+13 4.235E+00 3.473E+05 6.072E+06 1.218E+07 1.860E+07 1.860E+07 2.186E+07 40.1458 1.00000
  1.585E+13 1.585E+13 4.256E+00 3.896E+05 6.812E+06 1.398E+07 2.119E+07 2.119E+07 2.194E+07 40.3761 1.00000
  1.778E+13 1.778E+13 4.277E+00 4.372E+05 7.643E+06 1.605E+07 2.413E+07 2.413E+07 2.203E+07 40.6063 1.00000
  1.995E+13 1.995E+13 4.298E+00 4.905E+05 8.575E+06 1.842E+07 2.749E+07 2.749E+07 2.211E+07 40.8366 1.00000
  2.239E+13 2.239E+13 4.319E+00 5.504E+05 9.621E+06 2.115E+07 3.132E+07 3.132E+07 2.220E+07 41.0669 1.00000
  2.512E+13 2.512E+13 4.340E+00 6.175E+05 1.079E+07 2.428E+07 3.569E+07 3.569E+07 2.228E+07 41.2971 1.00000
  2.818E+13 2.818E+13 4.361E+00 6.929E+05 1.211E+07 2.787E+07 4.067E+07 4.067E+07 2.236E+07 41.5274 1.00000
  3.162E+13 3.162E+13 4.382E+00 7.774E+05 1.359E+07 3.200E+07 4.636E+07 4.636E+07 2.244E+07 41.7576 1.00000
  3.548E+13 3.548E+13 4.404E+00 8.723E+05 1.524E+07 3.674E+07 5.285E+07 5.285E+07 2.252E+07 41.9879 1.00000
  3.981E+13 3.981E+13 4.425E+00 9.787E+05 1.710E+07 4.218E+07 6.026E+07 6.026E+07 2.259E+07 42.2182 1.00000
  4.467E+13 4.467E+13 4.447E+00 1.098E+06 1.919E+07 4.843E+07 6.872E+07 6.872E+07 2.267E+07 42.4484 1.00000
  5.012E+13 5.012E+13 4.469E+00 1.232E+06 2.153E+07 5.562E+07 7.838E+07 7.838E+07 2.274E+07 42.6787 1.00000
  5.623E+13 5.623E+13 4.490E+00 1.382E+06 2.416E+07 6.387E+07 8.940E+07 8.940E+07 2.282E+07 42.9089 1.00000
  6.310E+13 6.310E+13 4.512E+00 1.551E+06 2.710E+07 7.334E+07 1.020E+08 1.020E+08 2.289E+07 43.1392 1.00000
  7.079E+13 7.079E+13 4.535E+00 1.740E+06 3.041E+07 8.423E+07 1.164E+08 1.164E+08 2.296E+07 43.3694 1.00000
  7.943E+13 7.943E+13 4.557E+00 1.953E+06 3.411E+07 9.674E+07 1.328E+08 1.328E+08 2.303E+07 43.5997 1.00000
  8.913E+13 8.913E+13 4.579E+00 2.191E+06 3.828E+07 1.111E+08 1.516E+08 1.516E+08 2.310E+07 43.8300 1.00000
