 Incident particle is a Tau with M = 1776.82000 MeV
 Index = 0: LanthanumChloride
      Absorber with <Z/A> = 0.44034
 Sternheimer coef:  a     k=m_s   x_0    x_1    I[eV]   Cbar  delta0
                 0.2016  3.0000  0.2418  3.0000  329.5  5.3428 0.00

 *** Table generated with PUMAS v1.00 ***

      T         p     Ionization  brems     pair     photonuc  Radloss    dE/dx   CSDA Range  delta   beta
    [MeV]    [MeV/c]  -----------------------[MeV cm^2/g]------------------------  [g/cm^2]
  1.000E+05 1.018E+05 1.844E+00 5.708E-04 9.737E-03 7.817E-03 1.813E-02 1.862E+00 2.685E+04  3.1391 0.99985
  1.122E+05 1.140E+05 1.863E+00 6.612E-04 1.167E-02 8.793E-03 2.112E-02 1.884E+00 3.337E+04  3.3215 0.99988
  1.259E+05 1.277E+05 1.881E+00 7.656E-04 1.394E-02 9.838E-03 2.455E-02 1.906E+00 4.059E+04  3.5078 0.99990
  1.413E+05 1.430E+05 1.900E+00 8.859E-04 1.661E-02 1.101E-02 2.851E-02 1.928E+00 4.861E+04  3.6977 0.99992
  1.585E+05 1.603E+05 1.918E+00 1.025E-03 1.974E-02 1.232E-02 3.309E-02 1.951E+00 5.749E+04  3.8910 0.99994
  1.778E+05 1.796E+05 1.936E+00 1.184E-03 2.341E-02 1.377E-02 3.836E-02 1.974E+00 6.735E+04  4.0878 0.99995
  1.995E+05 2.013E+05 1.954E+00 1.368E-03 2.768E-02 1.542E-02 4.447E-02 1.998E+00 7.827E+04  4.2877 0.99996
  2.239E+05 2.256E+05 1.972E+00 1.579E-03 3.266E-02 1.722E-02 5.146E-02 2.023E+00 9.038E+04  4.4906 0.99997
  2.512E+05 2.530E+05 1.989E+00 1.823E-03 3.845E-02 1.923E-02 5.950E-02 2.049E+00 1.038E+05  4.6963 0.99998
  2.818E+05 2.836E+05 2.006E+00 2.102E-03 4.518E-02 2.148E-02 6.876E-02 2.075E+00 1.187E+05  4.9048 0.99998
  3.162E+05 3.180E+05 2.024E+00 2.423E-03 5.297E-02 2.402E-02 7.941E-02 2.103E+00 1.351E+05  5.1158 0.99998
  3.548E+05 3.566E+05 2.041E+00 2.792E-03 6.198E-02 2.687E-02 9.164E-02 2.132E+00 1.533E+05  5.3291 0.99999
  3.981E+05 3.999E+05 2.058E+00 3.214E-03 7.239E-02 3.003E-02 1.056E-01 2.163E+00 1.735E+05  5.5447 0.99999
  4.467E+05 4.485E+05 2.074E+00 3.700E-03 8.439E-02 3.357E-02 1.217E-01 2.196E+00 1.958E+05  5.7623 0.99999
  5.012E+05 5.030E+05 2.091E+00 4.256E-03 9.822E-02 3.754E-02 1.400E-01 2.231E+00 2.204E+05  5.9818 0.99999
  5.623E+05 5.641E+05 2.108E+00 4.893E-03 1.141E-01 4.182E-02 1.608E-01 2.268E+00 2.476E+05  6.2030 1.00000
  6.310E+05 6.327E+05 2.124E+00 5.623E-03 1.324E-01 4.664E-02 1.847E-01 2.309E+00 2.776E+05  6.4258 1.00000
  7.079E+05 7.097E+05 2.140E+00 6.459E-03 1.533E-01 5.207E-02 2.119E-01 2.352E+00 3.106E+05  6.6501 1.00000
  7.943E+05 7.961E+05 2.156E+00 7.416E-03 1.774E-01 5.819E-02 2.430E-01 2.399E+00 3.470E+05  6.8756 1.00000
  8.913E+05 8.930E+05 2.172E+00 8.511E-03 2.048E-01 6.509E-02 2.784E-01 2.450E+00 3.870E+05  7.1022 1.00000
  1.000E+06 1.002E+06 2.188E+00 9.763E-03 2.362E-01 7.289E-02 3.189E-01 2.507E+00 4.309E+05  7.3297 1.00000
  1.122E+06 1.124E+06 2.203E+00 1.120E-02 2.721E-01 8.170E-02 3.650E-01 2.568E+00 4.789E+05  7.5581 1.00000
  1.259E+06 1.261E+06 2.219E+00 1.283E-02 3.130E-01 9.166E-02 4.175E-01 2.636E+00 5.316E+05  7.7871 1.00000
  1.413E+06 1.414E+06 2.234E+00 1.470E-02 3.596E-01 1.029E-01 4.772E-01 2.712E+00 5.890E+05  8.0165 1.00000
  1.585E+06 1.587E+06 2.250E+00 1.684E-02 4.126E-01 1.157E-01 5.452E-01 2.795E+00 6.516E+05  8.2464 1.00000
  1.778E+06 1.780E+06 2.265E+00 1.927E-02 4.729E-01 1.302E-01 6.224E-01 2.887E+00 7.197E+05  8.4763 1.00000
  1.995E+06 1.997E+06 2.280E+00 2.206E-02 5.415E-01 1.466E-01 7.101E-01 2.990E+00 7.936E+05  8.7064 1.00000
  2.239E+06 2.240E+06 2.295E+00 2.523E-02 6.193E-01 1.652E-01 8.097E-01 3.104E+00 8.735E+05  8.9365 1.00000
  2.512E+06 2.514E+06 2.310E+00 2.885E-02 7.075E-01 1.864E-01 9.228E-01 3.232E+00 9.598E+05  9.1665 1.00000
  2.818E+06 2.820E+06 2.324E+00 3.298E-02 8.075E-01 2.104E-01 1.051E+00 3.375E+00 1.053E+06  9.3966 1.00000
  3.162E+06 3.164E+06 2.339E+00 3.768E-02 9.208E-01 2.377E-01 1.196E+00 3.535E+00 1.152E+06  9.6268 1.00000
  3.548E+06 3.550E+06 2.353E+00 4.304E-02 1.049E+00 2.688E-01 1.361E+00 3.714E+00 1.259E+06  9.8569 1.00000
  3.981E+06 3.983E+06 2.367E+00 4.914E-02 1.194E+00 3.041E-01 1.547E+00 3.915E+00 1.372E+06 10.0871 1.00000
  4.467E+06 4.469E+06 2.382E+00 5.610E-02 1.358E+00 3.443E-01 1.758E+00 4.140E+00 1.493E+06 10.3172 1.00000
  5.012E+06 5.014E+06 2.396E+00 6.401E-02 1.543E+00 3.900E-01 1.997E+00 4.393E+00 1.621E+06 10.5474 1.00000
  5.623E+06 5.625E+06 2.409E+00 7.301E-02 1.752E+00 4.420E-01 2.267E+00 4.677E+00 1.756E+06 10.7776 1.00000
  6.310E+06 6.311E+06 2.423E+00 8.325E-02 1.989E+00 5.012E-01 2.573E+00 4.996E+00 1.898E+06 11.0078 1.00000
  7.079E+06 7.081E+06 2.437E+00 9.490E-02 2.255E+00 5.687E-01 2.918E+00 5.355E+00 2.047E+06 11.2380 1.00000
  7.943E+06 7.945E+06 2.450E+00 1.081E-01 2.555E+00 6.455E-01 3.309E+00 5.759E+00 2.202E+06 11.4682 1.00000
  8.913E+06 8.914E+06 2.463E+00 1.232E-01 2.894E+00 7.331E-01 3.750E+00 6.213E+00 2.365E+06 11.6984 1.00000
  1.000E+07 1.000E+07 2.477E+00 1.403E-01 3.275E+00 8.329E-01 4.248E+00 6.725E+00 2.533E+06 11.9286 1.00000
  1.122E+07 1.122E+07 2.490E+00 1.597E-01 3.704E+00 9.466E-01 4.811E+00 7.300E+00 2.707E+06 12.1588 1.00000
  1.259E+07 1.259E+07 2.503E+00 1.818E-01 4.188E+00 1.076E+00 5.446E+00 7.949E+00 2.887E+06 12.3890 1.00000
  1.413E+07 1.413E+07 2.515E+00 2.068E-01 4.732E+00 1.224E+00 6.163E+00 8.679E+00 3.072E+06 12.6193 1.00000
  1.585E+07 1.585E+07 2.528E+00 2.352E-01 5.345E+00 1.393E+00 6.973E+00 9.501E+00 3.262E+06 12.8495 1.00000
  1.778E+07 1.778E+07 2.541E+00 2.674E-01 6.034E+00 1.585E+00 7.886E+00 1.043E+01 3.457E+06 13.0797 1.00000
  1.995E+07 1.995E+07 2.553E+00 3.039E-01 6.809E+00 1.804E+00 8.917E+00 1.147E+01 3.655E+06 13.3100 1.00000
  2.239E+07 2.239E+07 2.566E+00 3.453E-01 7.680E+00 2.054E+00 1.008E+01 1.265E+01 3.858E+06 13.5402 1.00000
  2.512E+07 2.512E+07 2.578E+00 3.923E-01 8.660E+00 2.340E+00 1.139E+01 1.397E+01 4.064E+06 13.7704 1.00000
  2.818E+07 2.819E+07 2.591E+00 4.454E-01 9.762E+00 2.665E+00 1.287E+01 1.546E+01 4.272E+06 14.0007 1.00000
  3.162E+07 3.162E+07 2.603E+00 5.056E-01 1.100E+01 3.037E+00 1.454E+01 1.715E+01 4.484E+06 14.2309 1.00000
  3.548E+07 3.548E+07 2.615E+00 5.738E-01 1.239E+01 3.461E+00 1.643E+01 1.904E+01 4.698E+06 14.4612 1.00000
  3.981E+07 3.981E+07 2.628E+00 6.510E-01 1.395E+01 3.945E+00 1.855E+01 2.118E+01 4.914E+06 14.6914 1.00000
  4.467E+07 4.467E+07 2.640E+00 7.383E-01 1.571E+01 4.497E+00 2.094E+01 2.358E+01 5.131E+06 14.9217 1.00000
  5.012E+07 5.012E+07 2.652E+00 8.370E-01 1.768E+01 5.127E+00 2.365E+01 2.630E+01 5.350E+06 15.1519 1.00000
  5.623E+07 5.624E+07 2.664E+00 9.487E-01 1.990E+01 5.847E+00 2.669E+01 2.936E+01 5.571E+06 15.3822 1.00000
  6.310E+07 6.310E+07 2.676E+00 1.075E+00 2.238E+01 6.669E+00 3.013E+01 3.280E+01 5.792E+06 15.6124 1.00000
  7.079E+07 7.080E+07 2.689E+00 1.218E+00 2.518E+01 7.607E+00 3.400E+01 3.669E+01 6.015E+06 15.8427 1.00000
  7.943E+07 7.943E+07 2.701E+00 1.379E+00 2.832E+01 8.678E+00 3.837E+01 4.107E+01 6.237E+06 16.0729 1.00000
  8.913E+07 8.913E+07 2.713E+00 1.561E+00 3.184E+01 9.901E+00 4.330E+01 4.601E+01 6.461E+06 16.3032 1.00000
  1.000E+08 1.000E+08 2.726E+00 1.766E+00 3.579E+01 1.130E+01 4.886E+01 5.158E+01 6.684E+06 16.5334 1.00000
  1.122E+08 1.122E+08 2.738E+00 1.998E+00 4.023E+01 1.289E+01 5.512E+01 5.786E+01 6.908E+06 16.7637 1.00000
  1.259E+08 1.259E+08 2.750E+00 2.260E+00 4.521E+01 1.471E+01 6.219E+01 6.494E+01 7.132E+06 16.9939 1.00000
  1.413E+08 1.413E+08 2.763E+00 2.556E+00 5.081E+01 1.680E+01 7.016E+01 7.292E+01 7.355E+06 17.2242 1.00000
  1.585E+08 1.585E+08 2.775E+00 2.889E+00 5.709E+01 1.917E+01 7.915E+01 8.192E+01 7.579E+06 17.4545 1.00000
  1.778E+08 1.778E+08 2.787E+00 3.265E+00 6.414E+01 2.189E+01 8.929E+01 9.207E+01 7.802E+06 17.6847 1.00000
  1.995E+08 1.995E+08 2.800E+00 3.688E+00 7.205E+01 2.499E+01 1.007E+02 1.035E+02 8.024E+06 17.9150 1.00000
  2.239E+08 2.239E+08 2.813E+00 4.166E+00 8.093E+01 2.853E+01 1.136E+02 1.164E+02 8.247E+06 18.1452 1.00000
  2.512E+08 2.512E+08 2.825E+00 4.704E+00 9.089E+01 3.258E+01 1.282E+02 1.310E+02 8.468E+06 18.3755 1.00000
  2.818E+08 2.818E+08 2.838E+00 5.309E+00 1.021E+02 3.720E+01 1.446E+02 1.474E+02 8.689E+06 18.6057 1.00000
  3.162E+08 3.162E+08 2.850E+00 5.992E+00 1.146E+02 4.249E+01 1.631E+02 1.660E+02 8.909E+06 18.8360 1.00000
  3.548E+08 3.548E+08 2.863E+00 6.760E+00 1.287E+02 4.852E+01 1.840E+02 1.869E+02 9.129E+06 19.0663 1.00000
  3.981E+08 3.981E+08 2.876E+00 7.625E+00 1.445E+02 5.542E+01 2.076E+02 2.104E+02 9.348E+06 19.2965 1.00000
  4.467E+08 4.467E+08 2.889E+00 8.599E+00 1.623E+02 6.331E+01 2.342E+02 2.370E+02 9.565E+06 19.5268 1.00000
  5.012E+08 5.012E+08 2.902E+00 9.695E+00 1.822E+02 7.232E+01 2.642E+02 2.671E+02 9.782E+06 19.7570 1.00000
  5.623E+08 5.623E+08 2.915E+00 1.093E+01 2.045E+02 8.262E+01 2.980E+02 3.010E+02 9.999E+06 19.9873 1.00000
  6.310E+08 6.310E+08 2.928E+00 1.231E+01 2.296E+02 9.439E+01 3.363E+02 3.392E+02 1.021E+07 20.2175 1.00000
  7.079E+08 7.079E+08 2.941E+00 1.387E+01 2.577E+02 1.078E+02 3.794E+02 3.823E+02 1.043E+07 20.4478 1.00000
  7.943E+08 7.943E+08 2.954E+00 1.563E+01 2.892E+02 1.232E+02 4.281E+02 4.310E+02 1.064E+07 20.6781 1.00000
  8.913E+08 8.913E+08 2.968E+00 1.760E+01 3.247E+02 1.408E+02 4.831E+02 4.860E+02 1.085E+07 20.9083 1.00000
  1.000E+09 1.000E+09 2.981E+00 1.982E+01 3.644E+02 1.609E+02 5.451E+02 5.481E+02 1.106E+07 21.1386 1.00000
  1.122E+09 1.122E+09 2.994E+00 2.231E+01 4.090E+02 1.839E+02 6.152E+02 6.182E+02 1.127E+07 21.3688 1.00000
  1.259E+09 1.259E+09 3.008E+00 2.511E+01 4.590E+02 2.102E+02 6.943E+02 6.973E+02 1.148E+07 21.5991 1.00000
  1.413E+09 1.413E+09 3.021E+00 2.826E+01 5.151E+02 2.402E+02 7.836E+02 7.866E+02 1.169E+07 21.8293 1.00000
  1.585E+09 1.585E+09 3.035E+00 3.179E+01 5.781E+02 2.746E+02 8.845E+02 8.875E+02 1.190E+07 22.0596 1.00000
  1.778E+09 1.778E+09 3.049E+00 3.577E+01 6.488E+02 3.138E+02 9.984E+02 1.001E+03 1.210E+07 22.2899 1.00000
  1.995E+09 1.995E+09 3.063E+00 4.023E+01 7.281E+02 3.588E+02 1.127E+03 1.130E+03 1.231E+07 22.5201 1.00000
  2.239E+09 2.239E+09 3.076E+00 4.525E+01 8.171E+02 4.101E+02 1.272E+03 1.276E+03 1.251E+07 22.7504 1.00000
  2.512E+09 2.512E+09 3.090E+00 5.088E+01 9.169E+02 4.689E+02 1.437E+03 1.440E+03 1.271E+07 22.9806 1.00000
  2.818E+09 2.818E+09 3.104E+00 5.720E+01 1.029E+03 5.361E+02 1.622E+03 1.625E+03 1.291E+07 23.2109 1.00000
  3.162E+09 3.162E+09 3.119E+00 6.431E+01 1.155E+03 6.129E+02 1.832E+03 1.835E+03 1.311E+07 23.4412 1.00000
  3.548E+09 3.548E+09 3.133E+00 7.228E+01 1.296E+03 7.009E+02 2.069E+03 2.072E+03 1.331E+07 23.6714 1.00000
  3.981E+09 3.981E+09 3.147E+00 8.124E+01 1.454E+03 8.014E+02 2.337E+03 2.340E+03 1.351E+07 23.9017 1.00000
  4.467E+09 4.467E+09 3.161E+00 9.130E+01 1.631E+03 9.165E+02 2.639E+03 2.642E+03 1.370E+07 24.1319 1.00000
  5.012E+09 5.012E+09 3.176E+00 1.026E+02 1.831E+03 1.048E+03 2.981E+03 2.985E+03 1.390E+07 24.3622 1.00000
  5.623E+09 5.623E+09 3.190E+00 1.153E+02 2.054E+03 1.199E+03 3.368E+03 3.371E+03 1.409E+07 24.5924 1.00000
  6.310E+09 6.310E+09 3.205E+00 1.295E+02 2.305E+03 1.371E+03 3.806E+03 3.809E+03 1.428E+07 24.8227 1.00000
  7.079E+09 7.079E+09 3.219E+00 1.455E+02 2.586E+03 1.568E+03 4.300E+03 4.303E+03 1.447E+07 25.0530 1.00000
  7.943E+09 7.943E+09 3.234E+00 1.634E+02 2.902E+03 1.794E+03 4.859E+03 4.863E+03 1.466E+07 25.2832 1.00000
  8.913E+09 8.913E+09 3.249E+00 1.835E+02 3.256E+03 2.052E+03 5.492E+03 5.495E+03 1.485E+07 25.5135 1.00000
  1.000E+10 1.000E+10 3.264E+00 2.061E+02 3.654E+03 2.347E+03 6.207E+03 6.211E+03 1.504E+07 25.7437 1.00000
  1.122E+10 1.122E+10 3.279E+00 2.315E+02 4.100E+03 2.686E+03 7.017E+03 7.020E+03 1.522E+07 25.9740 1.00000
  1.259E+10 1.259E+10 3.294E+00 2.599E+02 4.600E+03 3.073E+03 7.933E+03 7.936E+03 1.541E+07 26.2043 1.00000
  1.413E+10 1.413E+10 3.309E+00 2.919E+02 5.162E+03 3.516E+03 8.969E+03 8.972E+03 1.559E+07 26.4345 1.00000
  1.585E+10 1.585E+10 3.324E+00 3.277E+02 5.791E+03 4.023E+03 1.014E+04 1.015E+04 1.577E+07 26.6648 1.00000
  1.778E+10 1.778E+10 3.340E+00 3.679E+02 6.498E+03 4.603E+03 1.147E+04 1.147E+04 1.595E+07 26.8950 1.00000
  1.995E+10 1.995E+10 3.355E+00 4.131E+02 7.291E+03 5.268E+03 1.297E+04 1.298E+04 1.613E+07 27.1253 1.00000
  2.239E+10 2.239E+10 3.371E+00 4.637E+02 8.181E+03 6.028E+03 1.467E+04 1.468E+04 1.630E+07 27.3556 1.00000
  2.512E+10 2.512E+10 3.386E+00 5.206E+02 9.179E+03 6.899E+03 1.660E+04 1.660E+04 1.648E+07 27.5858 1.00000
  2.818E+10 2.818E+10 3.402E+00 5.844E+02 1.030E+04 7.896E+03 1.878E+04 1.878E+04 1.665E+07 27.8161 1.00000
  3.162E+10 3.162E+10 3.418E+00 6.560E+02 1.156E+04 9.038E+03 2.125E+04 2.125E+04 1.683E+07 28.0463 1.00000
  3.548E+10 3.548E+10 3.434E+00 7.363E+02 1.297E+04 1.035E+04 2.405E+04 2.405E+04 1.700E+07 28.2766 1.00000
  3.981E+10 3.981E+10 3.449E+00 8.265E+02 1.455E+04 1.184E+04 2.722E+04 2.722E+04 1.717E+07 28.5068 1.00000
  4.467E+10 4.467E+10 3.466E+00 9.276E+02 1.632E+04 1.356E+04 3.081E+04 3.081E+04 1.733E+07 28.7371 1.00000
  5.012E+10 5.012E+10 3.482E+00 1.041E+03 1.831E+04 1.552E+04 3.488E+04 3.488E+04 1.750E+07 28.9674 1.00000
  5.623E+10 5.623E+10 3.498E+00 1.169E+03 2.055E+04 1.777E+04 3.949E+04 3.949E+04 1.767E+07 29.1976 1.00000
  6.310E+10 6.310E+10 3.514E+00 1.311E+03 2.306E+04 2.034E+04 4.471E+04 4.471E+04 1.783E+07 29.4279 1.00000
  7.079E+10 7.079E+10 3.531E+00 1.472E+03 2.587E+04 2.329E+04 5.063E+04 5.064E+04 1.799E+07 29.6581 1.00000
  7.943E+10 7.943E+10 3.547E+00 1.652E+03 2.902E+04 2.667E+04 5.735E+04 5.735E+04 1.815E+07 29.8884 1.00000
  8.913E+10 8.913E+10 3.564E+00 1.854E+03 3.256E+04 3.054E+04 6.496E+04 6.497E+04 1.831E+07 30.1187 1.00000
  1.000E+11 1.000E+11 3.580E+00 2.080E+03 3.654E+04 3.498E+04 7.360E+04 7.360E+04 1.847E+07 30.3489 1.00000
  1.122E+11 1.122E+11 3.597E+00 2.334E+03 4.099E+04 4.006E+04 8.339E+04 8.339E+04 1.862E+07 30.5792 1.00000
  1.259E+11 1.259E+11 3.614E+00 2.620E+03 4.600E+04 4.588E+04 9.450E+04 9.450E+04 1.878E+07 30.8094 1.00000
  1.413E+11 1.413E+11 3.631E+00 2.940E+03 5.161E+04 5.255E+04 1.071E+05 1.071E+05 1.893E+07 31.0397 1.00000
  1.585E+11 1.585E+11 3.648E+00 3.299E+03 5.790E+04 6.019E+04 1.214E+05 1.214E+05 1.908E+07 31.2699 1.00000
  1.778E+11 1.778E+11 3.665E+00 3.702E+03 6.497E+04 6.895E+04 1.376E+05 1.376E+05 1.923E+07 31.5002 1.00000
  1.995E+11 1.995E+11 3.682E+00 4.154E+03 7.289E+04 7.898E+04 1.560E+05 1.560E+05 1.938E+07 31.7305 1.00000
  2.239E+11 2.239E+11 3.700E+00 4.661E+03 8.178E+04 9.048E+04 1.769E+05 1.769E+05 1.953E+07 31.9607 1.00000
  2.512E+11 2.512E+11 3.717E+00 5.231E+03 9.176E+04 1.037E+05 2.007E+05 2.007E+05 1.967E+07 32.1910 1.00000
  2.818E+11 2.818E+11 3.735E+00 5.869E+03 1.030E+05 1.188E+05 2.276E+05 2.276E+05 1.982E+07 32.4212 1.00000
  3.162E+11 3.162E+11 3.752E+00 6.586E+03 1.155E+05 1.361E+05 2.582E+05 2.582E+05 1.996E+07 32.6515 1.00000
  3.548E+11 3.548E+11 3.770E+00 7.390E+03 1.296E+05 1.559E+05 2.929E+05 2.929E+05 2.010E+07 32.8818 1.00000
  3.981E+11 3.981E+11 3.788E+00 8.292E+03 1.454E+05 1.787E+05 3.324E+05 3.324E+05 2.024E+07 33.1120 1.00000
  4.467E+11 4.467E+11 3.806E+00 9.304E+03 1.631E+05 2.048E+05 3.772E+05 3.772E+05 2.038E+07 33.3423 1.00000
  5.012E+11 5.012E+11 3.824E+00 1.044E+04 1.830E+05 2.347E+05 4.281E+05 4.281E+05 2.051E+07 33.5725 1.00000
  5.623E+11 5.623E+11 3.842E+00 1.171E+04 2.054E+05 2.689E+05 4.860E+05 4.860E+05 2.065E+07 33.8028 1.00000
  6.310E+11 6.310E+11 3.860E+00 1.314E+04 2.304E+05 3.082E+05 5.518E+05 5.518E+05 2.078E+07 34.0330 1.00000
  7.079E+11 7.079E+11 3.879E+00 1.475E+04 2.585E+05 3.533E+05 6.266E+05 6.266E+05 2.091E+07 34.2633 1.00000
  7.943E+11 7.943E+11 3.897E+00 1.655E+04 2.901E+05 4.050E+05 7.116E+05 7.116E+05 2.104E+07 34.4936 1.00000
  8.913E+11 8.913E+11 3.916E+00 1.857E+04 3.255E+05 4.642E+05 8.082E+05 8.082E+05 2.117E+07 34.7238 1.00000
  1.000E+12 1.000E+12 3.934E+00 2.084E+04 3.652E+05 5.322E+05 9.182E+05 9.182E+05 2.130E+07 34.9541 1.00000
  1.122E+12 1.122E+12 3.953E+00 2.338E+04 4.097E+05 6.101E+05 1.043E+06 1.043E+06 2.142E+07 35.1843 1.00000
  1.259E+12 1.259E+12 3.972E+00 2.623E+04 4.597E+05 6.995E+05 1.185E+06 1.185E+06 2.154E+07 35.4146 1.00000
  1.413E+12 1.413E+12 3.991E+00 2.943E+04 5.157E+05 8.020E+05 1.347E+06 1.347E+06 2.167E+07 35.6449 1.00000
  1.585E+12 1.585E+12 4.010E+00 3.302E+04 5.786E+05 9.195E+05 1.531E+06 1.531E+06 2.179E+07 35.8751 1.00000
  1.778E+12 1.778E+12 4.029E+00 3.705E+04 6.492E+05 1.054E+06 1.741E+06 1.741E+06 2.190E+07 36.1054 1.00000
  1.995E+12 1.995E+12 4.049E+00 4.158E+04 7.284E+05 1.209E+06 1.979E+06 1.979E+06 2.202E+07 36.3356 1.00000
  2.239E+12 2.239E+12 4.068E+00 4.665E+04 8.173E+05 1.387E+06 2.250E+06 2.250E+06 2.214E+07 36.5659 1.00000
  2.512E+12 2.512E+12 4.088E+00 5.234E+04 9.169E+05 1.590E+06 2.559E+06 2.559E+06 2.225E+07 36.7961 1.00000
  2.818E+12 2.818E+12 4.107E+00 5.873E+04 1.029E+06 1.824E+06 2.911E+06 2.911E+06 2.236E+07 37.0264 1.00000
  3.162E+12 3.162E+12 4.127E+00 6.590E+04 1.154E+06 2.092E+06 3.312E+06 3.312E+06 2.247E+07 37.2567 1.00000
  3.548E+12 3.548E+12 4.147E+00 7.394E+04 1.295E+06 2.399E+06 3.768E+06 3.768E+06 2.258E+07 37.4869 1.00000
  3.981E+12 3.981E+12 4.167E+00 8.296E+04 1.453E+06 2.752E+06 4.288E+06 4.288E+06 2.269E+07 37.7172 1.00000
  4.467E+12 4.467E+12 4.187E+00 9.308E+04 1.630E+06 3.157E+06 4.880E+06 4.880E+06 2.280E+07 37.9474 1.00000
  5.012E+12 5.012E+12 4.207E+00 1.044E+05 1.829E+06 3.622E+06 5.555E+06 5.555E+06 2.290E+07 38.1777 1.00000
  5.623E+12 5.623E+12 4.227E+00 1.172E+05 2.052E+06 4.155E+06 6.324E+06 6.324E+06 2.301E+07 38.4080 1.00000
  6.310E+12 6.310E+12 4.247E+00 1.315E+05 2.302E+06 4.767E+06 7.201E+06 7.201E+06 2.311E+07 38.6382 1.00000
  7.079E+12 7.079E+12 4.268E+00 1.475E+05 2.583E+06 5.469E+06 8.200E+06 8.200E+06 2.321E+07 38.8685 1.00000
  7.943E+12 7.943E+12 4.289E+00 1.655E+05 2.898E+06 6.275E+06 9.339E+06 9.339E+06 2.331E+07 39.0987 1.00000
  8.913E+12 8.913E+12 4.309E+00 1.857E+05 3.252E+06 7.201E+06 1.064E+07 1.064E+07 2.341E+07 39.3290 1.00000
  1.000E+13 1.000E+13 4.330E+00 2.084E+05 3.648E+06 8.263E+06 1.212E+07 1.212E+07 2.350E+07 39.5593 1.00000
  1.122E+13 1.122E+13 4.351E+00 2.338E+05 4.093E+06 9.482E+06 1.381E+07 1.381E+07 2.360E+07 39.7895 1.00000
  1.259E+13 1.259E+13 4.372E+00 2.624E+05 4.593E+06 1.088E+07 1.574E+07 1.574E+07 2.369E+07 40.0198 1.00000
  1.413E+13 1.413E+13 4.393E+00 2.944E+05 5.153E+06 1.249E+07 1.794E+07 1.794E+07 2.378E+07 40.2500 1.00000
  1.585E+13 1.585E+13 4.414E+00 3.303E+05 5.781E+06 1.433E+07 2.045E+07 2.045E+07 2.387E+07 40.4803 1.00000
  1.778E+13 1.778E+13 4.436E+00 3.706E+05 6.486E+06 1.645E+07 2.331E+07 2.331E+07 2.396E+07 40.7105 1.00000
  1.995E+13 1.995E+13 4.457E+00 4.158E+05 7.277E+06 1.889E+07 2.658E+07 2.658E+07 2.405E+07 40.9408 1.00000
  2.239E+13 2.239E+13 4.479E+00 4.665E+05 8.165E+06 2.168E+07 3.031E+07 3.031E+07 2.413E+07 41.1711 1.00000
  2.512E+13 2.512E+13 4.501E+00 5.235E+05 9.161E+06 2.489E+07 3.457E+07 3.457E+07 2.422E+07 41.4013 1.00000
  2.818E+13 2.818E+13 4.523E+00 5.873E+05 1.028E+07 2.857E+07 3.944E+07 3.944E+07 2.430E+07 41.6316 1.00000
  3.162E+13 3.162E+13 4.545E+00 6.590E+05 1.153E+07 3.280E+07 4.499E+07 4.499E+07 2.438E+07 41.8618 1.00000
  3.548E+13 3.548E+13 4.567E+00 7.394E+05 1.294E+07 3.766E+07 5.134E+07 5.134E+07 2.446E+07 42.0921 1.00000
  3.981E+13 3.981E+13 4.589E+00 8.296E+05 1.452E+07 4.324E+07 5.859E+07 5.859E+07 2.454E+07 42.3224 1.00000
  4.467E+13 4.467E+13 4.611E+00 9.309E+05 1.629E+07 4.965E+07 6.687E+07 6.687E+07 2.462E+07 42.5526 1.00000
  5.012E+13 5.012E+13 4.634E+00 1.044E+06 1.827E+07 5.701E+07 7.633E+07 7.633E+07 2.470E+07 42.7829 1.00000
  5.623E+13 5.623E+13 4.656E+00 1.172E+06 2.050E+07 6.547E+07 8.714E+07 8.714E+07 2.477E+07 43.0131 1.00000
  6.310E+13 6.310E+13 4.679E+00 1.315E+06 2.300E+07 7.519E+07 9.950E+07 9.950E+07 2.485E+07 43.2434 1.00000
  7.079E+13 7.079E+13 4.702E+00 1.475E+06 2.581E+07 8.635E+07 1.136E+08 1.136E+08 2.492E+07 43.4736 1.00000
  7.943E+13 7.943E+13 4.725E+00 1.655E+06 2.895E+07 9.917E+07 1.298E+08 1.298E+08 2.499E+07 43.7039 1.00000
  8.913E+13 8.913E+13 4.748E+00 1.857E+06 3.248E+07 1.139E+08 1.482E+08 1.482E+08 2.506E+07 43.9342 1.00000
