 Incident particle is a Tau with M = 1776.82000 MeV
 Index = 0: Lawrencium
      Absorber with <Z/A> = 0.39296
 Sternheimer coef:  a     k=m_s   x_0    x_1    I[eV]   Cbar  delta0
                 0.2671  3.0000  0.6045  3.0000 1034.0  6.4555 0.00

 *** Table generated with PUMAS v1.00 ***

      T         p     Ionization  brems     pair     photonuc  Radloss    dE/dx   CSDA Range  delta   beta
    [MeV]    [MeV/c]  -----------------------[MeV cm^2/g]------------------------  [g/cm^2]
  1.000E+05 1.018E+05 1.567E+00 1.276E-03 2.310E-02 7.486E-03 3.186E-02 1.599E+00 3.127E+04  2.1519 0.99985
  1.122E+05 1.140E+05 1.585E+00 1.481E-03 2.764E-02 8.397E-03 3.752E-02 1.622E+00 3.885E+04  2.3200 0.99988
  1.259E+05 1.277E+05 1.602E+00 1.717E-03 3.299E-02 9.370E-03 4.407E-02 1.646E+00 4.723E+04  2.4930 0.99990
  1.413E+05 1.430E+05 1.619E+00 1.990E-03 3.925E-02 1.046E-02 5.170E-02 1.671E+00 5.649E+04  2.6708 0.99992
  1.585E+05 1.603E+05 1.636E+00 2.304E-03 4.659E-02 1.167E-02 6.056E-02 1.697E+00 6.673E+04  2.8531 0.99994
  1.778E+05 1.796E+05 1.653E+00 2.667E-03 5.517E-02 1.301E-02 7.084E-02 1.724E+00 7.803E+04  3.0397 0.99995
  1.995E+05 2.013E+05 1.669E+00 3.085E-03 6.516E-02 1.453E-02 8.278E-02 1.752E+00 9.052E+04  3.2304 0.99996
  2.239E+05 2.256E+05 1.686E+00 3.567E-03 7.680E-02 1.618E-02 9.654E-02 1.782E+00 1.043E+05  3.4250 0.99997
  2.512E+05 2.530E+05 1.702E+00 4.121E-03 9.031E-02 1.801E-02 1.124E-01 1.814E+00 1.195E+05  3.6234 0.99998
  2.818E+05 2.836E+05 1.718E+00 4.759E-03 1.060E-01 2.007E-02 1.308E-01 1.849E+00 1.362E+05  3.8252 0.99998
  3.162E+05 3.180E+05 1.733E+00 5.492E-03 1.241E-01 2.238E-02 1.520E-01 1.885E+00 1.546E+05  4.0304 0.99998
  3.548E+05 3.566E+05 1.749E+00 6.335E-03 1.450E-01 2.496E-02 1.763E-01 1.925E+00 1.749E+05  4.2386 0.99999
  3.981E+05 3.999E+05 1.764E+00 7.302E-03 1.692E-01 2.783E-02 2.043E-01 1.969E+00 1.971E+05  4.4498 0.99999
  4.467E+05 4.485E+05 1.780E+00 8.413E-03 1.970E-01 3.103E-02 2.365E-01 2.016E+00 2.215E+05  4.6636 0.99999
  5.012E+05 5.030E+05 1.795E+00 9.687E-03 2.290E-01 3.461E-02 2.733E-01 2.068E+00 2.482E+05  4.8799 0.99999
  5.623E+05 5.641E+05 1.809E+00 1.115E-02 2.657E-01 3.847E-02 3.153E-01 2.125E+00 2.774E+05  5.0984 1.00000
  6.310E+05 6.327E+05 1.824E+00 1.282E-02 3.079E-01 4.279E-02 3.635E-01 2.188E+00 3.092E+05  5.3190 1.00000
  7.079E+05 7.097E+05 1.839E+00 1.474E-02 3.561E-01 4.766E-02 4.185E-01 2.257E+00 3.439E+05  5.5415 1.00000
  7.943E+05 7.961E+05 1.853E+00 1.694E-02 4.113E-01 5.314E-02 4.814E-01 2.334E+00 3.815E+05  5.7656 1.00000
  8.913E+05 8.930E+05 1.867E+00 1.946E-02 4.744E-01 5.931E-02 5.531E-01 2.420E+00 4.223E+05  5.9912 1.00000
  1.000E+06 1.002E+06 1.881E+00 2.234E-02 5.463E-01 6.626E-02 6.349E-01 2.516E+00 4.664E+05  6.2180 1.00000
  1.122E+06 1.124E+06 1.895E+00 2.563E-02 6.284E-01 7.412E-02 7.281E-01 2.624E+00 5.139E+05  6.4459 1.00000
  1.259E+06 1.261E+06 1.909E+00 2.939E-02 7.218E-01 8.300E-02 8.342E-01 2.744E+00 5.649E+05  6.6746 1.00000
  1.413E+06 1.414E+06 1.923E+00 3.369E-02 8.281E-01 9.303E-02 9.549E-01 2.878E+00 6.196E+05  6.9039 1.00000
  1.585E+06 1.587E+06 1.937E+00 3.861E-02 9.490E-01 1.044E-01 1.092E+00 3.029E+00 6.780E+05  7.1337 1.00000
  1.778E+06 1.780E+06 1.950E+00 4.422E-02 1.086E+00 1.173E-01 1.248E+00 3.198E+00 7.401E+05  7.3636 1.00000
  1.995E+06 1.997E+06 1.964E+00 5.063E-02 1.242E+00 1.318E-01 1.424E+00 3.388E+00 8.061E+05  7.5937 1.00000
  2.239E+06 2.240E+06 1.977E+00 5.794E-02 1.418E+00 1.484E-01 1.625E+00 3.602E+00 8.758E+05  7.8238 1.00000
  2.512E+06 2.514E+06 1.990E+00 6.627E-02 1.618E+00 1.671E-01 1.852E+00 3.842E+00 9.493E+05  8.0538 1.00000
  2.818E+06 2.820E+06 2.003E+00 7.578E-02 1.845E+00 1.884E-01 2.109E+00 4.112E+00 1.026E+06  8.2839 1.00000
  3.162E+06 3.164E+06 2.016E+00 8.661E-02 2.101E+00 2.126E-01 2.400E+00 4.416E+00 1.107E+06  8.5141 1.00000
  3.548E+06 3.550E+06 2.029E+00 9.896E-02 2.390E+00 2.401E-01 2.730E+00 4.759E+00 1.191E+06  8.7442 1.00000
  3.981E+06 3.983E+06 2.042E+00 1.130E-01 2.718E+00 2.714E-01 3.102E+00 5.144E+00 1.279E+06  8.9744 1.00000
  4.467E+06 4.469E+06 2.054E+00 1.290E-01 3.087E+00 3.069E-01 3.523E+00 5.578E+00 1.370E+06  9.2045 1.00000
  5.012E+06 5.014E+06 2.067E+00 1.473E-01 3.504E+00 3.473E-01 3.999E+00 6.066E+00 1.464E+06  9.4347 1.00000
  5.623E+06 5.625E+06 2.079E+00 1.680E-01 3.975E+00 3.933E-01 4.536E+00 6.615E+00 1.560E+06  9.6649 1.00000
  6.310E+06 6.311E+06 2.092E+00 1.916E-01 4.505E+00 4.457E-01 5.142E+00 7.234E+00 1.659E+06  9.8951 1.00000
  7.079E+06 7.081E+06 2.104E+00 2.184E-01 5.103E+00 5.053E-01 5.827E+00 7.930E+00 1.761E+06 10.1253 1.00000
  7.943E+06 7.945E+06 2.116E+00 2.488E-01 5.777E+00 5.732E-01 6.599E+00 8.715E+00 1.865E+06 10.3555 1.00000
  8.913E+06 8.914E+06 2.128E+00 2.835E-01 6.536E+00 6.506E-01 7.470E+00 9.597E+00 1.971E+06 10.5857 1.00000
  1.000E+07 1.000E+07 2.139E+00 3.228E-01 7.390E+00 7.388E-01 8.452E+00 1.059E+01 2.079E+06 10.8159 1.00000
  1.122E+07 1.122E+07 2.151E+00 3.674E-01 8.352E+00 8.392E-01 9.559E+00 1.171E+01 2.189E+06 11.0461 1.00000
  1.259E+07 1.259E+07 2.162E+00 4.181E-01 9.435E+00 9.537E-01 1.081E+01 1.297E+01 2.300E+06 11.2763 1.00000
  1.413E+07 1.413E+07 2.174E+00 4.756E-01 1.065E+01 1.084E+00 1.221E+01 1.439E+01 2.413E+06 11.5066 1.00000
  1.585E+07 1.585E+07 2.185E+00 5.408E-01 1.202E+01 1.233E+00 1.380E+01 1.598E+01 2.527E+06 11.7368 1.00000
  1.778E+07 1.778E+07 2.197E+00 6.148E-01 1.356E+01 1.403E+00 1.558E+01 1.778E+01 2.642E+06 11.9670 1.00000
  1.995E+07 1.995E+07 2.208E+00 6.986E-01 1.529E+01 1.597E+00 1.759E+01 1.980E+01 2.757E+06 12.1973 1.00000
  2.239E+07 2.239E+07 2.219E+00 7.936E-01 1.724E+01 1.817E+00 1.985E+01 2.207E+01 2.874E+06 12.4275 1.00000
  2.512E+07 2.512E+07 2.230E+00 9.012E-01 1.943E+01 2.069E+00 2.240E+01 2.463E+01 2.991E+06 12.6577 1.00000
  2.818E+07 2.819E+07 2.241E+00 1.023E+00 2.189E+01 2.357E+00 2.527E+01 2.751E+01 3.109E+06 12.8880 1.00000
  3.162E+07 3.162E+07 2.252E+00 1.161E+00 2.465E+01 2.685E+00 2.849E+01 3.075E+01 3.228E+06 13.1182 1.00000
  3.548E+07 3.548E+07 2.263E+00 1.317E+00 2.775E+01 3.059E+00 3.213E+01 3.439E+01 3.347E+06 13.3485 1.00000
  3.981E+07 3.981E+07 2.274E+00 1.494E+00 3.124E+01 3.486E+00 3.622E+01 3.849E+01 3.466E+06 13.5787 1.00000
  4.467E+07 4.467E+07 2.285E+00 1.693E+00 3.515E+01 3.974E+00 4.082E+01 4.310E+01 3.585E+06 13.8090 1.00000
  5.012E+07 5.012E+07 2.296E+00 1.919E+00 3.955E+01 4.530E+00 4.600E+01 4.829E+01 3.705E+06 14.0392 1.00000
  5.623E+07 5.624E+07 2.307E+00 2.174E+00 4.449E+01 5.165E+00 5.183E+01 5.413E+01 3.825E+06 14.2695 1.00000
  6.310E+07 6.310E+07 2.318E+00 2.462E+00 5.003E+01 5.891E+00 5.838E+01 6.070E+01 3.945E+06 14.4997 1.00000
  7.079E+07 7.080E+07 2.329E+00 2.788E+00 5.625E+01 6.719E+00 6.576E+01 6.809E+01 4.065E+06 14.7300 1.00000
  7.943E+07 7.943E+07 2.340E+00 3.155E+00 6.324E+01 7.664E+00 7.406E+01 7.640E+01 4.185E+06 14.9602 1.00000
  8.913E+07 8.913E+07 2.350E+00 3.570E+00 7.109E+01 8.743E+00 8.340E+01 8.575E+01 4.305E+06 15.1905 1.00000
  1.000E+08 1.000E+08 2.361E+00 4.039E+00 7.990E+01 9.976E+00 9.391E+01 9.627E+01 4.424E+06 15.4207 1.00000
  1.122E+08 1.122E+08 2.372E+00 4.567E+00 8.978E+01 1.138E+01 1.057E+02 1.081E+02 4.544E+06 15.6510 1.00000
  1.259E+08 1.259E+08 2.383E+00 5.163E+00 1.009E+02 1.299E+01 1.190E+02 1.214E+02 4.664E+06 15.8812 1.00000
  1.413E+08 1.413E+08 2.394E+00 5.834E+00 1.133E+02 1.483E+01 1.340E+02 1.364E+02 4.783E+06 16.1115 1.00000
  1.585E+08 1.585E+08 2.406E+00 6.592E+00 1.273E+02 1.692E+01 1.508E+02 1.532E+02 4.903E+06 16.3418 1.00000
  1.778E+08 1.778E+08 2.417E+00 7.445E+00 1.430E+02 1.932E+01 1.698E+02 1.722E+02 5.022E+06 16.5720 1.00000
  1.995E+08 1.995E+08 2.428E+00 8.406E+00 1.606E+02 2.206E+01 1.911E+02 1.935E+02 5.141E+06 16.8023 1.00000
  2.239E+08 2.239E+08 2.439E+00 9.490E+00 1.804E+02 2.518E+01 2.151E+02 2.175E+02 5.260E+06 17.0325 1.00000
  2.512E+08 2.512E+08 2.450E+00 1.071E+01 2.026E+02 2.876E+01 2.420E+02 2.445E+02 5.379E+06 17.2628 1.00000
  2.818E+08 2.818E+08 2.462E+00 1.208E+01 2.275E+02 3.284E+01 2.724E+02 2.748E+02 5.497E+06 17.4930 1.00000
  3.162E+08 3.162E+08 2.473E+00 1.363E+01 2.554E+02 3.750E+01 3.065E+02 3.090E+02 5.615E+06 17.7233 1.00000
  3.548E+08 3.548E+08 2.484E+00 1.537E+01 2.867E+02 4.283E+01 3.449E+02 3.474E+02 5.733E+06 17.9536 1.00000
  3.981E+08 3.981E+08 2.496E+00 1.733E+01 3.219E+02 4.892E+01 3.882E+02 3.907E+02 5.851E+06 18.1838 1.00000
  4.467E+08 4.467E+08 2.507E+00 1.953E+01 3.614E+02 5.588E+01 4.368E+02 4.393E+02 5.969E+06 18.4141 1.00000
  5.012E+08 5.012E+08 2.519E+00 2.200E+01 4.057E+02 6.383E+01 4.915E+02 4.940E+02 6.086E+06 18.6443 1.00000
  5.623E+08 5.623E+08 2.530E+00 2.479E+01 4.554E+02 7.292E+01 5.531E+02 5.556E+02 6.203E+06 18.8746 1.00000
  6.310E+08 6.310E+08 2.542E+00 2.792E+01 5.112E+02 8.331E+01 6.224E+02 6.250E+02 6.319E+06 19.1048 1.00000
  7.079E+08 7.079E+08 2.554E+00 3.144E+01 5.738E+02 9.518E+01 7.004E+02 7.029E+02 6.436E+06 19.3351 1.00000
  7.943E+08 7.943E+08 2.566E+00 3.540E+01 6.440E+02 1.088E+02 7.882E+02 7.907E+02 6.552E+06 19.5654 1.00000
  8.913E+08 8.913E+08 2.578E+00 3.985E+01 7.228E+02 1.243E+02 8.869E+02 8.895E+02 6.667E+06 19.7956 1.00000
  1.000E+09 1.000E+09 2.589E+00 4.485E+01 8.112E+02 1.420E+02 9.981E+02 1.001E+03 6.783E+06 20.0259 1.00000
  1.122E+09 1.122E+09 2.601E+00 5.047E+01 9.104E+02 1.623E+02 1.123E+03 1.126E+03 6.898E+06 20.2561 1.00000
  1.259E+09 1.259E+09 2.613E+00 5.678E+01 1.022E+03 1.855E+02 1.264E+03 1.267E+03 7.013E+06 20.4864 1.00000
  1.413E+09 1.413E+09 2.626E+00 6.387E+01 1.147E+03 2.120E+02 1.423E+03 1.425E+03 7.127E+06 20.7166 1.00000
  1.585E+09 1.585E+09 2.638E+00 7.183E+01 1.287E+03 2.423E+02 1.601E+03 1.604E+03 7.242E+06 20.9469 1.00000
  1.778E+09 1.778E+09 2.650E+00 8.078E+01 1.444E+03 2.770E+02 1.802E+03 1.804E+03 7.356E+06 21.1772 1.00000
  1.995E+09 1.995E+09 2.662E+00 9.082E+01 1.621E+03 3.166E+02 2.028E+03 2.031E+03 7.469E+06 21.4074 1.00000
  2.239E+09 2.239E+09 2.675E+00 1.021E+02 1.819E+03 3.619E+02 2.283E+03 2.285E+03 7.582E+06 21.6377 1.00000
  2.512E+09 2.512E+09 2.687E+00 1.148E+02 2.041E+03 4.138E+02 2.569E+03 2.572E+03 7.695E+06 21.8679 1.00000
  2.818E+09 2.818E+09 2.700E+00 1.290E+02 2.290E+03 4.731E+02 2.892E+03 2.895E+03 7.808E+06 22.0982 1.00000
  3.162E+09 3.162E+09 2.712E+00 1.450E+02 2.570E+03 5.409E+02 3.256E+03 3.258E+03 7.920E+06 22.3285 1.00000
  3.548E+09 3.548E+09 2.725E+00 1.629E+02 2.883E+03 6.185E+02 3.665E+03 3.668E+03 8.032E+06 22.5587 1.00000
  3.981E+09 3.981E+09 2.738E+00 1.830E+02 3.236E+03 7.073E+02 4.126E+03 4.129E+03 8.143E+06 22.7890 1.00000
  4.467E+09 4.467E+09 2.750E+00 2.056E+02 3.631E+03 8.088E+02 4.645E+03 4.648E+03 8.254E+06 23.0192 1.00000
  5.012E+09 5.012E+09 2.763E+00 2.310E+02 4.074E+03 9.250E+02 5.230E+03 5.233E+03 8.365E+06 23.2495 1.00000
  5.623E+09 5.623E+09 2.776E+00 2.595E+02 4.571E+03 1.058E+03 5.889E+03 5.891E+03 8.475E+06 23.4797 1.00000
  6.310E+09 6.310E+09 2.789E+00 2.914E+02 5.129E+03 1.210E+03 6.631E+03 6.633E+03 8.585E+06 23.7100 1.00000
  7.079E+09 7.079E+09 2.802E+00 3.273E+02 5.755E+03 1.384E+03 7.467E+03 7.469E+03 8.695E+06 23.9403 1.00000
  7.943E+09 7.943E+09 2.815E+00 3.676E+02 6.458E+03 1.583E+03 8.408E+03 8.411E+03 8.804E+06 24.1705 1.00000
  8.913E+09 8.913E+09 2.829E+00 4.127E+02 7.246E+03 1.811E+03 9.470E+03 9.472E+03 8.913E+06 24.4008 1.00000
  1.000E+10 1.000E+10 2.842E+00 4.635E+02 8.130E+03 2.072E+03 1.067E+04 1.067E+04 9.021E+06 24.6310 1.00000
  1.122E+10 1.122E+10 2.855E+00 5.204E+02 9.123E+03 2.370E+03 1.201E+04 1.202E+04 9.129E+06 24.8613 1.00000
  1.259E+10 1.259E+10 2.869E+00 5.842E+02 1.024E+04 2.712E+03 1.353E+04 1.353E+04 9.237E+06 25.0916 1.00000
  1.413E+10 1.413E+10 2.882E+00 6.559E+02 1.148E+04 3.103E+03 1.524E+04 1.525E+04 9.344E+06 25.3218 1.00000
  1.585E+10 1.585E+10 2.896E+00 7.364E+02 1.289E+04 3.550E+03 1.717E+04 1.718E+04 9.450E+06 25.5521 1.00000
  1.778E+10 1.778E+10 2.910E+00 8.266E+02 1.446E+04 4.062E+03 1.935E+04 1.935E+04 9.557E+06 25.7823 1.00000
  1.995E+10 1.995E+10 2.923E+00 9.279E+02 1.622E+04 4.649E+03 2.180E+04 2.180E+04 9.663E+06 26.0126 1.00000
  2.239E+10 2.239E+10 2.937E+00 1.042E+03 1.820E+04 5.320E+03 2.456E+04 2.457E+04 9.768E+06 26.2429 1.00000
  2.512E+10 2.512E+10 2.951E+00 1.169E+03 2.042E+04 6.088E+03 2.768E+04 2.768E+04 9.873E+06 26.4731 1.00000
  2.818E+10 2.818E+10 2.965E+00 1.312E+03 2.292E+04 6.968E+03 3.120E+04 3.120E+04 9.977E+06 26.7034 1.00000
  3.162E+10 3.162E+10 2.979E+00 1.473E+03 2.571E+04 7.976E+03 3.516E+04 3.516E+04 1.008E+07 26.9336 1.00000
  3.548E+10 3.548E+10 2.993E+00 1.653E+03 2.885E+04 9.130E+03 3.963E+04 3.963E+04 1.018E+07 27.1639 1.00000
  3.981E+10 3.981E+10 3.008E+00 1.855E+03 3.237E+04 1.045E+04 4.467E+04 4.468E+04 1.029E+07 27.3941 1.00000
  4.467E+10 4.467E+10 3.022E+00 2.082E+03 3.632E+04 1.196E+04 5.036E+04 5.037E+04 1.039E+07 27.6244 1.00000
  5.012E+10 5.012E+10 3.036E+00 2.337E+03 4.075E+04 1.370E+04 5.678E+04 5.678E+04 1.049E+07 27.8547 1.00000
  5.623E+10 5.623E+10 3.051E+00 2.623E+03 4.572E+04 1.568E+04 6.402E+04 6.403E+04 1.059E+07 28.0849 1.00000
  6.310E+10 6.310E+10 3.065E+00 2.943E+03 5.130E+04 1.795E+04 7.219E+04 7.220E+04 1.070E+07 28.3152 1.00000
  7.079E+10 7.079E+10 3.080E+00 3.303E+03 5.756E+04 2.056E+04 8.142E+04 8.142E+04 1.080E+07 28.5454 1.00000
  7.943E+10 7.943E+10 3.095E+00 3.707E+03 6.458E+04 2.354E+04 9.182E+04 9.183E+04 1.090E+07 28.7757 1.00000
  8.913E+10 8.913E+10 3.109E+00 4.159E+03 7.246E+04 2.695E+04 1.036E+05 1.036E+05 1.100E+07 29.0060 1.00000
  1.000E+11 1.000E+11 3.124E+00 4.668E+03 8.129E+04 3.087E+04 1.168E+05 1.168E+05 1.109E+07 29.2362 1.00000
  1.122E+11 1.122E+11 3.139E+00 5.238E+03 9.121E+04 3.535E+04 1.318E+05 1.318E+05 1.119E+07 29.4665 1.00000
  1.259E+11 1.259E+11 3.154E+00 5.877E+03 1.023E+05 4.049E+04 1.487E+05 1.487E+05 1.129E+07 29.6967 1.00000
  1.413E+11 1.413E+11 3.169E+00 6.595E+03 1.148E+05 4.637E+04 1.678E+05 1.678E+05 1.139E+07 29.9270 1.00000
  1.585E+11 1.585E+11 3.185E+00 7.401E+03 1.288E+05 5.312E+04 1.893E+05 1.894E+05 1.149E+07 30.1572 1.00000
  1.778E+11 1.778E+11 3.200E+00 8.304E+03 1.445E+05 6.085E+04 2.137E+05 2.137E+05 1.158E+07 30.3875 1.00000
  1.995E+11 1.995E+11 3.215E+00 9.318E+03 1.622E+05 6.970E+04 2.412E+05 2.412E+05 1.168E+07 30.6178 1.00000
  2.239E+11 2.239E+11 3.231E+00 1.046E+04 1.820E+05 7.985E+04 2.723E+05 2.723E+05 1.177E+07 30.8480 1.00000
  2.512E+11 2.512E+11 3.246E+00 1.173E+04 2.042E+05 9.148E+04 3.074E+05 3.074E+05 1.187E+07 31.0783 1.00000
  2.818E+11 2.818E+11 3.262E+00 1.316E+04 2.291E+05 1.048E+05 3.470E+05 3.470E+05 1.196E+07 31.3085 1.00000
  3.162E+11 3.162E+11 3.278E+00 1.477E+04 2.570E+05 1.201E+05 3.919E+05 3.919E+05 1.205E+07 31.5388 1.00000
  3.548E+11 3.548E+11 3.294E+00 1.658E+04 2.884E+05 1.376E+05 4.425E+05 4.425E+05 1.215E+07 31.7691 1.00000
  3.981E+11 3.981E+11 3.310E+00 1.860E+04 3.235E+05 1.577E+05 4.998E+05 4.998E+05 1.224E+07 31.9993 1.00000
  4.467E+11 4.467E+11 3.326E+00 2.087E+04 3.630E+05 1.807E+05 5.646E+05 5.646E+05 1.233E+07 32.2296 1.00000
  5.012E+11 5.012E+11 3.342E+00 2.342E+04 4.073E+05 2.071E+05 6.378E+05 6.378E+05 1.242E+07 32.4598 1.00000
  5.623E+11 5.623E+11 3.358E+00 2.627E+04 4.570E+05 2.373E+05 7.206E+05 7.206E+05 1.251E+07 32.6901 1.00000
  6.310E+11 6.310E+11 3.374E+00 2.948E+04 5.127E+05 2.720E+05 8.142E+05 8.142E+05 1.260E+07 32.9203 1.00000
  7.079E+11 7.079E+11 3.391E+00 3.308E+04 5.752E+05 3.118E+05 9.201E+05 9.201E+05 1.269E+07 33.1506 1.00000
  7.943E+11 7.943E+11 3.407E+00 3.711E+04 6.454E+05 3.574E+05 1.040E+06 1.040E+06 1.278E+07 33.3809 1.00000
  8.913E+11 8.913E+11 3.424E+00 4.164E+04 7.241E+05 4.097E+05 1.175E+06 1.175E+06 1.287E+07 33.6111 1.00000
  1.000E+12 1.000E+12 3.440E+00 4.673E+04 8.124E+05 4.696E+05 1.329E+06 1.329E+06 1.296E+07 33.8414 1.00000
  1.122E+12 1.122E+12 3.457E+00 5.243E+04 9.115E+05 5.384E+05 1.502E+06 1.502E+06 1.304E+07 34.0716 1.00000
  1.259E+12 1.259E+12 3.474E+00 5.883E+04 1.023E+06 6.173E+05 1.699E+06 1.699E+06 1.313E+07 34.3019 1.00000
  1.413E+12 1.413E+12 3.491E+00 6.601E+04 1.147E+06 7.077E+05 1.921E+06 1.921E+06 1.321E+07 34.5322 1.00000
  1.585E+12 1.585E+12 3.508E+00 7.406E+04 1.287E+06 8.115E+05 2.173E+06 2.173E+06 1.330E+07 34.7624 1.00000
  1.778E+12 1.778E+12 3.525E+00 8.310E+04 1.444E+06 9.305E+05 2.458E+06 2.458E+06 1.338E+07 34.9927 1.00000
  1.995E+12 1.995E+12 3.542E+00 9.324E+04 1.621E+06 1.067E+06 2.781E+06 2.781E+06 1.346E+07 35.2229 1.00000
  2.239E+12 2.239E+12 3.559E+00 1.046E+05 1.818E+06 1.224E+06 3.147E+06 3.147E+06 1.355E+07 35.4532 1.00000
  2.512E+12 2.512E+12 3.577E+00 1.174E+05 2.040E+06 1.403E+06 3.561E+06 3.561E+06 1.363E+07 35.6834 1.00000
  2.818E+12 2.818E+12 3.594E+00 1.317E+05 2.289E+06 1.609E+06 4.030E+06 4.030E+06 1.371E+07 35.9137 1.00000
  3.162E+12 3.162E+12 3.612E+00 1.478E+05 2.568E+06 1.846E+06 4.562E+06 4.562E+06 1.379E+07 36.1440 1.00000
  3.548E+12 3.548E+12 3.630E+00 1.658E+05 2.881E+06 2.117E+06 5.164E+06 5.164E+06 1.387E+07 36.3742 1.00000
  3.981E+12 3.981E+12 3.647E+00 1.860E+05 3.233E+06 2.429E+06 5.848E+06 5.848E+06 1.395E+07 36.6045 1.00000
  4.467E+12 4.467E+12 3.665E+00 2.087E+05 3.627E+06 2.786E+06 6.622E+06 6.622E+06 1.403E+07 36.8347 1.00000
  5.012E+12 5.012E+12 3.683E+00 2.342E+05 4.070E+06 3.196E+06 7.500E+06 7.500E+06 1.410E+07 37.0650 1.00000
  5.623E+12 5.623E+12 3.701E+00 2.628E+05 4.566E+06 3.667E+06 8.495E+06 8.495E+06 1.418E+07 37.2953 1.00000
  6.310E+12 6.310E+12 3.720E+00 2.949E+05 5.123E+06 4.207E+06 9.624E+06 9.624E+06 1.426E+07 37.5255 1.00000
  7.079E+12 7.079E+12 3.738E+00 3.308E+05 5.748E+06 4.826E+06 1.090E+07 1.090E+07 1.433E+07 37.7558 1.00000
  7.943E+12 7.943E+12 3.756E+00 3.712E+05 6.449E+06 5.538E+06 1.236E+07 1.236E+07 1.441E+07 37.9860 1.00000
  8.913E+12 8.913E+12 3.775E+00 4.165E+05 7.235E+06 6.355E+06 1.401E+07 1.401E+07 1.448E+07 38.2163 1.00000
  1.000E+13 1.000E+13 3.793E+00 4.673E+05 8.117E+06 7.292E+06 1.588E+07 1.588E+07 1.455E+07 38.4466 1.00000
  1.122E+13 1.122E+13 3.812E+00 5.243E+05 9.108E+06 8.368E+06 1.800E+07 1.800E+07 1.463E+07 38.6768 1.00000
  1.259E+13 1.259E+13 3.831E+00 5.883E+05 1.022E+07 9.603E+06 2.041E+07 2.041E+07 1.470E+07 38.9071 1.00000
  1.413E+13 1.413E+13 3.850E+00 6.601E+05 1.146E+07 1.102E+07 2.315E+07 2.315E+07 1.477E+07 39.1373 1.00000
  1.585E+13 1.585E+13 3.869E+00 7.407E+05 1.286E+07 1.265E+07 2.625E+07 2.625E+07 1.484E+07 39.3676 1.00000
  1.778E+13 1.778E+13 3.888E+00 8.310E+05 1.443E+07 1.452E+07 2.978E+07 2.978E+07 1.491E+07 39.5978 1.00000
  1.995E+13 1.995E+13 3.907E+00 9.324E+05 1.619E+07 1.667E+07 3.379E+07 3.379E+07 1.498E+07 39.8281 1.00000
  2.239E+13 2.239E+13 3.926E+00 1.046E+06 1.817E+07 1.913E+07 3.834E+07 3.834E+07 1.504E+07 40.0584 1.00000
  2.512E+13 2.512E+13 3.946E+00 1.174E+06 2.038E+07 2.196E+07 4.352E+07 4.352E+07 1.511E+07 40.2886 1.00000
  2.818E+13 2.818E+13 3.965E+00 1.317E+06 2.287E+07 2.521E+07 4.940E+07 4.940E+07 1.518E+07 40.5189 1.00000
  3.162E+13 3.162E+13 3.985E+00 1.478E+06 2.566E+07 2.895E+07 5.608E+07 5.608E+07 1.524E+07 40.7491 1.00000
  3.548E+13 3.548E+13 4.005E+00 1.658E+06 2.879E+07 3.323E+07 6.368E+07 6.368E+07 1.531E+07 40.9794 1.00000
  3.981E+13 3.981E+13 4.024E+00 1.860E+06 3.230E+07 3.816E+07 7.232E+07 7.232E+07 1.537E+07 41.2097 1.00000
  4.467E+13 4.467E+13 4.044E+00 2.087E+06 3.623E+07 4.382E+07 8.214E+07 8.214E+07 1.543E+07 41.4399 1.00000
  5.012E+13 5.012E+13 4.064E+00 2.342E+06 4.065E+07 5.031E+07 9.331E+07 9.331E+07 1.550E+07 41.6702 1.00000
  5.623E+13 5.623E+13 4.084E+00 2.628E+06 4.561E+07 5.778E+07 1.060E+08 1.060E+08 1.556E+07 41.9004 1.00000
  6.310E+13 6.310E+13 4.105E+00 2.949E+06 5.117E+07 6.635E+07 1.205E+08 1.205E+08 1.562E+07 42.1307 1.00000
  7.079E+13 7.079E+13 4.125E+00 3.308E+06 5.741E+07 7.620E+07 1.369E+08 1.369E+08 1.568E+07 42.3609 1.00000
  7.943E+13 7.943E+13 4.146E+00 3.712E+06 6.442E+07 8.752E+07 1.556E+08 1.556E+08 1.574E+07 42.5912 1.00000
  8.913E+13 8.913E+13 4.166E+00 4.165E+06 7.227E+07 1.005E+08 1.770E+08 1.770E+08 1.580E+07 42.8215 1.00000
