 Incident particle is a Tau with M = 1776.82000 MeV
 Index = 0: LeadFluoride
      Absorber with <Z/A> = 0.40782
 Sternheimer coef:  a     k=m_s   x_0    x_1    I[eV]   Cbar  delta0
                 0.2389  3.0000  0.4668  3.0000  635.4  6.0333 0.00

 *** Table generated with PUMAS v1.00 ***

      T         p     Ionization  brems     pair     photonuc  Radloss    dE/dx   CSDA Range  delta   beta
    [MeV]    [MeV/c]  -----------------------[MeV cm^2/g]------------------------  [g/cm^2]
  1.000E+05 1.018E+05 1.664E+00 9.073E-04 1.611E-02 7.651E-03 2.467E-02 1.689E+00 2.960E+04  2.5201 0.99985
  1.122E+05 1.140E+05 1.682E+00 1.052E-03 1.929E-02 8.594E-03 2.894E-02 1.711E+00 3.678E+04  2.6943 0.99988
  1.259E+05 1.277E+05 1.700E+00 1.219E-03 2.303E-02 9.603E-03 3.385E-02 1.734E+00 4.473E+04  2.8730 0.99990
  1.413E+05 1.430E+05 1.717E+00 1.412E-03 2.742E-02 1.073E-02 3.957E-02 1.757E+00 5.353E+04  3.0560 0.99992
  1.585E+05 1.603E+05 1.735E+00 1.635E-03 3.256E-02 1.199E-02 4.618E-02 1.781E+00 6.328E+04  3.2431 0.99994
  1.778E+05 1.796E+05 1.752E+00 1.892E-03 3.857E-02 1.339E-02 5.384E-02 1.805E+00 7.406E+04  3.4340 0.99995
  1.995E+05 2.013E+05 1.769E+00 2.187E-03 4.557E-02 1.497E-02 6.273E-02 1.831E+00 8.600E+04  3.6287 0.99996
  2.239E+05 2.256E+05 1.785E+00 2.528E-03 5.373E-02 1.670E-02 7.295E-02 1.858E+00 9.920E+04  3.8269 0.99997
  2.512E+05 2.530E+05 1.802E+00 2.919E-03 6.321E-02 1.862E-02 8.475E-02 1.887E+00 1.138E+05  4.0285 0.99998
  2.818E+05 2.836E+05 1.818E+00 3.370E-03 7.420E-02 2.077E-02 9.835E-02 1.916E+00 1.299E+05  4.2332 0.99998
  3.162E+05 3.180E+05 1.834E+00 3.887E-03 8.693E-02 2.320E-02 1.140E-01 1.948E+00 1.477E+05  4.4408 0.99998
  3.548E+05 3.566E+05 1.850E+00 4.482E-03 1.016E-01 2.591E-02 1.320E-01 1.982E+00 1.673E+05  4.6513 0.99999
  3.981E+05 3.999E+05 1.866E+00 5.165E-03 1.186E-01 2.893E-02 1.527E-01 2.019E+00 1.890E+05  4.8643 0.99999
  4.467E+05 4.485E+05 1.882E+00 5.948E-03 1.382E-01 3.229E-02 1.764E-01 2.058E+00 2.128E+05  5.0797 0.99999
  5.012E+05 5.030E+05 1.897E+00 6.847E-03 1.607E-01 3.607E-02 2.036E-01 2.101E+00 2.390E+05  5.2974 0.99999
  5.623E+05 5.641E+05 1.913E+00 7.878E-03 1.865E-01 4.014E-02 2.345E-01 2.147E+00 2.678E+05  5.5171 1.00000
  6.310E+05 6.327E+05 1.928E+00 9.059E-03 2.162E-01 4.472E-02 2.700E-01 2.198E+00 2.994E+05  5.7387 1.00000
  7.079E+05 7.097E+05 1.943E+00 1.041E-02 2.502E-01 4.986E-02 3.105E-01 2.253E+00 3.340E+05  5.9619 1.00000
  7.943E+05 7.961E+05 1.958E+00 1.196E-02 2.891E-01 5.566E-02 3.567E-01 2.314E+00 3.718E+05  6.1866 1.00000
  8.913E+05 8.930E+05 1.973E+00 1.373E-02 3.336E-01 6.219E-02 4.095E-01 2.382E+00 4.131E+05  6.4127 1.00000
  1.000E+06 1.002E+06 1.987E+00 1.576E-02 3.844E-01 6.957E-02 4.697E-01 2.457E+00 4.581E+05  6.6398 1.00000
  1.122E+06 1.124E+06 2.002E+00 1.808E-02 4.423E-01 7.790E-02 5.383E-01 2.540E+00 5.069E+05  6.8679 1.00000
  1.259E+06 1.261E+06 2.016E+00 2.073E-02 5.083E-01 8.732E-02 6.163E-01 2.632E+00 5.599E+05  7.0967 1.00000
  1.413E+06 1.414E+06 2.030E+00 2.376E-02 5.834E-01 9.798E-02 7.052E-01 2.735E+00 6.171E+05  7.3261 1.00000
  1.585E+06 1.587E+06 2.044E+00 2.722E-02 6.689E-01 1.100E-01 8.061E-01 2.851E+00 6.789E+05  7.5559 1.00000
  1.778E+06 1.780E+06 2.059E+00 3.118E-02 7.659E-01 1.237E-01 9.208E-01 2.979E+00 7.453E+05  7.7858 1.00000
  1.995E+06 1.997E+06 2.072E+00 3.569E-02 8.761E-01 1.392E-01 1.051E+00 3.123E+00 8.164E+05  8.0159 1.00000
  2.239E+06 2.240E+06 2.086E+00 4.083E-02 1.001E+00 1.568E-01 1.199E+00 3.285E+00 8.924E+05  8.2460 1.00000
  2.512E+06 2.514E+06 2.100E+00 4.670E-02 1.143E+00 1.768E-01 1.366E+00 3.466E+00 9.734E+05  8.4760 1.00000
  2.818E+06 2.820E+06 2.114E+00 5.340E-02 1.303E+00 1.994E-01 1.556E+00 3.670E+00 1.059E+06  8.7061 1.00000
  3.162E+06 3.164E+06 2.127E+00 6.103E-02 1.485E+00 2.252E-01 1.771E+00 3.898E+00 1.150E+06  8.9363 1.00000
  3.548E+06 3.550E+06 2.140E+00 6.972E-02 1.690E+00 2.544E-01 2.014E+00 4.155E+00 1.246E+06  9.1664 1.00000
  3.981E+06 3.983E+06 2.154E+00 7.962E-02 1.922E+00 2.877E-01 2.289E+00 4.443E+00 1.347E+06  9.3966 1.00000
  4.467E+06 4.469E+06 2.167E+00 9.089E-02 2.184E+00 3.256E-01 2.601E+00 4.767E+00 1.453E+06  9.6267 1.00000
  5.012E+06 5.014E+06 2.180E+00 1.037E-01 2.480E+00 3.686E-01 2.953E+00 5.132E+00 1.563E+06  9.8569 1.00000
  5.623E+06 5.625E+06 2.192E+00 1.183E-01 2.814E+00 4.177E-01 3.350E+00 5.543E+00 1.678E+06 10.0871 1.00000
  6.310E+06 6.311E+06 2.205E+00 1.349E-01 3.191E+00 4.735E-01 3.800E+00 6.005E+00 1.797E+06 10.3173 1.00000
  7.079E+06 7.081E+06 2.218E+00 1.538E-01 3.616E+00 5.370E-01 4.307E+00 6.525E+00 1.920E+06 10.5475 1.00000
  7.943E+06 7.945E+06 2.230E+00 1.753E-01 4.095E+00 6.094E-01 4.879E+00 7.110E+00 2.047E+06 10.7777 1.00000
  8.913E+06 8.914E+06 2.242E+00 1.997E-01 4.634E+00 6.919E-01 5.526E+00 7.768E+00 2.177E+06 11.0079 1.00000
  1.000E+07 1.000E+07 2.255E+00 2.274E-01 5.242E+00 7.858E-01 6.255E+00 8.510E+00 2.311E+06 11.2381 1.00000
  1.122E+07 1.122E+07 2.267E+00 2.588E-01 5.926E+00 8.929E-01 7.077E+00 9.344E+00 2.448E+06 11.4683 1.00000
  1.259E+07 1.259E+07 2.279E+00 2.945E-01 6.695E+00 1.015E+00 8.005E+00 1.028E+01 2.588E+06 11.6985 1.00000
  1.413E+07 1.413E+07 2.291E+00 3.350E-01 7.562E+00 1.154E+00 9.051E+00 1.134E+01 2.730E+06 11.9288 1.00000
  1.585E+07 1.585E+07 2.302E+00 3.810E-01 8.536E+00 1.313E+00 1.023E+01 1.253E+01 2.875E+06 12.1590 1.00000
  1.778E+07 1.778E+07 2.314E+00 4.331E-01 9.632E+00 1.494E+00 1.156E+01 1.387E+01 3.022E+06 12.3892 1.00000
  1.995E+07 1.995E+07 2.326E+00 4.922E-01 1.086E+01 1.700E+00 1.306E+01 1.538E+01 3.171E+06 12.6195 1.00000
  2.239E+07 2.239E+07 2.337E+00 5.592E-01 1.225E+01 1.936E+00 1.474E+01 1.708E+01 3.321E+06 12.8497 1.00000
  2.512E+07 2.512E+07 2.349E+00 6.351E-01 1.381E+01 2.204E+00 1.665E+01 1.899E+01 3.473E+06 13.0799 1.00000
  2.818E+07 2.819E+07 2.360E+00 7.210E-01 1.556E+01 2.511E+00 1.879E+01 2.115E+01 3.626E+06 13.3102 1.00000
  3.162E+07 3.162E+07 2.372E+00 8.183E-01 1.752E+01 2.861E+00 2.120E+01 2.357E+01 3.780E+06 13.5404 1.00000
  3.548E+07 3.548E+07 2.383E+00 9.284E-01 1.973E+01 3.260E+00 2.392E+01 2.630E+01 3.936E+06 13.7707 1.00000
  3.981E+07 3.981E+07 2.394E+00 1.053E+00 2.221E+01 3.715E+00 2.698E+01 2.938E+01 4.092E+06 14.0009 1.00000
  4.467E+07 4.467E+07 2.406E+00 1.194E+00 2.500E+01 4.235E+00 3.043E+01 3.284E+01 4.248E+06 14.2312 1.00000
  5.012E+07 5.012E+07 2.417E+00 1.353E+00 2.813E+01 4.829E+00 3.431E+01 3.673E+01 4.405E+06 14.4614 1.00000
  5.623E+07 5.624E+07 2.428E+00 1.533E+00 3.165E+01 5.506E+00 3.869E+01 4.112E+01 4.563E+06 14.6917 1.00000
  6.310E+07 6.310E+07 2.440E+00 1.737E+00 3.560E+01 6.280E+00 4.361E+01 4.605E+01 4.721E+06 14.9219 1.00000
  7.079E+07 7.080E+07 2.451E+00 1.967E+00 4.003E+01 7.163E+00 4.916E+01 5.161E+01 4.879E+06 15.1522 1.00000
  7.943E+07 7.943E+07 2.462E+00 2.226E+00 4.501E+01 8.171E+00 5.541E+01 5.787E+01 5.037E+06 15.3824 1.00000
  8.913E+07 8.913E+07 2.474E+00 2.520E+00 5.060E+01 9.322E+00 6.244E+01 6.491E+01 5.196E+06 15.6127 1.00000
  1.000E+08 1.000E+08 2.485E+00 2.851E+00 5.687E+01 1.064E+01 7.036E+01 7.284E+01 5.354E+06 15.8429 1.00000
  1.122E+08 1.122E+08 2.497E+00 3.224E+00 6.391E+01 1.214E+01 7.928E+01 8.177E+01 5.513E+06 16.0732 1.00000
  1.259E+08 1.259E+08 2.508E+00 3.645E+00 7.182E+01 1.385E+01 8.932E+01 9.183E+01 5.671E+06 16.3034 1.00000
  1.413E+08 1.413E+08 2.520E+00 4.120E+00 8.069E+01 1.581E+01 1.006E+02 1.031E+02 5.829E+06 16.5337 1.00000
  1.585E+08 1.585E+08 2.531E+00 4.656E+00 9.065E+01 1.805E+01 1.134E+02 1.159E+02 5.987E+06 16.7640 1.00000
  1.778E+08 1.778E+08 2.543E+00 5.259E+00 1.018E+02 2.060E+01 1.277E+02 1.302E+02 6.145E+06 16.9942 1.00000
  1.995E+08 1.995E+08 2.554E+00 5.940E+00 1.144E+02 2.352E+01 1.438E+02 1.464E+02 6.302E+06 17.2245 1.00000
  2.239E+08 2.239E+08 2.566E+00 6.706E+00 1.285E+02 2.686E+01 1.620E+02 1.646E+02 6.459E+06 17.4547 1.00000
  2.512E+08 2.512E+08 2.577E+00 7.569E+00 1.443E+02 3.067E+01 1.825E+02 1.851E+02 6.616E+06 17.6850 1.00000
  2.818E+08 2.818E+08 2.589E+00 8.541E+00 1.620E+02 3.502E+01 2.056E+02 2.082E+02 6.772E+06 17.9152 1.00000
  3.162E+08 3.162E+08 2.601E+00 9.636E+00 1.819E+02 3.999E+01 2.315E+02 2.341E+02 6.928E+06 18.1455 1.00000
  3.548E+08 3.548E+08 2.613E+00 1.087E+01 2.042E+02 4.568E+01 2.608E+02 2.634E+02 7.084E+06 18.3758 1.00000
  3.981E+08 3.981E+08 2.625E+00 1.225E+01 2.293E+02 5.217E+01 2.937E+02 2.964E+02 7.239E+06 18.6060 1.00000
  4.467E+08 4.467E+08 2.637E+00 1.381E+01 2.574E+02 5.959E+01 3.308E+02 3.335E+02 7.394E+06 18.8363 1.00000
  5.012E+08 5.012E+08 2.649E+00 1.557E+01 2.890E+02 6.808E+01 3.726E+02 3.753E+02 7.548E+06 19.0665 1.00000
  5.623E+08 5.623E+08 2.661E+00 1.754E+01 3.244E+02 7.777E+01 4.197E+02 4.224E+02 7.702E+06 19.2968 1.00000
  6.310E+08 6.310E+08 2.673E+00 1.976E+01 3.642E+02 8.885E+01 4.728E+02 4.754E+02 7.856E+06 19.5270 1.00000
  7.079E+08 7.079E+08 2.685E+00 2.226E+01 4.088E+02 1.015E+02 5.325E+02 5.352E+02 8.009E+06 19.7573 1.00000
  7.943E+08 7.943E+08 2.697E+00 2.506E+01 4.588E+02 1.160E+02 5.998E+02 6.025E+02 8.161E+06 19.9876 1.00000
  8.913E+08 8.913E+08 2.709E+00 2.822E+01 5.149E+02 1.325E+02 6.757E+02 6.784E+02 8.313E+06 20.2178 1.00000
  1.000E+09 1.000E+09 2.722E+00 3.176E+01 5.779E+02 1.515E+02 7.612E+02 7.639E+02 8.464E+06 20.4481 1.00000
  1.122E+09 1.122E+09 2.734E+00 3.574E+01 6.486E+02 1.731E+02 8.575E+02 8.602E+02 8.615E+06 20.6783 1.00000
  1.259E+09 1.259E+09 2.747E+00 4.022E+01 7.280E+02 1.978E+02 9.660E+02 9.688E+02 8.765E+06 20.9086 1.00000
  1.413E+09 1.413E+09 2.759E+00 4.525E+01 8.170E+02 2.261E+02 1.088E+03 1.091E+03 8.915E+06 21.1388 1.00000
  1.585E+09 1.585E+09 2.772E+00 5.090E+01 9.169E+02 2.584E+02 1.226E+03 1.229E+03 9.064E+06 21.3691 1.00000
  1.778E+09 1.778E+09 2.785E+00 5.724E+01 1.029E+03 2.954E+02 1.382E+03 1.384E+03 9.212E+06 21.5994 1.00000
  1.995E+09 1.995E+09 2.797E+00 6.437E+01 1.155E+03 3.377E+02 1.557E+03 1.560E+03 9.360E+06 21.8296 1.00000
  2.239E+09 2.239E+09 2.810E+00 7.238E+01 1.296E+03 3.860E+02 1.754E+03 1.757E+03 9.508E+06 22.0599 1.00000
  2.512E+09 2.512E+09 2.823E+00 8.137E+01 1.454E+03 4.413E+02 1.977E+03 1.980E+03 9.654E+06 22.2901 1.00000
  2.818E+09 2.818E+09 2.836E+00 9.146E+01 1.632E+03 5.046E+02 2.228E+03 2.231E+03 9.801E+06 22.5204 1.00000
  3.162E+09 3.162E+09 2.849E+00 1.028E+02 1.831E+03 5.769E+02 2.511E+03 2.514E+03 9.946E+06 22.7507 1.00000
  3.548E+09 3.548E+09 2.862E+00 1.155E+02 2.055E+03 6.597E+02 2.830E+03 2.833E+03 1.009E+07 22.9809 1.00000
  3.981E+09 3.981E+09 2.876E+00 1.298E+02 2.305E+03 7.544E+02 3.190E+03 3.192E+03 1.024E+07 23.2112 1.00000
  4.467E+09 4.467E+09 2.889E+00 1.458E+02 2.587E+03 8.627E+02 3.595E+03 3.598E+03 1.038E+07 23.4414 1.00000
  5.012E+09 5.012E+09 2.902E+00 1.639E+02 2.903E+03 9.866E+02 4.053E+03 4.056E+03 1.052E+07 23.6717 1.00000
  5.623E+09 5.623E+09 2.916E+00 1.841E+02 3.257E+03 1.128E+03 4.570E+03 4.572E+03 1.066E+07 23.9019 1.00000
  6.310E+09 6.310E+09 2.929E+00 2.068E+02 3.655E+03 1.291E+03 5.152E+03 5.155E+03 1.081E+07 24.1322 1.00000
  7.079E+09 7.079E+09 2.943E+00 2.322E+02 4.101E+03 1.476E+03 5.809E+03 5.812E+03 1.095E+07 24.3625 1.00000
  7.943E+09 7.943E+09 2.956E+00 2.608E+02 4.601E+03 1.688E+03 6.551E+03 6.554E+03 1.109E+07 24.5927 1.00000
  8.913E+09 8.913E+09 2.970E+00 2.929E+02 5.163E+03 1.931E+03 7.388E+03 7.390E+03 1.123E+07 24.8230 1.00000
  1.000E+10 1.000E+10 2.984E+00 3.289E+02 5.793E+03 2.210E+03 8.332E+03 8.335E+03 1.136E+07 25.0532 1.00000
  1.122E+10 1.122E+10 2.998E+00 3.693E+02 6.500E+03 2.528E+03 9.398E+03 9.401E+03 1.150E+07 25.2835 1.00000
  1.259E+10 1.259E+10 3.012E+00 4.147E+02 7.294E+03 2.892E+03 1.060E+04 1.060E+04 1.164E+07 25.5138 1.00000
  1.413E+10 1.413E+10 3.026E+00 4.656E+02 8.184E+03 3.309E+03 1.196E+04 1.196E+04 1.178E+07 25.7440 1.00000
  1.585E+10 1.585E+10 3.040E+00 5.227E+02 9.182E+03 3.786E+03 1.349E+04 1.349E+04 1.191E+07 25.9743 1.00000
  1.778E+10 1.778E+10 3.054E+00 5.868E+02 1.030E+04 4.333E+03 1.522E+04 1.523E+04 1.205E+07 26.2045 1.00000
  1.995E+10 1.995E+10 3.068E+00 6.587E+02 1.156E+04 4.958E+03 1.718E+04 1.718E+04 1.218E+07 26.4348 1.00000
  2.239E+10 2.239E+10 3.083E+00 7.394E+02 1.297E+04 5.674E+03 1.938E+04 1.939E+04 1.232E+07 26.6651 1.00000
  2.512E+10 2.512E+10 3.097E+00 8.300E+02 1.455E+04 6.494E+03 2.188E+04 2.188E+04 1.245E+07 26.8953 1.00000
  2.818E+10 2.818E+10 3.112E+00 9.317E+02 1.633E+04 7.432E+03 2.469E+04 2.470E+04 1.258E+07 27.1256 1.00000
  3.162E+10 3.162E+10 3.126E+00 1.046E+03 1.832E+04 8.507E+03 2.787E+04 2.788E+04 1.271E+07 27.3558 1.00000
  3.548E+10 3.548E+10 3.141E+00 1.174E+03 2.056E+04 9.738E+03 3.147E+04 3.147E+04 1.284E+07 27.5861 1.00000
  3.981E+10 3.981E+10 3.156E+00 1.317E+03 2.306E+04 1.115E+04 3.553E+04 3.553E+04 1.297E+07 27.8163 1.00000
  4.467E+10 4.467E+10 3.171E+00 1.479E+03 2.588E+04 1.276E+04 4.012E+04 4.012E+04 1.310E+07 28.0466 1.00000
  5.012E+10 5.012E+10 3.186E+00 1.659E+03 2.904E+04 1.461E+04 4.530E+04 4.531E+04 1.323E+07 28.2769 1.00000
  5.623E+10 5.623E+10 3.201E+00 1.862E+03 3.258E+04 1.672E+04 5.117E+04 5.117E+04 1.336E+07 28.5071 1.00000
  6.310E+10 6.310E+10 3.216E+00 2.090E+03 3.655E+04 1.915E+04 5.779E+04 5.780E+04 1.348E+07 28.7374 1.00000
  7.079E+10 7.079E+10 3.231E+00 2.345E+03 4.101E+04 2.193E+04 6.528E+04 6.529E+04 1.361E+07 28.9676 1.00000
  7.943E+10 7.943E+10 3.246E+00 2.632E+03 4.602E+04 2.511E+04 7.375E+04 7.376E+04 1.373E+07 29.1979 1.00000
  8.913E+10 8.913E+10 3.261E+00 2.954E+03 5.163E+04 2.875E+04 8.333E+04 8.334E+04 1.386E+07 29.4282 1.00000
  1.000E+11 1.000E+11 3.277E+00 3.315E+03 5.793E+04 3.292E+04 9.417E+04 9.417E+04 1.398E+07 29.6584 1.00000
  1.122E+11 1.122E+11 3.292E+00 3.720E+03 6.499E+04 3.771E+04 1.064E+05 1.064E+05 1.410E+07 29.8887 1.00000
  1.259E+11 1.259E+11 3.308E+00 4.174E+03 7.292E+04 4.318E+04 1.203E+05 1.203E+05 1.422E+07 30.1189 1.00000
  1.413E+11 1.413E+11 3.324E+00 4.684E+03 8.182E+04 4.946E+04 1.360E+05 1.360E+05 1.434E+07 30.3492 1.00000
  1.585E+11 1.585E+11 3.340E+00 5.256E+03 9.180E+04 5.666E+04 1.537E+05 1.537E+05 1.446E+07 30.5794 1.00000
  1.778E+11 1.778E+11 3.356E+00 5.898E+03 1.030E+05 6.490E+04 1.738E+05 1.738E+05 1.458E+07 30.8097 1.00000
  1.995E+11 1.995E+11 3.372E+00 6.618E+03 1.156E+05 7.434E+04 1.965E+05 1.965E+05 1.470E+07 31.0400 1.00000
  2.239E+11 2.239E+11 3.388E+00 7.426E+03 1.297E+05 8.517E+04 2.223E+05 2.223E+05 1.482E+07 31.2702 1.00000
  2.512E+11 2.512E+11 3.404E+00 8.333E+03 1.455E+05 9.757E+04 2.514E+05 2.514E+05 1.493E+07 31.5005 1.00000
  2.818E+11 2.818E+11 3.420E+00 9.350E+03 1.632E+05 1.118E+05 2.844E+05 2.844E+05 1.505E+07 31.7307 1.00000
  3.162E+11 3.162E+11 3.436E+00 1.049E+04 1.831E+05 1.281E+05 3.217E+05 3.217E+05 1.516E+07 31.9610 1.00000
  3.548E+11 3.548E+11 3.453E+00 1.177E+04 2.055E+05 1.468E+05 3.640E+05 3.640E+05 1.527E+07 32.1913 1.00000
  3.981E+11 3.981E+11 3.469E+00 1.321E+04 2.305E+05 1.682E+05 4.119E+05 4.119E+05 1.539E+07 32.4215 1.00000
  4.467E+11 4.467E+11 3.486E+00 1.482E+04 2.587E+05 1.927E+05 4.662E+05 4.662E+05 1.550E+07 32.6518 1.00000
  5.012E+11 5.012E+11 3.503E+00 1.663E+04 2.902E+05 2.209E+05 5.277E+05 5.277E+05 1.561E+07 32.8820 1.00000
  5.623E+11 5.623E+11 3.519E+00 1.866E+04 3.256E+05 2.531E+05 5.974E+05 5.974E+05 1.572E+07 33.1123 1.00000
  6.310E+11 6.310E+11 3.536E+00 2.094E+04 3.653E+05 2.901E+05 6.764E+05 6.764E+05 1.582E+07 33.3425 1.00000
  7.079E+11 7.079E+11 3.553E+00 2.349E+04 4.099E+05 3.325E+05 7.659E+05 7.659E+05 1.593E+07 33.5728 1.00000
  7.943E+11 7.943E+11 3.570E+00 2.636E+04 4.599E+05 3.812E+05 8.674E+05 8.674E+05 1.604E+07 33.8031 1.00000
  8.913E+11 8.913E+11 3.588E+00 2.958E+04 5.160E+05 4.369E+05 9.825E+05 9.825E+05 1.614E+07 34.0333 1.00000
  1.000E+12 1.000E+12 3.605E+00 3.319E+04 5.789E+05 5.009E+05 1.113E+06 1.113E+06 1.625E+07 34.2636 1.00000
  1.122E+12 1.122E+12 3.622E+00 3.724E+04 6.495E+05 5.742E+05 1.261E+06 1.261E+06 1.635E+07 34.4938 1.00000
  1.259E+12 1.259E+12 3.640E+00 4.178E+04 7.288E+05 6.584E+05 1.429E+06 1.429E+06 1.645E+07 34.7241 1.00000
  1.413E+12 1.413E+12 3.657E+00 4.688E+04 8.177E+05 7.549E+05 1.619E+06 1.619E+06 1.655E+07 34.9544 1.00000
  1.585E+12 1.585E+12 3.675E+00 5.260E+04 9.174E+05 8.655E+05 1.836E+06 1.836E+06 1.665E+07 35.1846 1.00000
  1.778E+12 1.778E+12 3.693E+00 5.902E+04 1.029E+06 9.925E+05 2.081E+06 2.081E+06 1.675E+07 35.4149 1.00000
  1.995E+12 1.995E+12 3.711E+00 6.622E+04 1.155E+06 1.138E+06 2.359E+06 2.359E+06 1.685E+07 35.6451 1.00000
  2.239E+12 2.239E+12 3.729E+00 7.430E+04 1.296E+06 1.305E+06 2.675E+06 2.675E+06 1.695E+07 35.8754 1.00000
  2.512E+12 2.512E+12 3.747E+00 8.337E+04 1.454E+06 1.497E+06 3.034E+06 3.034E+06 1.704E+07 36.1056 1.00000
  2.818E+12 2.818E+12 3.765E+00 9.355E+04 1.631E+06 1.717E+06 3.441E+06 3.441E+06 1.714E+07 36.3359 1.00000
  3.162E+12 3.162E+12 3.783E+00 1.050E+05 1.830E+06 1.969E+06 3.904E+06 3.904E+06 1.723E+07 36.5662 1.00000
  3.548E+12 3.548E+12 3.801E+00 1.178E+05 2.053E+06 2.258E+06 4.429E+06 4.429E+06 1.733E+07 36.7964 1.00000
  3.981E+12 3.981E+12 3.820E+00 1.321E+05 2.304E+06 2.590E+06 5.026E+06 5.026E+06 1.742E+07 37.0267 1.00000
  4.467E+12 4.467E+12 3.838E+00 1.483E+05 2.585E+06 2.972E+06 5.704E+06 5.704E+06 1.751E+07 37.2569 1.00000
  5.012E+12 5.012E+12 3.857E+00 1.664E+05 2.900E+06 3.409E+06 6.475E+06 6.475E+06 1.760E+07 37.4872 1.00000
  5.623E+12 5.623E+12 3.876E+00 1.867E+05 3.254E+06 3.911E+06 7.351E+06 7.351E+06 1.769E+07 37.7175 1.00000
  6.310E+12 6.310E+12 3.895E+00 2.094E+05 3.650E+06 4.487E+06 8.347E+06 8.347E+06 1.778E+07 37.9477 1.00000
  7.079E+12 7.079E+12 3.914E+00 2.350E+05 4.096E+06 5.148E+06 9.478E+06 9.478E+06 1.786E+07 38.1780 1.00000
  7.943E+12 7.943E+12 3.933E+00 2.637E+05 4.595E+06 5.907E+06 1.077E+07 1.077E+07 1.795E+07 38.4082 1.00000
  8.913E+12 8.913E+12 3.952E+00 2.958E+05 5.156E+06 6.778E+06 1.223E+07 1.223E+07 1.803E+07 38.6385 1.00000
  1.000E+13 1.000E+13 3.971E+00 3.319E+05 5.784E+06 7.778E+06 1.389E+07 1.389E+07 1.812E+07 38.8688 1.00000
  1.122E+13 1.122E+13 3.991E+00 3.724E+05 6.490E+06 8.925E+06 1.579E+07 1.579E+07 1.820E+07 39.0990 1.00000
  1.259E+13 1.259E+13 4.010E+00 4.179E+05 7.281E+06 1.024E+07 1.794E+07 1.794E+07 1.828E+07 39.3293 1.00000
  1.413E+13 1.413E+13 4.030E+00 4.689E+05 8.169E+06 1.176E+07 2.039E+07 2.039E+07 1.836E+07 39.5595 1.00000
  1.585E+13 1.585E+13 4.049E+00 5.261E+05 9.166E+06 1.349E+07 2.318E+07 2.318E+07 1.844E+07 39.7898 1.00000
  1.778E+13 1.778E+13 4.069E+00 5.903E+05 1.028E+07 1.549E+07 2.636E+07 2.636E+07 1.852E+07 40.0200 1.00000
  1.995E+13 1.995E+13 4.089E+00 6.623E+05 1.154E+07 1.778E+07 2.998E+07 2.998E+07 1.860E+07 40.2503 1.00000
  2.239E+13 2.239E+13 4.109E+00 7.431E+05 1.294E+07 2.041E+07 3.409E+07 3.409E+07 1.867E+07 40.4806 1.00000
  2.512E+13 2.512E+13 4.129E+00 8.338E+05 1.452E+07 2.343E+07 3.878E+07 3.878E+07 1.875E+07 40.7108 1.00000
  2.818E+13 2.818E+13 4.150E+00 9.355E+05 1.629E+07 2.689E+07 4.412E+07 4.412E+07 1.882E+07 40.9411 1.00000
  3.162E+13 3.162E+13 4.170E+00 1.050E+06 1.828E+07 3.087E+07 5.021E+07 5.021E+07 1.890E+07 41.1713 1.00000
  3.548E+13 3.548E+13 4.190E+00 1.178E+06 2.051E+07 3.545E+07 5.714E+07 5.714E+07 1.897E+07 41.4016 1.00000
  3.981E+13 3.981E+13 4.211E+00 1.321E+06 2.301E+07 4.070E+07 6.504E+07 6.504E+07 1.904E+07 41.6319 1.00000
  4.467E+13 4.467E+13 4.232E+00 1.483E+06 2.582E+07 4.673E+07 7.404E+07 7.404E+07 1.911E+07 41.8621 1.00000
  5.012E+13 5.012E+13 4.252E+00 1.664E+06 2.897E+07 5.366E+07 8.430E+07 8.430E+07 1.918E+07 42.0924 1.00000
  5.623E+13 5.623E+13 4.273E+00 1.867E+06 3.250E+07 6.162E+07 9.599E+07 9.599E+07 1.925E+07 42.3226 1.00000
  6.310E+13 6.310E+13 4.294E+00 2.094E+06 3.647E+07 7.077E+07 1.093E+08 1.093E+08 1.931E+07 42.5529 1.00000
  7.079E+13 7.079E+13 4.316E+00 2.350E+06 4.091E+07 8.127E+07 1.245E+08 1.245E+08 1.938E+07 42.7831 1.00000
  7.943E+13 7.943E+13 4.337E+00 2.637E+06 4.590E+07 9.334E+07 1.419E+08 1.419E+08 1.944E+07 43.0134 1.00000
  8.913E+13 8.913E+13 4.358E+00 2.958E+06 5.150E+07 1.072E+08 1.617E+08 1.617E+08 1.951E+07 43.2437 1.00000
