 Incident particle is a Tau with M = 1776.82000 MeV
 Index = 0: LeadGlass
      Absorber with <Z/A> = 0.42099
 Sternheimer coef:  a     k=m_s   x_0    x_1    I[eV]   Cbar  delta0
                 0.0954  3.0740  0.0614  3.8146  526.4  5.8476 0.00

 *** Table generated with PUMAS v1.00 ***

      T         p     Ionization  brems     pair     photonuc  Radloss    dE/dx   CSDA Range  delta   beta
    [MeV]    [MeV/c]  -----------------------[MeV cm^2/g]------------------------  [g/cm^2]
  1.000E+05 1.018E+05 1.703E+00 8.346E-04 1.477E-02 7.709E-03 2.331E-02 1.727E+00 2.896E+04  3.1234 0.99985
  1.122E+05 1.140E+05 1.722E+00 9.678E-04 1.769E-02 8.663E-03 2.732E-02 1.750E+00 3.598E+04  3.2872 0.99988
  1.259E+05 1.277E+05 1.741E+00 1.122E-03 2.112E-02 9.685E-03 3.192E-02 1.773E+00 4.375E+04  3.4543 0.99990
  1.413E+05 1.430E+05 1.760E+00 1.299E-03 2.514E-02 1.083E-02 3.727E-02 1.798E+00 5.235E+04  3.6248 0.99992
  1.585E+05 1.603E+05 1.779E+00 1.504E-03 2.986E-02 1.210E-02 4.347E-02 1.822E+00 6.188E+04  3.7984 0.99994
  1.778E+05 1.796E+05 1.798E+00 1.739E-03 3.537E-02 1.352E-02 5.063E-02 1.848E+00 7.241E+04  3.9752 0.99995
  1.995E+05 2.013E+05 1.816E+00 2.011E-03 4.180E-02 1.513E-02 5.894E-02 1.875E+00 8.407E+04  4.1550 0.99996
  2.239E+05 2.256E+05 1.834E+00 2.324E-03 4.929E-02 1.688E-02 6.849E-02 1.903E+00 9.696E+04  4.3377 0.99997
  2.512E+05 2.530E+05 1.852E+00 2.684E-03 5.799E-02 1.883E-02 7.951E-02 1.932E+00 1.112E+05  4.5233 0.99998
  2.818E+05 2.836E+05 1.870E+00 3.097E-03 6.808E-02 2.102E-02 9.220E-02 1.962E+00 1.270E+05  4.7116 0.99998
  3.162E+05 3.180E+05 1.888E+00 3.573E-03 7.977E-02 2.349E-02 1.068E-01 1.995E+00 1.443E+05  4.9025 0.99998
  3.548E+05 3.566E+05 1.906E+00 4.119E-03 9.327E-02 2.625E-02 1.236E-01 2.029E+00 1.635E+05  5.0960 0.99999
  3.981E+05 3.999E+05 1.923E+00 4.746E-03 1.089E-01 2.932E-02 1.429E-01 2.066E+00 1.847E+05  5.2919 0.99999
  4.467E+05 4.485E+05 1.940E+00 5.466E-03 1.268E-01 3.274E-02 1.650E-01 2.105E+00 2.079E+05  5.4902 0.99999
  5.012E+05 5.030E+05 1.957E+00 6.292E-03 1.475E-01 3.659E-02 1.904E-01 2.148E+00 2.336E+05  5.6908 0.99999
  5.623E+05 5.641E+05 1.974E+00 7.238E-03 1.712E-01 4.074E-02 2.192E-01 2.194E+00 2.618E+05  5.8935 1.00000
  6.310E+05 6.327E+05 1.991E+00 8.323E-03 1.985E-01 4.540E-02 2.522E-01 2.243E+00 2.927E+05  6.0984 1.00000
  7.079E+05 7.097E+05 2.008E+00 9.566E-03 2.297E-01 5.065E-02 2.899E-01 2.298E+00 3.266E+05  6.3053 1.00000
  7.943E+05 7.961E+05 2.024E+00 1.099E-02 2.655E-01 5.656E-02 3.330E-01 2.357E+00 3.637E+05  6.5141 1.00000
  8.913E+05 8.930E+05 2.040E+00 1.262E-02 3.063E-01 6.322E-02 3.822E-01 2.423E+00 4.043E+05  6.7247 1.00000
  1.000E+06 1.002E+06 2.056E+00 1.448E-02 3.530E-01 7.075E-02 4.382E-01 2.495E+00 4.485E+05  6.9371 1.00000
  1.122E+06 1.124E+06 2.072E+00 1.661E-02 4.062E-01 7.925E-02 5.021E-01 2.574E+00 4.967E+05  7.1511 1.00000
  1.259E+06 1.261E+06 2.088E+00 1.904E-02 4.669E-01 8.887E-02 5.748E-01 2.663E+00 5.490E+05  7.3667 1.00000
  1.413E+06 1.414E+06 2.104E+00 2.183E-02 5.360E-01 9.974E-02 6.575E-01 2.761E+00 6.056E+05  7.5838 1.00000
  1.585E+06 1.587E+06 2.119E+00 2.501E-02 6.145E-01 1.121E-01 7.516E-01 2.871E+00 6.669E+05  7.8023 1.00000
  1.778E+06 1.780E+06 2.134E+00 2.864E-02 7.038E-01 1.260E-01 8.584E-01 2.993E+00 7.329E+05  8.0222 1.00000
  1.995E+06 1.997E+06 2.149E+00 3.278E-02 8.051E-01 1.419E-01 9.797E-01 3.129E+00 8.038E+05  8.2433 1.00000
  2.239E+06 2.240E+06 2.164E+00 3.750E-02 9.200E-01 1.598E-01 1.117E+00 3.281E+00 8.798E+05  8.4655 1.00000
  2.512E+06 2.514E+06 2.178E+00 4.290E-02 1.050E+00 1.802E-01 1.273E+00 3.452E+00 9.610E+05  8.6888 1.00000
  2.818E+06 2.820E+06 2.193E+00 4.904E-02 1.198E+00 2.034E-01 1.450E+00 3.643E+00 1.047E+06  8.9131 1.00000
  3.162E+06 3.164E+06 2.207E+00 5.605E-02 1.365E+00 2.297E-01 1.651E+00 3.858E+00 1.139E+06  9.1384 1.00000
  3.548E+06 3.550E+06 2.221E+00 6.403E-02 1.554E+00 2.596E-01 1.877E+00 4.098E+00 1.236E+06  9.3644 1.00000
  3.981E+06 3.983E+06 2.235E+00 7.313E-02 1.767E+00 2.936E-01 2.134E+00 4.369E+00 1.339E+06  9.5913 1.00000
  4.467E+06 4.469E+06 2.249E+00 8.348E-02 2.008E+00 3.322E-01 2.424E+00 4.673E+00 1.446E+06  9.8188 1.00000
  5.012E+06 5.014E+06 2.262E+00 9.526E-02 2.281E+00 3.763E-01 2.752E+00 5.015E+00 1.559E+06 10.0469 1.00000
  5.623E+06 5.625E+06 2.275E+00 1.087E-01 2.588E+00 4.264E-01 3.123E+00 5.399E+00 1.677E+06 10.2755 1.00000
  6.310E+06 6.311E+06 2.289E+00 1.239E-01 2.935E+00 4.834E-01 3.542E+00 5.831E+00 1.799E+06 10.5046 1.00000
  7.079E+06 7.081E+06 2.302E+00 1.413E-01 3.326E+00 5.483E-01 4.016E+00 6.317E+00 1.926E+06 10.7340 1.00000
  7.943E+06 7.945E+06 2.315E+00 1.610E-01 3.767E+00 6.223E-01 4.550E+00 6.864E+00 2.057E+06 10.9637 1.00000
  8.913E+06 8.914E+06 2.327E+00 1.834E-01 4.263E+00 7.066E-01 5.153E+00 7.480E+00 2.193E+06 11.1937 1.00000
  1.000E+07 1.000E+07 2.340E+00 2.088E-01 4.822E+00 8.027E-01 5.834E+00 8.174E+00 2.332E+06 11.4238 1.00000
  1.122E+07 1.122E+07 2.352E+00 2.377E-01 5.452E+00 9.121E-01 6.602E+00 8.954E+00 2.475E+06 11.6540 1.00000
  1.259E+07 1.259E+07 2.365E+00 2.705E-01 6.161E+00 1.037E+00 7.468E+00 9.833E+00 2.621E+06 11.8842 1.00000
  1.413E+07 1.413E+07 2.377E+00 3.078E-01 6.958E+00 1.179E+00 8.445E+00 1.082E+01 2.770E+06 12.1145 1.00000
  1.585E+07 1.585E+07 2.389E+00 3.500E-01 7.855E+00 1.341E+00 9.546E+00 1.194E+01 2.922E+06 12.3447 1.00000
  1.778E+07 1.778E+07 2.401E+00 3.979E-01 8.864E+00 1.526E+00 1.079E+01 1.319E+01 3.076E+06 12.5749 1.00000
  1.995E+07 1.995E+07 2.413E+00 4.522E-01 9.999E+00 1.738E+00 1.219E+01 1.460E+01 3.232E+06 12.8052 1.00000
  2.239E+07 2.239E+07 2.425E+00 5.137E-01 1.127E+01 1.978E+00 1.377E+01 1.619E+01 3.391E+06 13.0354 1.00000
  2.512E+07 2.512E+07 2.437E+00 5.834E-01 1.271E+01 2.253E+00 1.554E+01 1.798E+01 3.551E+06 13.2656 1.00000
  2.818E+07 2.819E+07 2.449E+00 6.624E-01 1.432E+01 2.566E+00 1.755E+01 2.000E+01 3.713E+06 13.4959 1.00000
  3.162E+07 3.162E+07 2.461E+00 7.518E-01 1.613E+01 2.924E+00 1.981E+01 2.227E+01 3.876E+06 13.7261 1.00000
  3.548E+07 3.548E+07 2.472E+00 8.530E-01 1.816E+01 3.332E+00 2.235E+01 2.482E+01 4.041E+06 13.9564 1.00000
  3.981E+07 3.981E+07 2.484E+00 9.675E-01 2.045E+01 3.798E+00 2.521E+01 2.770E+01 4.206E+06 14.1866 1.00000
  4.467E+07 4.467E+07 2.496E+00 1.097E+00 2.302E+01 4.329E+00 2.844E+01 3.094E+01 4.372E+06 14.4169 1.00000
  5.012E+07 5.012E+07 2.508E+00 1.243E+00 2.590E+01 4.936E+00 3.208E+01 3.459E+01 4.539E+06 14.6471 1.00000
  5.623E+07 5.624E+07 2.519E+00 1.409E+00 2.914E+01 5.628E+00 3.618E+01 3.869E+01 4.707E+06 14.8774 1.00000
  6.310E+07 6.310E+07 2.531E+00 1.596E+00 3.277E+01 6.419E+00 4.079E+01 4.332E+01 4.874E+06 15.1076 1.00000
  7.079E+07 7.080E+07 2.543E+00 1.807E+00 3.686E+01 7.322E+00 4.599E+01 4.853E+01 5.043E+06 15.3379 1.00000
  7.943E+07 7.943E+07 2.554E+00 2.046E+00 4.144E+01 8.353E+00 5.184E+01 5.439E+01 5.211E+06 15.5681 1.00000
  8.913E+07 8.913E+07 2.566E+00 2.316E+00 4.659E+01 9.530E+00 5.843E+01 6.100E+01 5.380E+06 15.7984 1.00000
  1.000E+08 1.000E+08 2.578E+00 2.620E+00 5.237E+01 1.087E+01 6.586E+01 6.844E+01 5.548E+06 16.0286 1.00000
  1.122E+08 1.122E+08 2.590E+00 2.963E+00 5.885E+01 1.241E+01 7.422E+01 7.681E+01 5.717E+06 16.2589 1.00000
  1.259E+08 1.259E+08 2.601E+00 3.351E+00 6.613E+01 1.416E+01 8.365E+01 8.625E+01 5.885E+06 16.4891 1.00000
  1.413E+08 1.413E+08 2.613E+00 3.787E+00 7.431E+01 1.616E+01 9.426E+01 9.687E+01 6.054E+06 16.7194 1.00000
  1.585E+08 1.585E+08 2.625E+00 4.280E+00 8.348E+01 1.845E+01 1.062E+02 1.088E+02 6.222E+06 16.9497 1.00000
  1.778E+08 1.778E+08 2.637E+00 4.835E+00 9.378E+01 2.106E+01 1.197E+02 1.223E+02 6.390E+06 17.1799 1.00000
  1.995E+08 1.995E+08 2.649E+00 5.461E+00 1.053E+02 2.405E+01 1.348E+02 1.375E+02 6.557E+06 17.4102 1.00000
  2.239E+08 2.239E+08 2.661E+00 6.165E+00 1.183E+02 2.746E+01 1.519E+02 1.546E+02 6.724E+06 17.6404 1.00000
  2.512E+08 2.512E+08 2.673E+00 6.959E+00 1.329E+02 3.135E+01 1.712E+02 1.738E+02 6.891E+06 17.8707 1.00000
  2.818E+08 2.818E+08 2.685E+00 7.854E+00 1.492E+02 3.580E+01 1.928E+02 1.955E+02 7.058E+06 18.1009 1.00000
  3.162E+08 3.162E+08 2.697E+00 8.860E+00 1.675E+02 4.089E+01 2.173E+02 2.200E+02 7.224E+06 18.3312 1.00000
  3.548E+08 3.548E+08 2.710E+00 9.993E+00 1.881E+02 4.670E+01 2.448E+02 2.475E+02 7.390E+06 18.5615 1.00000
  3.981E+08 3.981E+08 2.722E+00 1.127E+01 2.112E+02 5.334E+01 2.758E+02 2.785E+02 7.555E+06 18.7917 1.00000
  4.467E+08 4.467E+08 2.734E+00 1.270E+01 2.371E+02 6.092E+01 3.107E+02 3.134E+02 7.720E+06 19.0220 1.00000
  5.012E+08 5.012E+08 2.746E+00 1.432E+01 2.662E+02 6.960E+01 3.501E+02 3.528E+02 7.884E+06 19.2522 1.00000
  5.623E+08 5.623E+08 2.759E+00 1.613E+01 2.988E+02 7.951E+01 3.944E+02 3.972E+02 8.047E+06 19.4825 1.00000
  6.310E+08 6.310E+08 2.771E+00 1.818E+01 3.354E+02 9.083E+01 4.444E+02 4.472E+02 8.211E+06 19.7127 1.00000
  7.079E+08 7.079E+08 2.784E+00 2.047E+01 3.765E+02 1.038E+02 5.007E+02 5.035E+02 8.373E+06 19.9430 1.00000
  7.943E+08 7.943E+08 2.797E+00 2.305E+01 4.225E+02 1.186E+02 5.642E+02 5.670E+02 8.535E+06 20.1733 1.00000
  8.913E+08 8.913E+08 2.809E+00 2.596E+01 4.743E+02 1.355E+02 6.357E+02 6.385E+02 8.696E+06 20.4035 1.00000
  1.000E+09 1.000E+09 2.822E+00 2.922E+01 5.323E+02 1.548E+02 7.164E+02 7.192E+02 8.857E+06 20.6338 1.00000
  1.122E+09 1.122E+09 2.835E+00 3.288E+01 5.974E+02 1.770E+02 8.072E+02 8.101E+02 9.017E+06 20.8640 1.00000
  1.259E+09 1.259E+09 2.848E+00 3.700E+01 6.705E+02 2.022E+02 9.097E+02 9.126E+02 9.177E+06 21.0943 1.00000
  1.413E+09 1.413E+09 2.861E+00 4.163E+01 7.524E+02 2.312E+02 1.025E+03 1.028E+03 9.336E+06 21.3245 1.00000
  1.585E+09 1.585E+09 2.874E+00 4.683E+01 8.444E+02 2.642E+02 1.155E+03 1.158E+03 9.494E+06 21.5548 1.00000
  1.778E+09 1.778E+09 2.887E+00 5.267E+01 9.476E+02 3.020E+02 1.302E+03 1.305E+03 9.651E+06 21.7851 1.00000
  1.995E+09 1.995E+09 2.900E+00 5.923E+01 1.063E+03 3.452E+02 1.468E+03 1.471E+03 9.808E+06 22.0153 1.00000
  2.239E+09 2.239E+09 2.913E+00 6.660E+01 1.193E+03 3.947E+02 1.655E+03 1.658E+03 9.965E+06 22.2456 1.00000
  2.512E+09 2.512E+09 2.927E+00 7.487E+01 1.339E+03 4.512E+02 1.865E+03 1.868E+03 1.012E+07 22.4758 1.00000
  2.818E+09 2.818E+09 2.940E+00 8.416E+01 1.503E+03 5.159E+02 2.103E+03 2.106E+03 1.027E+07 22.7061 1.00000
  3.162E+09 3.162E+09 2.954E+00 9.460E+01 1.686E+03 5.898E+02 2.371E+03 2.374E+03 1.043E+07 22.9364 1.00000
  3.548E+09 3.548E+09 2.967E+00 1.063E+02 1.892E+03 6.745E+02 2.673E+03 2.676E+03 1.058E+07 23.1666 1.00000
  3.981E+09 3.981E+09 2.981E+00 1.195E+02 2.123E+03 7.712E+02 3.014E+03 3.017E+03 1.073E+07 23.3969 1.00000
  4.467E+09 4.467E+09 2.994E+00 1.342E+02 2.383E+03 8.820E+02 3.399E+03 3.402E+03 1.089E+07 23.6271 1.00000
  5.012E+09 5.012E+09 3.008E+00 1.508E+02 2.674E+03 1.009E+03 3.833E+03 3.836E+03 1.104E+07 23.8574 1.00000
  5.623E+09 5.623E+09 3.022E+00 1.694E+02 3.000E+03 1.154E+03 4.323E+03 4.326E+03 1.119E+07 24.0876 1.00000
  6.310E+09 6.310E+09 3.036E+00 1.903E+02 3.366E+03 1.319E+03 4.876E+03 4.879E+03 1.134E+07 24.3179 1.00000
  7.079E+09 7.079E+09 3.050E+00 2.137E+02 3.777E+03 1.509E+03 5.500E+03 5.503E+03 1.149E+07 24.5482 1.00000
  7.943E+09 7.943E+09 3.064E+00 2.401E+02 4.238E+03 1.726E+03 6.204E+03 6.207E+03 1.163E+07 24.7784 1.00000
  8.913E+09 8.913E+09 3.078E+00 2.696E+02 4.755E+03 1.975E+03 7.000E+03 7.003E+03 1.178E+07 25.0087 1.00000
  1.000E+10 1.000E+10 3.093E+00 3.027E+02 5.336E+03 2.259E+03 7.898E+03 7.901E+03 1.193E+07 25.2389 1.00000
  1.122E+10 1.122E+10 3.107E+00 3.399E+02 5.987E+03 2.584E+03 8.911E+03 8.914E+03 1.207E+07 25.4692 1.00000
  1.259E+10 1.259E+10 3.121E+00 3.817E+02 6.718E+03 2.957E+03 1.006E+04 1.006E+04 1.222E+07 25.6995 1.00000
  1.413E+10 1.413E+10 3.136E+00 4.286E+02 7.537E+03 3.383E+03 1.135E+04 1.135E+04 1.236E+07 25.9297 1.00000
  1.585E+10 1.585E+10 3.150E+00 4.811E+02 8.457E+03 3.871E+03 1.281E+04 1.281E+04 1.251E+07 26.1600 1.00000
  1.778E+10 1.778E+10 3.165E+00 5.402E+02 9.489E+03 4.430E+03 1.446E+04 1.446E+04 1.265E+07 26.3902 1.00000
  1.995E+10 1.995E+10 3.180E+00 6.064E+02 1.065E+04 5.069E+03 1.632E+04 1.633E+04 1.279E+07 26.6205 1.00000
  2.239E+10 2.239E+10 3.195E+00 6.807E+02 1.195E+04 5.801E+03 1.843E+04 1.843E+04 1.293E+07 26.8508 1.00000
  2.512E+10 2.512E+10 3.210E+00 7.641E+02 1.340E+04 6.639E+03 2.081E+04 2.081E+04 1.307E+07 27.0810 1.00000
  2.818E+10 2.818E+10 3.225E+00 8.577E+02 1.504E+04 7.599E+03 2.350E+04 2.350E+04 1.321E+07 27.3113 1.00000
  3.162E+10 3.162E+10 3.240E+00 9.627E+02 1.687E+04 8.697E+03 2.653E+04 2.654E+04 1.335E+07 27.5415 1.00000
  3.548E+10 3.548E+10 3.255E+00 1.081E+03 1.893E+04 9.955E+03 2.997E+04 2.997E+04 1.348E+07 27.7718 1.00000
  3.981E+10 3.981E+10 3.270E+00 1.213E+03 2.124E+04 1.140E+04 3.385E+04 3.386E+04 1.362E+07 28.0020 1.00000
  4.467E+10 4.467E+10 3.285E+00 1.361E+03 2.384E+04 1.305E+04 3.824E+04 3.825E+04 1.376E+07 28.2323 1.00000
  5.012E+10 5.012E+10 3.301E+00 1.528E+03 2.674E+04 1.493E+04 4.321E+04 4.321E+04 1.389E+07 28.4626 1.00000
  5.623E+10 5.623E+10 3.316E+00 1.714E+03 3.001E+04 1.710E+04 4.882E+04 4.882E+04 1.402E+07 28.6928 1.00000
  6.310E+10 6.310E+10 3.332E+00 1.924E+03 3.367E+04 1.958E+04 5.517E+04 5.517E+04 1.416E+07 28.9231 1.00000
  7.079E+10 7.079E+10 3.348E+00 2.159E+03 3.777E+04 2.242E+04 6.235E+04 6.235E+04 1.429E+07 29.1533 1.00000
  7.943E+10 7.943E+10 3.363E+00 2.423E+03 4.238E+04 2.567E+04 7.047E+04 7.048E+04 1.442E+07 29.3836 1.00000
  8.913E+10 8.913E+10 3.379E+00 2.719E+03 4.755E+04 2.939E+04 7.966E+04 7.967E+04 1.455E+07 29.6139 1.00000
  1.000E+11 1.000E+11 3.395E+00 3.052E+03 5.335E+04 3.366E+04 9.007E+04 9.007E+04 1.468E+07 29.8441 1.00000
  1.122E+11 1.122E+11 3.411E+00 3.424E+03 5.986E+04 3.855E+04 1.018E+05 1.018E+05 1.480E+07 30.0744 1.00000
  1.259E+11 1.259E+11 3.427E+00 3.843E+03 6.717E+04 4.415E+04 1.152E+05 1.152E+05 1.493E+07 30.3046 1.00000
  1.413E+11 1.413E+11 3.444E+00 4.312E+03 7.536E+04 5.057E+04 1.302E+05 1.302E+05 1.506E+07 30.5349 1.00000
  1.585E+11 1.585E+11 3.460E+00 4.839E+03 8.455E+04 5.792E+04 1.473E+05 1.473E+05 1.518E+07 30.7651 1.00000
  1.778E+11 1.778E+11 3.476E+00 5.430E+03 9.487E+04 6.635E+04 1.666E+05 1.666E+05 1.530E+07 30.9954 1.00000
  1.995E+11 1.995E+11 3.493E+00 6.093E+03 1.064E+05 7.601E+04 1.885E+05 1.885E+05 1.543E+07 31.2257 1.00000
  2.239E+11 2.239E+11 3.509E+00 6.837E+03 1.194E+05 8.707E+04 2.133E+05 2.133E+05 1.555E+07 31.4559 1.00000
  2.512E+11 2.512E+11 3.526E+00 7.672E+03 1.340E+05 9.975E+04 2.414E+05 2.414E+05 1.567E+07 31.6862 1.00000
  2.818E+11 2.818E+11 3.543E+00 8.608E+03 1.503E+05 1.143E+05 2.732E+05 2.732E+05 1.579E+07 31.9164 1.00000
  3.162E+11 3.162E+11 3.560E+00 9.659E+03 1.687E+05 1.310E+05 3.093E+05 3.093E+05 1.591E+07 32.1467 1.00000
  3.548E+11 3.548E+11 3.577E+00 1.084E+04 1.893E+05 1.501E+05 3.501E+05 3.501E+05 1.603E+07 32.3770 1.00000
  3.981E+11 3.981E+11 3.594E+00 1.216E+04 2.123E+05 1.719E+05 3.964E+05 3.964E+05 1.614E+07 32.6072 1.00000
  4.467E+11 4.467E+11 3.611E+00 1.365E+04 2.382E+05 1.970E+05 4.489E+05 4.489E+05 1.626E+07 32.8375 1.00000
  5.012E+11 5.012E+11 3.628E+00 1.531E+04 2.673E+05 2.258E+05 5.084E+05 5.084E+05 1.637E+07 33.0677 1.00000
  5.623E+11 5.623E+11 3.645E+00 1.718E+04 2.999E+05 2.588E+05 5.759E+05 5.759E+05 1.648E+07 33.2980 1.00000
  6.310E+11 6.310E+11 3.663E+00 1.928E+04 3.365E+05 2.966E+05 6.524E+05 6.524E+05 1.660E+07 33.5282 1.00000
  7.079E+11 7.079E+11 3.680E+00 2.163E+04 3.775E+05 3.400E+05 7.391E+05 7.391E+05 1.671E+07 33.7585 1.00000
  7.943E+11 7.943E+11 3.698E+00 2.427E+04 4.236E+05 3.897E+05 8.376E+05 8.376E+05 1.682E+07 33.9888 1.00000
  8.913E+11 8.913E+11 3.716E+00 2.723E+04 4.752E+05 4.467E+05 9.492E+05 9.492E+05 1.693E+07 34.2190 1.00000
  1.000E+12 1.000E+12 3.734E+00 3.056E+04 5.332E+05 5.121E+05 1.076E+06 1.076E+06 1.703E+07 34.4493 1.00000
  1.122E+12 1.122E+12 3.752E+00 3.428E+04 5.983E+05 5.871E+05 1.220E+06 1.220E+06 1.714E+07 34.6795 1.00000
  1.259E+12 1.259E+12 3.770E+00 3.847E+04 6.712E+05 6.731E+05 1.383E+06 1.383E+06 1.725E+07 34.9098 1.00000
  1.413E+12 1.413E+12 3.788E+00 4.316E+04 7.531E+05 7.717E+05 1.568E+06 1.568E+06 1.735E+07 35.1401 1.00000
  1.585E+12 1.585E+12 3.806E+00 4.843E+04 8.450E+05 8.849E+05 1.778E+06 1.778E+06 1.745E+07 35.3703 1.00000
  1.778E+12 1.778E+12 3.824E+00 5.434E+04 9.480E+05 1.015E+06 2.017E+06 2.017E+06 1.756E+07 35.6006 1.00000
  1.995E+12 1.995E+12 3.843E+00 6.097E+04 1.064E+06 1.164E+06 2.288E+06 2.288E+06 1.766E+07 35.8308 1.00000
  2.239E+12 2.239E+12 3.861E+00 6.841E+04 1.193E+06 1.334E+06 2.596E+06 2.596E+06 1.776E+07 36.0611 1.00000
  2.512E+12 2.512E+12 3.880E+00 7.676E+04 1.339E+06 1.530E+06 2.946E+06 2.946E+06 1.786E+07 36.2913 1.00000
  2.818E+12 2.818E+12 3.899E+00 8.613E+04 1.502E+06 1.755E+06 3.343E+06 3.343E+06 1.796E+07 36.5216 1.00000
  3.162E+12 3.162E+12 3.918E+00 9.664E+04 1.686E+06 2.013E+06 3.795E+06 3.795E+06 1.805E+07 36.7519 1.00000
  3.548E+12 3.548E+12 3.937E+00 1.084E+05 1.891E+06 2.309E+06 4.308E+06 4.308E+06 1.815E+07 36.9821 1.00000
  3.981E+12 3.981E+12 3.956E+00 1.217E+05 2.122E+06 2.648E+06 4.892E+06 4.892E+06 1.824E+07 37.2124 1.00000
  4.467E+12 4.467E+12 3.975E+00 1.365E+05 2.381E+06 3.038E+06 5.555E+06 5.555E+06 1.834E+07 37.4426 1.00000
  5.012E+12 5.012E+12 3.994E+00 1.532E+05 2.671E+06 3.485E+06 6.309E+06 6.309E+06 1.843E+07 37.6729 1.00000
  5.623E+12 5.623E+12 4.013E+00 1.719E+05 2.997E+06 3.998E+06 7.167E+06 7.167E+06 1.852E+07 37.9032 1.00000
  6.310E+12 6.310E+12 4.033E+00 1.928E+05 3.362E+06 4.587E+06 8.142E+06 8.142E+06 1.861E+07 38.1334 1.00000
  7.079E+12 7.079E+12 4.052E+00 2.164E+05 3.772E+06 5.263E+06 9.252E+06 9.252E+06 1.870E+07 38.3637 1.00000
  7.943E+12 7.943E+12 4.072E+00 2.428E+05 4.232E+06 6.039E+06 1.051E+07 1.051E+07 1.879E+07 38.5939 1.00000
  8.913E+12 8.913E+12 4.092E+00 2.724E+05 4.748E+06 6.929E+06 1.195E+07 1.195E+07 1.887E+07 38.8242 1.00000
  1.000E+13 1.000E+13 4.112E+00 3.056E+05 5.328E+06 7.952E+06 1.358E+07 1.358E+07 1.896E+07 39.0545 1.00000
  1.122E+13 1.122E+13 4.132E+00 3.429E+05 5.977E+06 9.125E+06 1.545E+07 1.545E+07 1.904E+07 39.2847 1.00000
  1.259E+13 1.259E+13 4.152E+00 3.847E+05 6.706E+06 1.047E+07 1.756E+07 1.756E+07 1.913E+07 39.5150 1.00000
  1.413E+13 1.413E+13 4.172E+00 4.317E+05 7.524E+06 1.202E+07 1.997E+07 1.997E+07 1.921E+07 39.7452 1.00000
  1.585E+13 1.585E+13 4.193E+00 4.844E+05 8.442E+06 1.379E+07 2.272E+07 2.272E+07 1.929E+07 39.9755 1.00000
  1.778E+13 1.778E+13 4.213E+00 5.435E+05 9.472E+06 1.583E+07 2.585E+07 2.585E+07 1.937E+07 40.2057 1.00000
  1.995E+13 1.995E+13 4.234E+00 6.098E+05 1.063E+07 1.817E+07 2.941E+07 2.941E+07 1.945E+07 40.4360 1.00000
  2.239E+13 2.239E+13 4.254E+00 6.842E+05 1.192E+07 2.086E+07 3.347E+07 3.347E+07 1.953E+07 40.6663 1.00000
  2.512E+13 2.512E+13 4.275E+00 7.677E+05 1.338E+07 2.395E+07 3.809E+07 3.809E+07 1.960E+07 40.8965 1.00000
  2.818E+13 2.818E+13 4.296E+00 8.613E+05 1.501E+07 2.749E+07 4.336E+07 4.336E+07 1.968E+07 41.1268 1.00000
  3.162E+13 3.162E+13 4.317E+00 9.664E+05 1.684E+07 3.156E+07 4.937E+07 4.937E+07 1.975E+07 41.3570 1.00000
  3.548E+13 3.548E+13 4.338E+00 1.084E+06 1.889E+07 3.624E+07 5.622E+07 5.622E+07 1.983E+07 41.5873 1.00000
  3.981E+13 3.981E+13 4.359E+00 1.217E+06 2.120E+07 4.161E+07 6.402E+07 6.402E+07 1.990E+07 41.8176 1.00000
  4.467E+13 4.467E+13 4.381E+00 1.365E+06 2.378E+07 4.778E+07 7.292E+07 7.292E+07 1.997E+07 42.0478 1.00000
  5.012E+13 5.012E+13 4.402E+00 1.532E+06 2.668E+07 5.486E+07 8.308E+07 8.308E+07 2.004E+07 42.2781 1.00000
  5.623E+13 5.623E+13 4.424E+00 1.719E+06 2.994E+07 6.300E+07 9.466E+07 9.466E+07 2.011E+07 42.5083 1.00000
  6.310E+13 6.310E+13 4.445E+00 1.928E+06 3.359E+07 7.235E+07 1.079E+08 1.079E+08 2.018E+07 42.7386 1.00000
  7.079E+13 7.079E+13 4.467E+00 2.164E+06 3.768E+07 8.309E+07 1.229E+08 1.229E+08 2.024E+07 42.9688 1.00000
  7.943E+13 7.943E+13 4.489E+00 2.428E+06 4.228E+07 9.543E+07 1.401E+08 1.401E+08 2.031E+07 43.1991 1.00000
  8.913E+13 8.913E+13 4.511E+00 2.724E+06 4.743E+07 1.096E+08 1.598E+08 1.598E+08 2.037E+07 43.4294 1.00000
