 Incident particle is a Tau with M = 1776.82000 MeV
 Index = 0: LiquidHelium
      Absorber with <Z/A> = 0.49968
 Sternheimer coef:  a     k=m_s   x_0    x_1    I[eV]   Cbar  delta0
                 0.6571  3.0000  0.4729  2.0000   41.8  4.5180 0.00

 *** Table generated with PUMAS v1.00 ***

      T         p     Ionization  brems     pair     photonuc  Radloss    dE/dx   CSDA Range  delta   beta
    [MeV]    [MeV/c]  -----------------------[MeV cm^2/g]------------------------  [g/cm^2]
  1.000E+05 1.018E+05 2.375E+00 4.355E-05 6.970E-04 8.716E-03 9.457E-03 2.384E+00 2.097E+04  3.5869 0.99985
  1.122E+05 1.140E+05 2.393E+00 5.025E-05 8.551E-04 9.870E-03 1.078E-02 2.404E+00 2.607E+04  3.8088 0.99988
  1.259E+05 1.277E+05 2.411E+00 5.796E-05 1.043E-03 1.112E-02 1.222E-02 2.423E+00 3.174E+04  4.0330 0.99990
  1.413E+05 1.430E+05 2.429E+00 6.683E-05 1.265E-03 1.252E-02 1.386E-02 2.443E+00 3.805E+04  4.2589 0.99992
  1.585E+05 1.603E+05 2.447E+00 7.703E-05 1.527E-03 1.410E-02 1.571E-02 2.463E+00 4.508E+04  4.4860 0.99994
  1.778E+05 1.796E+05 2.466E+00 8.875E-05 1.837E-03 1.587E-02 1.780E-02 2.483E+00 5.290E+04  4.7138 0.99995
  1.995E+05 2.013E+05 2.484E+00 1.022E-04 2.201E-03 1.790E-02 2.020E-02 2.504E+00 6.160E+04  4.9419 0.99996
  2.239E+05 2.256E+05 2.502E+00 1.177E-04 2.628E-03 2.011E-02 2.286E-02 2.525E+00 7.128E+04  5.1702 0.99997
  2.512E+05 2.530E+05 2.520E+00 1.355E-04 3.129E-03 2.260E-02 2.587E-02 2.546E+00 8.206E+04  5.3988 0.99998
  2.818E+05 2.836E+05 2.538E+00 1.559E-04 3.714E-03 2.542E-02 2.929E-02 2.567E+00 9.404E+04  5.6275 0.99998
  3.162E+05 3.180E+05 2.556E+00 1.794E-04 4.397E-03 2.860E-02 3.318E-02 2.590E+00 1.074E+05  5.8564 0.99998
  3.548E+05 3.566E+05 2.575E+00 2.064E-04 5.193E-03 3.218E-02 3.758E-02 2.612E+00 1.222E+05  6.0855 0.99999
  3.981E+05 3.999E+05 2.593E+00 2.373E-04 6.118E-03 3.619E-02 4.255E-02 2.635E+00 1.387E+05  6.3147 0.99999
  4.467E+05 4.485E+05 2.611E+00 2.728E-04 7.193E-03 4.069E-02 4.816E-02 2.659E+00 1.571E+05  6.5440 0.99999
  5.012E+05 5.030E+05 2.629E+00 3.136E-04 8.439E-03 4.577E-02 5.453E-02 2.683E+00 1.775E+05  6.7734 0.99999
  5.623E+05 5.641E+05 2.647E+00 3.604E-04 9.883E-03 5.129E-02 6.153E-02 2.709E+00 2.002E+05  7.0029 1.00000
  6.310E+05 6.327E+05 2.665E+00 4.141E-04 1.155E-02 5.752E-02 6.948E-02 2.734E+00 2.254E+05  7.2324 1.00000
  7.079E+05 7.097E+05 2.683E+00 4.758E-04 1.348E-02 6.455E-02 7.851E-02 2.761E+00 2.534E+05  7.4621 1.00000
  7.943E+05 7.961E+05 2.701E+00 5.465E-04 1.571E-02 7.251E-02 8.876E-02 2.790E+00 2.845E+05  7.6918 1.00000
  8.913E+05 8.930E+05 2.719E+00 6.277E-04 1.827E-02 8.151E-02 1.004E-01 2.819E+00 3.191E+05  7.9216 1.00000
  1.000E+06 1.002E+06 2.736E+00 7.209E-04 2.122E-02 9.171E-02 1.137E-01 2.850E+00 3.574E+05  8.1514 1.00000
  1.122E+06 1.124E+06 2.754E+00 8.279E-04 2.461E-02 1.033E-01 1.287E-01 2.883E+00 4.000E+05  8.3813 1.00000
  1.259E+06 1.261E+06 2.772E+00 9.506E-04 2.851E-02 1.164E-01 1.458E-01 2.917E+00 4.472E+05  8.6112 1.00000
  1.413E+06 1.414E+06 2.789E+00 1.091E-03 3.297E-02 1.312E-01 1.653E-01 2.954E+00 4.996E+05  8.8411 1.00000
  1.585E+06 1.587E+06 2.806E+00 1.253E-03 3.810E-02 1.481E-01 1.874E-01 2.994E+00 5.575E+05  9.0711 1.00000
  1.778E+06 1.780E+06 2.823E+00 1.438E-03 4.396E-02 1.672E-01 2.126E-01 3.036E+00 6.217E+05  9.3011 1.00000
  1.995E+06 1.997E+06 2.841E+00 1.651E-03 5.066E-02 1.890E-01 2.413E-01 3.082E+00 6.926E+05  9.5312 1.00000
  2.239E+06 2.240E+06 2.857E+00 1.894E-03 5.833E-02 2.137E-01 2.739E-01 3.131E+00 7.710E+05  9.7613 1.00000
  2.512E+06 2.514E+06 2.874E+00 2.174E-03 6.707E-02 2.417E-01 3.110E-01 3.185E+00 8.575E+05  9.9913 1.00000
  2.818E+06 2.820E+06 2.891E+00 2.494E-03 7.705E-02 2.737E-01 3.532E-01 3.244E+00 9.528E+05 10.2214 1.00000
  3.162E+06 3.164E+06 2.907E+00 2.862E-03 8.843E-02 3.100E-01 4.013E-01 3.309E+00 1.058E+06 10.4516 1.00000
  3.548E+06 3.550E+06 2.924E+00 3.283E-03 1.014E-01 3.513E-01 4.560E-01 3.380E+00 1.173E+06 10.6817 1.00000
  3.981E+06 3.983E+06 2.940E+00 3.765E-03 1.161E-01 3.983E-01 5.182E-01 3.458E+00 1.300E+06 10.9119 1.00000
  4.467E+06 4.469E+06 2.956E+00 4.318E-03 1.329E-01 4.519E-01 5.891E-01 3.545E+00 1.439E+06 11.1420 1.00000
  5.012E+06 5.014E+06 2.972E+00 4.950E-03 1.519E-01 5.128E-01 6.697E-01 3.642E+00 1.590E+06 11.3722 1.00000
  5.623E+06 5.625E+06 2.988E+00 5.675E-03 1.735E-01 5.823E-01 7.615E-01 3.749E+00 1.756E+06 11.6024 1.00000
  6.310E+06 6.311E+06 3.003E+00 6.504E-03 1.980E-01 6.614E-01 8.659E-01 3.869E+00 1.936E+06 11.8326 1.00000
  7.079E+06 7.081E+06 3.019E+00 7.453E-03 2.258E-01 7.515E-01 9.848E-01 4.003E+00 2.132E+06 12.0628 1.00000
  7.943E+06 7.945E+06 3.034E+00 8.539E-03 2.574E-01 8.542E-01 1.120E+00 4.154E+00 2.343E+06 12.2930 1.00000
  8.913E+06 8.914E+06 3.049E+00 9.781E-03 2.930E-01 9.713E-01 1.274E+00 4.323E+00 2.572E+06 12.5232 1.00000
  1.000E+07 1.000E+07 3.064E+00 1.120E-02 3.334E-01 1.105E+00 1.449E+00 4.513E+00 2.819E+06 12.7534 1.00000
  1.122E+07 1.122E+07 3.079E+00 1.282E-02 3.791E-01 1.257E+00 1.649E+00 4.728E+00 3.083E+06 12.9836 1.00000
  1.259E+07 1.259E+07 3.093E+00 1.468E-02 4.308E-01 1.430E+00 1.876E+00 4.969E+00 3.365E+06 13.2138 1.00000
  1.413E+07 1.413E+07 3.108E+00 1.679E-02 4.893E-01 1.628E+00 2.134E+00 5.242E+00 3.666E+06 13.4441 1.00000
  1.585E+07 1.585E+07 3.122E+00 1.921E-02 5.553E-01 1.854E+00 2.428E+00 5.551E+00 3.986E+06 13.6743 1.00000
  1.778E+07 1.778E+07 3.137E+00 2.197E-02 6.298E-01 2.111E+00 2.763E+00 5.900E+00 4.324E+06 13.9045 1.00000
  1.995E+07 1.995E+07 3.151E+00 2.511E-02 7.139E-01 2.405E+00 3.144E+00 6.295E+00 4.680E+06 14.1348 1.00000
  2.239E+07 2.239E+07 3.165E+00 2.870E-02 8.089E-01 2.740E+00 3.578E+00 6.743E+00 5.054E+06 14.3650 1.00000
  2.512E+07 2.512E+07 3.179E+00 3.279E-02 9.160E-01 3.122E+00 4.071E+00 7.250E+00 5.445E+06 14.5952 1.00000
  2.818E+07 2.819E+07 3.193E+00 3.745E-02 1.037E+00 3.558E+00 4.633E+00 7.826E+00 5.852E+06 14.8255 1.00000
  3.162E+07 3.162E+07 3.207E+00 4.276E-02 1.173E+00 4.056E+00 5.272E+00 8.479E+00 6.275E+06 15.0557 1.00000
  3.548E+07 3.548E+07 3.221E+00 4.881E-02 1.326E+00 4.624E+00 5.999E+00 9.220E+00 6.712E+06 15.2860 1.00000
  3.981E+07 3.981E+07 3.235E+00 5.570E-02 1.499E+00 5.273E+00 6.827E+00 1.006E+01 7.162E+06 15.5162 1.00000
  4.467E+07 4.467E+07 3.249E+00 6.353E-02 1.693E+00 6.013E+00 7.770E+00 1.102E+01 7.623E+06 15.7465 1.00000
  5.012E+07 5.012E+07 3.263E+00 7.245E-02 1.912E+00 6.858E+00 8.842E+00 1.211E+01 8.096E+06 15.9767 1.00000
  5.623E+07 5.624E+07 3.277E+00 8.258E-02 2.159E+00 7.822E+00 1.006E+01 1.334E+01 8.578E+06 16.2070 1.00000
  6.310E+07 6.310E+07 3.291E+00 9.411E-02 2.436E+00 8.923E+00 1.145E+01 1.474E+01 9.068E+06 16.4372 1.00000
  7.079E+07 7.080E+07 3.305E+00 1.072E-01 2.748E+00 1.018E+01 1.304E+01 1.634E+01 9.564E+06 16.6675 1.00000
  7.943E+07 7.943E+07 3.318E+00 1.221E-01 3.099E+00 1.162E+01 1.484E+01 1.816E+01 1.007E+07 16.8977 1.00000
  8.913E+07 8.913E+07 3.332E+00 1.390E-01 3.493E+00 1.326E+01 1.689E+01 2.022E+01 1.057E+07 17.1280 1.00000
  1.000E+08 1.000E+08 3.346E+00 1.582E-01 3.937E+00 1.513E+01 1.922E+01 2.257E+01 1.108E+07 17.3582 1.00000
  1.122E+08 1.122E+08 3.360E+00 1.799E-01 4.435E+00 1.727E+01 2.188E+01 2.524E+01 1.159E+07 17.5885 1.00000
  1.259E+08 1.259E+08 3.374E+00 2.046E-01 4.995E+00 1.971E+01 2.491E+01 2.828E+01 1.211E+07 17.8187 1.00000
  1.413E+08 1.413E+08 3.388E+00 2.327E-01 5.624E+00 2.250E+01 2.835E+01 3.174E+01 1.262E+07 18.0490 1.00000
  1.585E+08 1.585E+08 3.402E+00 2.644E-01 6.331E+00 2.568E+01 3.228E+01 3.568E+01 1.313E+07 18.2793 1.00000
  1.778E+08 1.778E+08 3.417E+00 3.005E-01 7.124E+00 2.932E+01 3.675E+01 4.016E+01 1.365E+07 18.5095 1.00000
  1.995E+08 1.995E+08 3.431E+00 3.413E-01 8.016E+00 3.348E+01 4.184E+01 4.527E+01 1.416E+07 18.7398 1.00000
  2.239E+08 2.239E+08 3.445E+00 3.875E-01 9.017E+00 3.823E+01 4.763E+01 5.108E+01 1.466E+07 18.9700 1.00000
  2.512E+08 2.512E+08 3.459E+00 4.399E-01 1.014E+01 4.365E+01 5.423E+01 5.769E+01 1.517E+07 19.2003 1.00000
  2.818E+08 2.818E+08 3.474E+00 4.991E-01 1.140E+01 4.985E+01 6.176E+01 6.523E+01 1.567E+07 19.4305 1.00000
  3.162E+08 3.162E+08 3.488E+00 5.662E-01 1.282E+01 5.694E+01 7.032E+01 7.381E+01 1.616E+07 19.6608 1.00000
  3.548E+08 3.548E+08 3.503E+00 6.421E-01 1.441E+01 6.503E+01 8.008E+01 8.359E+01 1.666E+07 19.8911 1.00000
  3.981E+08 3.981E+08 3.517E+00 7.279E-01 1.620E+01 7.428E+01 9.120E+01 9.472E+01 1.714E+07 20.1213 1.00000
  4.467E+08 4.467E+08 3.532E+00 8.249E-01 1.820E+01 8.485E+01 1.039E+02 1.074E+02 1.763E+07 20.3516 1.00000
  5.012E+08 5.012E+08 3.546E+00 9.345E-01 2.045E+01 9.693E+01 1.183E+02 1.219E+02 1.810E+07 20.5818 1.00000
  5.623E+08 5.623E+08 3.561E+00 1.058E+00 2.297E+01 1.107E+02 1.348E+02 1.383E+02 1.858E+07 20.8121 1.00000
  6.310E+08 6.310E+08 3.576E+00 1.198E+00 2.581E+01 1.265E+02 1.535E+02 1.571E+02 1.904E+07 21.0423 1.00000
  7.079E+08 7.079E+08 3.591E+00 1.356E+00 2.899E+01 1.446E+02 1.749E+02 1.785E+02 1.950E+07 21.2726 1.00000
  7.943E+08 7.943E+08 3.606E+00 1.535E+00 3.256E+01 1.652E+02 1.993E+02 2.029E+02 1.996E+07 21.5029 1.00000
  8.913E+08 8.913E+08 3.621E+00 1.737E+00 3.656E+01 1.887E+02 2.270E+02 2.307E+02 2.041E+07 21.7331 1.00000
  1.000E+09 1.000E+09 3.636E+00 1.964E+00 4.106E+01 2.157E+02 2.587E+02 2.624E+02 2.085E+07 21.9634 1.00000
  1.122E+09 1.122E+09 3.651E+00 2.221E+00 4.610E+01 2.465E+02 2.948E+02 2.985E+02 2.129E+07 22.1936 1.00000
  1.259E+09 1.259E+09 3.667E+00 2.510E+00 5.176E+01 2.817E+02 3.360E+02 3.397E+02 2.172E+07 22.4239 1.00000
  1.413E+09 1.413E+09 3.682E+00 2.836E+00 5.811E+01 3.220E+02 3.830E+02 3.866E+02 2.214E+07 22.6541 1.00000
  1.585E+09 1.585E+09 3.698E+00 3.204E+00 6.524E+01 3.681E+02 4.365E+02 4.402E+02 2.256E+07 22.8844 1.00000
  1.778E+09 1.778E+09 3.713E+00 3.619E+00 7.324E+01 4.207E+02 4.976E+02 5.013E+02 2.297E+07 23.1147 1.00000
  1.995E+09 1.995E+09 3.729E+00 4.086E+00 8.221E+01 4.809E+02 5.672E+02 5.710E+02 2.338E+07 23.3449 1.00000
  2.239E+09 2.239E+09 3.745E+00 4.612E+00 9.228E+01 5.498E+02 6.467E+02 6.505E+02 2.378E+07 23.5752 1.00000
  2.512E+09 2.512E+09 3.760E+00 5.205E+00 1.036E+02 6.286E+02 7.374E+02 7.411E+02 2.418E+07 23.8054 1.00000
  2.818E+09 2.818E+09 3.776E+00 5.873E+00 1.163E+02 7.187E+02 8.408E+02 8.446E+02 2.456E+07 24.0357 1.00000
  3.162E+09 3.162E+09 3.792E+00 6.624E+00 1.305E+02 8.217E+02 9.588E+02 9.626E+02 2.495E+07 24.2660 1.00000
  3.548E+09 3.548E+09 3.808E+00 7.470E+00 1.464E+02 9.396E+02 1.094E+03 1.097E+03 2.532E+07 24.4962 1.00000
  3.981E+09 3.981E+09 3.825E+00 8.423E+00 1.644E+02 1.074E+03 1.247E+03 1.251E+03 2.569E+07 24.7265 1.00000
  4.467E+09 4.467E+09 3.841E+00 9.494E+00 1.844E+02 1.229E+03 1.423E+03 1.426E+03 2.606E+07 24.9567 1.00000
  5.012E+09 5.012E+09 3.857E+00 1.070E+01 2.070E+02 1.405E+03 1.623E+03 1.627E+03 2.641E+07 25.1870 1.00000
  5.623E+09 5.623E+09 3.874E+00 1.206E+01 2.323E+02 1.607E+03 1.851E+03 1.855E+03 2.677E+07 25.4172 1.00000
  6.310E+09 6.310E+09 3.890E+00 1.358E+01 2.607E+02 1.838E+03 2.112E+03 2.116E+03 2.711E+07 25.6475 1.00000
  7.079E+09 7.079E+09 3.907E+00 1.529E+01 2.925E+02 2.102E+03 2.410E+03 2.414E+03 2.746E+07 25.8778 1.00000
  7.943E+09 7.943E+09 3.924E+00 1.722E+01 3.283E+02 2.405E+03 2.750E+03 2.754E+03 2.779E+07 26.1080 1.00000
  8.913E+09 8.913E+09 3.940E+00 1.939E+01 3.684E+02 2.751E+03 3.139E+03 3.143E+03 2.812E+07 26.3383 1.00000
  1.000E+10 1.000E+10 3.957E+00 2.183E+01 4.134E+02 3.147E+03 3.582E+03 3.586E+03 2.845E+07 26.5685 1.00000
  1.122E+10 1.122E+10 3.974E+00 2.456E+01 4.638E+02 3.601E+03 4.089E+03 4.093E+03 2.877E+07 26.7988 1.00000
  1.259E+10 1.259E+10 3.991E+00 2.764E+01 5.205E+02 4.119E+03 4.668E+03 4.672E+03 2.908E+07 27.0291 1.00000
  1.413E+10 1.413E+10 4.009E+00 3.110E+01 5.840E+02 4.713E+03 5.328E+03 5.332E+03 2.939E+07 27.2593 1.00000
  1.585E+10 1.585E+10 4.026E+00 3.498E+01 6.553E+02 5.393E+03 6.083E+03 6.087E+03 2.969E+07 27.4896 1.00000
  1.778E+10 1.778E+10 4.043E+00 3.934E+01 7.353E+02 6.171E+03 6.946E+03 6.950E+03 2.999E+07 27.7198 1.00000
  1.995E+10 1.995E+10 4.061E+00 4.424E+01 8.251E+02 7.062E+03 7.931E+03 7.935E+03 3.028E+07 27.9501 1.00000
  2.239E+10 2.239E+10 4.078E+00 4.975E+01 9.258E+02 8.082E+03 9.057E+03 9.061E+03 3.057E+07 28.1804 1.00000
  2.512E+10 2.512E+10 4.096E+00 5.593E+01 1.039E+03 9.249E+03 1.034E+04 1.035E+04 3.085E+07 28.4106 1.00000
  2.818E+10 2.818E+10 4.114E+00 6.287E+01 1.166E+03 1.059E+04 1.181E+04 1.182E+04 3.113E+07 28.6409 1.00000
  3.162E+10 3.162E+10 4.132E+00 7.067E+01 1.308E+03 1.212E+04 1.350E+04 1.350E+04 3.140E+07 28.8711 1.00000
  3.548E+10 3.548E+10 4.150E+00 7.942E+01 1.467E+03 1.387E+04 1.542E+04 1.542E+04 3.167E+07 29.1014 1.00000
  3.981E+10 3.981E+10 4.168E+00 8.925E+01 1.647E+03 1.588E+04 1.761E+04 1.762E+04 3.193E+07 29.3316 1.00000
  4.467E+10 4.467E+10 4.186E+00 1.003E+02 1.847E+03 1.817E+04 2.012E+04 2.013E+04 3.219E+07 29.5619 1.00000
  5.012E+10 5.012E+10 4.204E+00 1.127E+02 2.073E+03 2.081E+04 2.299E+04 2.300E+04 3.245E+07 29.7922 1.00000
  5.623E+10 5.623E+10 4.223E+00 1.266E+02 2.326E+03 2.382E+04 2.627E+04 2.628E+04 3.270E+07 30.0224 1.00000
  6.310E+10 6.310E+10 4.241E+00 1.422E+02 2.610E+03 2.727E+04 3.003E+04 3.003E+04 3.294E+07 30.2527 1.00000
  7.079E+10 7.079E+10 4.260E+00 1.597E+02 2.928E+03 3.123E+04 3.432E+04 3.432E+04 3.318E+07 30.4829 1.00000
  7.943E+10 7.943E+10 4.279E+00 1.794E+02 3.285E+03 3.576E+04 3.922E+04 3.923E+04 3.342E+07 30.7132 1.00000
  8.913E+10 8.913E+10 4.297E+00 2.015E+02 3.686E+03 4.095E+04 4.484E+04 4.484E+04 3.365E+07 30.9435 1.00000
  1.000E+11 1.000E+11 4.316E+00 2.262E+02 4.136E+03 4.689E+04 5.126E+04 5.126E+04 3.388E+07 31.1737 1.00000
  1.122E+11 1.122E+11 4.335E+00 2.540E+02 4.640E+03 5.371E+04 5.860E+04 5.860E+04 3.410E+07 31.4040 1.00000
  1.259E+11 1.259E+11 4.355E+00 2.853E+02 5.207E+03 6.151E+04 6.700E+04 6.701E+04 3.432E+07 31.6342 1.00000
  1.413E+11 1.413E+11 4.374E+00 3.203E+02 5.842E+03 7.045E+04 7.661E+04 7.662E+04 3.453E+07 31.8645 1.00000
  1.585E+11 1.585E+11 4.393E+00 3.596E+02 6.555E+03 8.070E+04 8.761E+04 8.761E+04 3.474E+07 32.0947 1.00000
  1.778E+11 1.778E+11 4.413E+00 4.037E+02 7.354E+03 9.244E+04 1.002E+05 1.002E+05 3.495E+07 32.3250 1.00000
  1.995E+11 1.995E+11 4.432E+00 4.532E+02 8.251E+03 1.059E+05 1.146E+05 1.146E+05 3.515E+07 32.5553 1.00000
  2.239E+11 2.239E+11 4.452E+00 5.088E+02 9.258E+03 1.213E+05 1.311E+05 1.311E+05 3.535E+07 32.7855 1.00000
  2.512E+11 2.512E+11 4.472E+00 5.711E+02 1.039E+04 1.390E+05 1.499E+05 1.499E+05 3.555E+07 33.0158 1.00000
  2.818E+11 2.818E+11 4.492E+00 6.411E+02 1.165E+04 1.592E+05 1.715E+05 1.715E+05 3.574E+07 33.2460 1.00000
  3.162E+11 3.162E+11 4.512E+00 7.196E+02 1.308E+04 1.824E+05 1.962E+05 1.962E+05 3.593E+07 33.4763 1.00000
  3.548E+11 3.548E+11 4.532E+00 8.077E+02 1.467E+04 2.090E+05 2.245E+05 2.245E+05 3.611E+07 33.7066 1.00000
  3.981E+11 3.981E+11 4.552E+00 9.065E+02 1.646E+04 2.395E+05 2.569E+05 2.569E+05 3.629E+07 33.9368 1.00000
  4.467E+11 4.467E+11 4.572E+00 1.017E+03 1.847E+04 2.745E+05 2.940E+05 2.940E+05 3.647E+07 34.1671 1.00000
  5.012E+11 5.012E+11 4.593E+00 1.142E+03 2.072E+04 3.146E+05 3.365E+05 3.365E+05 3.664E+07 34.3973 1.00000
  5.623E+11 5.623E+11 4.613E+00 1.282E+03 2.325E+04 3.605E+05 3.851E+05 3.851E+05 3.681E+07 34.6276 1.00000
  6.310E+11 6.310E+11 4.634E+00 1.438E+03 2.609E+04 4.132E+05 4.408E+05 4.408E+05 3.698E+07 34.8578 1.00000
  7.079E+11 7.079E+11 4.655E+00 1.614E+03 2.927E+04 4.737E+05 5.045E+05 5.045E+05 3.714E+07 35.0881 1.00000
  7.943E+11 7.943E+11 4.676E+00 1.811E+03 3.284E+04 5.429E+05 5.776E+05 5.776E+05 3.730E+07 35.3184 1.00000
  8.913E+11 8.913E+11 4.697E+00 2.033E+03 3.684E+04 6.224E+05 6.612E+05 6.612E+05 3.746E+07 35.5486 1.00000
  1.000E+12 1.000E+12 4.718E+00 2.281E+03 4.134E+04 7.135E+05 7.571E+05 7.571E+05 3.762E+07 35.7789 1.00000
  1.122E+12 1.122E+12 4.739E+00 2.560E+03 4.638E+04 8.179E+05 8.669E+05 8.669E+05 3.777E+07 36.0091 1.00000
  1.259E+12 1.259E+12 4.761E+00 2.873E+03 5.204E+04 9.377E+05 9.926E+05 9.927E+05 3.791E+07 36.2394 1.00000
  1.413E+12 1.413E+12 4.782E+00 3.224E+03 5.838E+04 1.075E+06 1.137E+06 1.137E+06 3.806E+07 36.4697 1.00000
  1.585E+12 1.585E+12 4.804E+00 3.617E+03 6.551E+04 1.233E+06 1.302E+06 1.302E+06 3.820E+07 36.6999 1.00000
  1.778E+12 1.778E+12 4.826E+00 4.059E+03 7.350E+04 1.414E+06 1.491E+06 1.491E+06 3.834E+07 36.9302 1.00000
  1.995E+12 1.995E+12 4.848E+00 4.555E+03 8.246E+04 1.621E+06 1.708E+06 1.708E+06 3.848E+07 37.1604 1.00000
  2.239E+12 2.239E+12 4.870E+00 5.111E+03 9.252E+04 1.859E+06 1.957E+06 1.957E+06 3.861E+07 37.3907 1.00000
  2.512E+12 2.512E+12 4.892E+00 5.735E+03 1.038E+05 2.132E+06 2.241E+06 2.241E+06 3.874E+07 37.6209 1.00000
  2.818E+12 2.818E+12 4.914E+00 6.435E+03 1.165E+05 2.445E+06 2.568E+06 2.568E+06 3.887E+07 37.8512 1.00000
  3.162E+12 3.162E+12 4.936E+00 7.221E+03 1.307E+05 2.804E+06 2.942E+06 2.942E+06 3.899E+07 38.0815 1.00000
  3.548E+12 3.548E+12 4.959E+00 8.102E+03 1.466E+05 3.217E+06 3.371E+06 3.371E+06 3.912E+07 38.3117 1.00000
  3.981E+12 3.981E+12 4.982E+00 9.091E+03 1.645E+05 3.690E+06 3.863E+06 3.863E+06 3.924E+07 38.5420 1.00000
  4.467E+12 4.467E+12 5.004E+00 1.020E+04 1.845E+05 4.232E+06 4.427E+06 4.427E+06 3.936E+07 38.7722 1.00000
  5.012E+12 5.012E+12 5.027E+00 1.145E+04 2.071E+05 4.855E+06 5.074E+06 5.074E+06 3.947E+07 39.0025 1.00000
  5.623E+12 5.623E+12 5.050E+00 1.284E+04 2.323E+05 5.570E+06 5.815E+06 5.815E+06 3.958E+07 39.2328 1.00000
  6.310E+12 6.310E+12 5.073E+00 1.441E+04 2.606E+05 6.391E+06 6.666E+06 6.666E+06 3.969E+07 39.4630 1.00000
  7.079E+12 7.079E+12 5.097E+00 1.617E+04 2.924E+05 7.332E+06 7.641E+06 7.641E+06 3.980E+07 39.6933 1.00000
  7.943E+12 7.943E+12 5.120E+00 1.814E+04 3.281E+05 8.413E+06 8.759E+06 8.759E+06 3.991E+07 39.9235 1.00000
  8.913E+12 8.913E+12 5.143E+00 2.036E+04 3.681E+05 9.654E+06 1.004E+07 1.004E+07 4.001E+07 40.1538 1.00000
  1.000E+13 1.000E+13 5.167E+00 2.284E+04 4.130E+05 1.108E+07 1.151E+07 1.151E+07 4.011E+07 40.3841 1.00000
  1.122E+13 1.122E+13 5.191E+00 2.563E+04 4.634E+05 1.271E+07 1.320E+07 1.320E+07 4.021E+07 40.6143 1.00000
  1.259E+13 1.259E+13 5.215E+00 2.876E+04 5.199E+05 1.459E+07 1.514E+07 1.514E+07 4.031E+07 40.8446 1.00000
  1.413E+13 1.413E+13 5.239E+00 3.227E+04 5.833E+05 1.674E+07 1.736E+07 1.736E+07 4.040E+07 41.0748 1.00000
  1.585E+13 1.585E+13 5.263E+00 3.621E+04 6.545E+05 1.922E+07 1.991E+07 1.991E+07 4.050E+07 41.3051 1.00000
  1.778E+13 1.778E+13 5.287E+00 4.062E+04 7.343E+05 2.206E+07 2.283E+07 2.283E+07 4.059E+07 41.5353 1.00000
  1.995E+13 1.995E+13 5.312E+00 4.558E+04 8.238E+05 2.532E+07 2.619E+07 2.619E+07 4.068E+07 41.7656 1.00000
  2.239E+13 2.239E+13 5.336E+00 5.114E+04 9.243E+05 2.906E+07 3.004E+07 3.004E+07 4.076E+07 41.9959 1.00000
  2.512E+13 2.512E+13 5.361E+00 5.738E+04 1.037E+06 3.337E+07 3.446E+07 3.446E+07 4.085E+07 42.2261 1.00000
  2.818E+13 2.818E+13 5.386E+00 6.439E+04 1.164E+06 3.830E+07 3.953E+07 3.953E+07 4.093E+07 42.4564 1.00000
  3.162E+13 3.162E+13 5.410E+00 7.224E+04 1.305E+06 4.398E+07 4.535E+07 4.535E+07 4.101E+07 42.6866 1.00000
  3.548E+13 3.548E+13 5.436E+00 8.106E+04 1.465E+06 5.049E+07 5.204E+07 5.204E+07 4.109E+07 42.9169 1.00000
  3.981E+13 3.981E+13 5.461E+00 9.095E+04 1.643E+06 5.797E+07 5.971E+07 5.971E+07 4.117E+07 43.1472 1.00000
  4.467E+13 4.467E+13 5.486E+00 1.020E+05 1.844E+06 6.656E+07 6.851E+07 6.851E+07 4.125E+07 43.3774 1.00000
  5.012E+13 5.012E+13 5.512E+00 1.145E+05 2.068E+06 7.644E+07 7.862E+07 7.862E+07 4.132E+07 43.6077 1.00000
  5.623E+13 5.623E+13 5.537E+00 1.285E+05 2.321E+06 8.777E+07 9.022E+07 9.022E+07 4.139E+07 43.8379 1.00000
  6.310E+13 6.310E+13 5.563E+00 1.441E+05 2.604E+06 1.008E+08 1.035E+08 1.035E+08 4.147E+07 44.0682 1.00000
  7.079E+13 7.079E+13 5.589E+00 1.617E+05 2.921E+06 1.158E+08 1.188E+08 1.188E+08 4.154E+07 44.2984 1.00000
  7.943E+13 7.943E+13 5.615E+00 1.815E+05 3.278E+06 1.330E+08 1.364E+08 1.364E+08 4.160E+07 44.5287 1.00000
  8.913E+13 8.913E+13 5.641E+00 2.036E+05 3.677E+06 1.527E+08 1.566E+08 1.566E+08 4.167E+07 44.7590 1.00000
