 Incident particle is a Tau with M = 1776.82000 MeV
 Index = 0: LiquidNitrogen
      Absorber with <Z/A> = 0.49974
 Sternheimer coef:  a     k=m_s   x_0    x_1    I[eV]   Cbar  delta0
                 0.5329  3.0000  0.3039  2.0000   82.0  3.9996 0.00

 *** Table generated with PUMAS v1.00 ***

      T         p     Ionization  brems     pair     photonuc  Radloss    dE/dx   CSDA Range  delta   beta
    [MeV]    [MeV/c]  -----------------------[MeV cm^2/g]------------------------  [g/cm^2]
  1.000E+05 1.018E+05 2.232E+00 1.387E-04 2.151E-03 8.312E-03 1.060E-02 2.243E+00 2.229E+04  4.1036 0.99985
  1.122E+05 1.140E+05 2.250E+00 1.602E-04 2.596E-03 9.385E-03 1.214E-02 2.262E+00 2.771E+04  4.3264 0.99988
  1.259E+05 1.277E+05 2.268E+00 1.850E-04 3.121E-03 1.054E-02 1.385E-02 2.282E+00 3.374E+04  4.5510 0.99990
  1.413E+05 1.430E+05 2.287E+00 2.135E-04 3.740E-03 1.184E-02 1.579E-02 2.302E+00 4.044E+04  4.7772 0.99992
  1.585E+05 1.603E+05 2.305E+00 2.463E-04 4.468E-03 1.330E-02 1.801E-02 2.323E+00 4.789E+04  5.0043 0.99994
  1.778E+05 1.796E+05 2.323E+00 2.839E-04 5.322E-03 1.492E-02 2.053E-02 2.343E+00 5.618E+04  5.2322 0.99995
  1.995E+05 2.013E+05 2.341E+00 3.272E-04 6.323E-03 1.677E-02 2.342E-02 2.364E+00 6.540E+04  5.4603 0.99996
  2.239E+05 2.256E+05 2.359E+00 3.769E-04 7.492E-03 1.880E-02 2.667E-02 2.386E+00 7.565E+04  5.6886 0.99997
  2.512E+05 2.530E+05 2.377E+00 4.340E-04 8.856E-03 2.107E-02 3.036E-02 2.408E+00 8.705E+04  5.9172 0.99998
  2.818E+05 2.836E+05 2.395E+00 4.995E-04 1.044E-02 2.363E-02 3.457E-02 2.430E+00 9.972E+04  6.1459 0.99998
  3.162E+05 3.180E+05 2.414E+00 5.747E-04 1.229E-02 2.652E-02 3.938E-02 2.453E+00 1.138E+05  6.3748 0.99998
  3.548E+05 3.566E+05 2.432E+00 6.609E-04 1.443E-02 2.976E-02 4.485E-02 2.477E+00 1.295E+05  6.6039 0.99999
  3.981E+05 3.999E+05 2.450E+00 7.597E-04 1.692E-02 3.338E-02 5.106E-02 2.501E+00 1.469E+05  6.8331 0.99999
  4.467E+05 4.485E+05 2.468E+00 8.729E-04 1.979E-02 3.744E-02 5.811E-02 2.526E+00 1.662E+05  7.0624 0.99999
  5.012E+05 5.030E+05 2.486E+00 1.003E-03 2.312E-02 4.201E-02 6.613E-02 2.552E+00 1.877E+05  7.2918 0.99999
  5.623E+05 5.641E+05 2.504E+00 1.151E-03 2.695E-02 4.696E-02 7.506E-02 2.579E+00 2.115E+05  7.5213 1.00000
  6.310E+05 6.327E+05 2.522E+00 1.321E-03 3.137E-02 5.254E-02 8.523E-02 2.607E+00 2.379E+05  7.7508 1.00000
  7.079E+05 7.097E+05 2.540E+00 1.516E-03 3.646E-02 5.883E-02 9.681E-02 2.637E+00 2.673E+05  7.9805 1.00000
  7.943E+05 7.961E+05 2.558E+00 1.739E-03 4.231E-02 6.594E-02 1.100E-01 2.668E+00 2.999E+05  8.2102 1.00000
  8.913E+05 8.930E+05 2.576E+00 1.994E-03 4.903E-02 7.398E-02 1.250E-01 2.701E+00 3.360E+05  8.4400 1.00000
  1.000E+06 1.002E+06 2.594E+00 2.286E-03 5.674E-02 8.306E-02 1.421E-01 2.736E+00 3.760E+05  8.6698 1.00000
  1.122E+06 1.124E+06 2.611E+00 2.620E-03 6.557E-02 9.335E-02 1.615E-01 2.773E+00 4.203E+05  8.8997 1.00000
  1.259E+06 1.261E+06 2.629E+00 3.001E-03 7.568E-02 1.050E-01 1.837E-01 2.812E+00 4.693E+05  9.1296 1.00000
  1.413E+06 1.414E+06 2.646E+00 3.437E-03 8.724E-02 1.182E-01 2.089E-01 2.855E+00 5.235E+05  9.3595 1.00000
  1.585E+06 1.587E+06 2.663E+00 3.936E-03 1.004E-01 1.332E-01 2.376E-01 2.901E+00 5.834E+05  9.5895 1.00000
  1.778E+06 1.780E+06 2.681E+00 4.505E-03 1.155E-01 1.502E-01 2.702E-01 2.951E+00 6.495E+05  9.8195 1.00000
  1.995E+06 1.997E+06 2.698E+00 5.155E-03 1.327E-01 1.694E-01 3.073E-01 3.005E+00 7.224E+05 10.0496 1.00000
  2.239E+06 2.240E+06 2.715E+00 5.898E-03 1.523E-01 1.913E-01 3.495E-01 3.064E+00 8.026E+05 10.2797 1.00000
  2.512E+06 2.514E+06 2.732E+00 6.746E-03 1.745E-01 2.162E-01 3.975E-01 3.129E+00 8.909E+05 10.5097 1.00000
  2.818E+06 2.820E+06 2.748E+00 7.714E-03 1.999E-01 2.445E-01 4.521E-01 3.200E+00 9.877E+05 10.7398 1.00000
  3.162E+06 3.164E+06 2.765E+00 8.818E-03 2.286E-01 2.766E-01 5.141E-01 3.279E+00 1.094E+06 10.9700 1.00000
  3.548E+06 3.550E+06 2.781E+00 1.008E-02 2.613E-01 3.132E-01 5.846E-01 3.366E+00 1.210E+06 11.2001 1.00000
  3.981E+06 3.983E+06 2.797E+00 1.152E-02 2.984E-01 3.548E-01 6.647E-01 3.462E+00 1.337E+06 11.4303 1.00000
  4.467E+06 4.469E+06 2.813E+00 1.315E-02 3.404E-01 4.022E-01 7.557E-01 3.569E+00 1.475E+06 11.6604 1.00000
  5.012E+06 5.014E+06 2.829E+00 1.502E-02 3.879E-01 4.561E-01 8.590E-01 3.688E+00 1.625E+06 11.8906 1.00000
  5.623E+06 5.625E+06 2.845E+00 1.715E-02 4.418E-01 5.174E-01 9.764E-01 3.821E+00 1.788E+06 12.1208 1.00000
  6.310E+06 6.311E+06 2.860E+00 1.958E-02 5.027E-01 5.873E-01 1.110E+00 3.970E+00 1.964E+06 12.3510 1.00000
  7.079E+06 7.081E+06 2.876E+00 2.234E-02 5.716E-01 6.670E-01 1.261E+00 4.137E+00 2.155E+06 12.5812 1.00000
  7.943E+06 7.945E+06 2.891E+00 2.549E-02 6.495E-01 7.577E-01 1.433E+00 4.324E+00 2.359E+06 12.8114 1.00000
  8.913E+06 8.914E+06 2.906E+00 2.907E-02 7.374E-01 8.611E-01 1.628E+00 4.534E+00 2.578E+06 13.0416 1.00000
  1.000E+07 1.000E+07 2.921E+00 3.315E-02 8.367E-01 9.790E-01 1.849E+00 4.770E+00 2.812E+06 13.2718 1.00000
  1.122E+07 1.122E+07 2.936E+00 3.779E-02 9.487E-01 1.113E+00 2.100E+00 5.036E+00 3.061E+06 13.5020 1.00000
  1.259E+07 1.259E+07 2.951E+00 4.306E-02 1.075E+00 1.267E+00 2.385E+00 5.335E+00 3.325E+06 13.7322 1.00000
  1.413E+07 1.413E+07 2.965E+00 4.906E-02 1.218E+00 1.441E+00 2.708E+00 5.673E+00 3.604E+06 13.9625 1.00000
  1.585E+07 1.585E+07 2.980E+00 5.588E-02 1.378E+00 1.640E+00 3.074E+00 6.054E+00 3.899E+06 14.1927 1.00000
  1.778E+07 1.778E+07 2.994E+00 6.364E-02 1.559E+00 1.868E+00 3.490E+00 6.484E+00 4.207E+06 14.4229 1.00000
  1.995E+07 1.995E+07 3.008E+00 7.245E-02 1.763E+00 2.127E+00 3.962E+00 6.970E+00 4.530E+06 14.6532 1.00000
  2.239E+07 2.239E+07 3.022E+00 8.245E-02 1.992E+00 2.422E+00 4.497E+00 7.519E+00 4.867E+06 14.8834 1.00000
  2.512E+07 2.512E+07 3.036E+00 9.381E-02 2.250E+00 2.760E+00 5.104E+00 8.140E+00 5.216E+06 15.1136 1.00000
  2.818E+07 2.819E+07 3.051E+00 1.067E-01 2.541E+00 3.145E+00 5.792E+00 8.843E+00 5.578E+06 15.3439 1.00000
  3.162E+07 3.162E+07 3.065E+00 1.213E-01 2.868E+00 3.584E+00 6.573E+00 9.638E+00 5.951E+06 15.5741 1.00000
  3.548E+07 3.548E+07 3.078E+00 1.379E-01 3.235E+00 4.085E+00 7.459E+00 1.054E+01 6.334E+06 15.8044 1.00000
  3.981E+07 3.981E+07 3.092E+00 1.568E-01 3.649E+00 4.658E+00 8.463E+00 1.156E+01 6.727E+06 16.0346 1.00000
  4.467E+07 4.467E+07 3.106E+00 1.781E-01 4.113E+00 5.311E+00 9.602E+00 1.271E+01 7.128E+06 16.2649 1.00000
  5.012E+07 5.012E+07 3.120E+00 2.023E-01 4.636E+00 6.056E+00 1.089E+01 1.401E+01 7.537E+06 16.4951 1.00000
  5.623E+07 5.624E+07 3.134E+00 2.297E-01 5.223E+00 6.907E+00 1.236E+01 1.549E+01 7.953E+06 16.7254 1.00000
  6.310E+07 6.310E+07 3.148E+00 2.608E-01 5.882E+00 7.879E+00 1.402E+01 1.717E+01 8.374E+06 16.9556 1.00000
  7.079E+07 7.080E+07 3.162E+00 2.960E-01 6.623E+00 8.988E+00 1.591E+01 1.907E+01 8.800E+06 17.1859 1.00000
  7.943E+07 7.943E+07 3.176E+00 3.358E-01 7.456E+00 1.026E+01 1.805E+01 2.122E+01 9.230E+06 17.4161 1.00000
  8.913E+07 8.913E+07 3.190E+00 3.809E-01 8.391E+00 1.170E+01 2.047E+01 2.366E+01 9.663E+06 17.6464 1.00000
  1.000E+08 1.000E+08 3.204E+00 4.319E-01 9.441E+00 1.335E+01 2.323E+01 2.643E+01 1.010E+07 17.8766 1.00000
  1.122E+08 1.122E+08 3.218E+00 4.895E-01 1.062E+01 1.524E+01 2.635E+01 2.957E+01 1.054E+07 18.1069 1.00000
  1.259E+08 1.259E+08 3.232E+00 5.547E-01 1.194E+01 1.739E+01 2.989E+01 3.313E+01 1.097E+07 18.3371 1.00000
  1.413E+08 1.413E+08 3.246E+00 6.285E-01 1.343E+01 1.986E+01 3.392E+01 3.716E+01 1.141E+07 18.5674 1.00000
  1.585E+08 1.585E+08 3.260E+00 7.118E-01 1.510E+01 2.267E+01 3.848E+01 4.174E+01 1.185E+07 18.7977 1.00000
  1.778E+08 1.778E+08 3.274E+00 8.060E-01 1.698E+01 2.588E+01 4.366E+01 4.693E+01 1.229E+07 19.0279 1.00000
  1.995E+08 1.995E+08 3.288E+00 9.124E-01 1.908E+01 2.954E+01 4.954E+01 5.282E+01 1.273E+07 19.2582 1.00000
  2.239E+08 2.239E+08 3.302E+00 1.032E+00 2.144E+01 3.373E+01 5.621E+01 5.951E+01 1.316E+07 19.4884 1.00000
  2.512E+08 2.512E+08 3.317E+00 1.168E+00 2.409E+01 3.852E+01 6.378E+01 6.710E+01 1.359E+07 19.7187 1.00000
  2.818E+08 2.818E+08 3.331E+00 1.321E+00 2.707E+01 4.399E+01 7.238E+01 7.571E+01 1.402E+07 19.9489 1.00000
  3.162E+08 3.162E+08 3.345E+00 1.494E+00 3.041E+01 5.024E+01 8.215E+01 8.549E+01 1.445E+07 20.1792 1.00000
  3.548E+08 3.548E+08 3.360E+00 1.689E+00 3.416E+01 5.738E+01 9.323E+01 9.659E+01 1.488E+07 20.4095 1.00000
  3.981E+08 3.981E+08 3.374E+00 1.908E+00 3.837E+01 6.554E+01 1.058E+02 1.092E+02 1.530E+07 20.6397 1.00000
  4.467E+08 4.467E+08 3.389E+00 2.156E+00 4.309E+01 7.487E+01 1.201E+02 1.235E+02 1.572E+07 20.8700 1.00000
  5.012E+08 5.012E+08 3.404E+00 2.435E+00 4.839E+01 8.553E+01 1.364E+02 1.398E+02 1.613E+07 21.1002 1.00000
  5.623E+08 5.623E+08 3.419E+00 2.750E+00 5.434E+01 9.771E+01 1.548E+02 1.582E+02 1.655E+07 21.3305 1.00000
  6.310E+08 6.310E+08 3.433E+00 3.104E+00 6.101E+01 1.116E+02 1.757E+02 1.792E+02 1.696E+07 21.5607 1.00000
  7.079E+08 7.079E+08 3.448E+00 3.504E+00 6.850E+01 1.275E+02 1.996E+02 2.030E+02 1.736E+07 21.7910 1.00000
  7.943E+08 7.943E+08 3.463E+00 3.954E+00 7.690E+01 1.457E+02 2.266E+02 2.301E+02 1.776E+07 22.0213 1.00000
  8.913E+08 8.913E+08 3.478E+00 4.460E+00 8.634E+01 1.665E+02 2.573E+02 2.608E+02 1.816E+07 22.2515 1.00000
  1.000E+09 1.000E+09 3.494E+00 5.030E+00 9.692E+01 1.903E+02 2.923E+02 2.958E+02 1.855E+07 22.4818 1.00000
  1.122E+09 1.122E+09 3.509E+00 5.672E+00 1.088E+02 2.175E+02 3.320E+02 3.355E+02 1.894E+07 22.7120 1.00000
  1.259E+09 1.259E+09 3.524E+00 6.395E+00 1.221E+02 2.486E+02 3.771E+02 3.806E+02 1.932E+07 22.9423 1.00000
  1.413E+09 1.413E+09 3.539E+00 7.208E+00 1.371E+02 2.841E+02 4.284E+02 4.319E+02 1.970E+07 23.1725 1.00000
  1.585E+09 1.585E+09 3.555E+00 8.122E+00 1.539E+02 3.247E+02 4.867E+02 4.903E+02 2.008E+07 23.4028 1.00000
  1.778E+09 1.778E+09 3.571E+00 9.151E+00 1.727E+02 3.712E+02 5.530E+02 5.566E+02 2.045E+07 23.6331 1.00000
  1.995E+09 1.995E+09 3.586E+00 1.031E+01 1.938E+02 4.243E+02 6.284E+02 6.320E+02 2.081E+07 23.8633 1.00000
  2.239E+09 2.239E+09 3.602E+00 1.161E+01 2.175E+02 4.851E+02 7.142E+02 7.178E+02 2.118E+07 24.0936 1.00000
  2.512E+09 2.512E+09 3.618E+00 1.307E+01 2.441E+02 5.546E+02 8.118E+02 8.154E+02 2.153E+07 24.3238 1.00000
  2.818E+09 2.818E+09 3.634E+00 1.472E+01 2.740E+02 6.341E+02 9.227E+02 9.264E+02 2.189E+07 24.5541 1.00000
  3.162E+09 3.162E+09 3.650E+00 1.656E+01 3.074E+02 7.250E+02 1.049E+03 1.053E+03 2.224E+07 24.7844 1.00000
  3.548E+09 3.548E+09 3.666E+00 1.864E+01 3.450E+02 8.290E+02 1.193E+03 1.196E+03 2.258E+07 25.0146 1.00000
  3.981E+09 3.981E+09 3.682E+00 2.097E+01 3.872E+02 9.480E+02 1.356E+03 1.360E+03 2.292E+07 25.2449 1.00000
  4.467E+09 4.467E+09 3.698E+00 2.360E+01 4.345E+02 1.084E+03 1.542E+03 1.546E+03 2.326E+07 25.4751 1.00000
  5.012E+09 5.012E+09 3.715E+00 2.654E+01 4.875E+02 1.240E+03 1.754E+03 1.758E+03 2.359E+07 25.7054 1.00000
  5.623E+09 5.623E+09 3.731E+00 2.985E+01 5.471E+02 1.418E+03 1.995E+03 1.999E+03 2.391E+07 25.9356 1.00000
  6.310E+09 6.310E+09 3.747E+00 3.357E+01 6.139E+02 1.622E+03 2.269E+03 2.273E+03 2.424E+07 26.1659 1.00000
  7.079E+09 7.079E+09 3.764E+00 3.775E+01 6.889E+02 1.855E+03 2.582E+03 2.585E+03 2.456E+07 26.3962 1.00000
  7.943E+09 7.943E+09 3.781E+00 4.244E+01 7.730E+02 2.122E+03 2.937E+03 2.941E+03 2.487E+07 26.6264 1.00000
  8.913E+09 8.913E+09 3.798E+00 4.771E+01 8.674E+02 2.427E+03 3.342E+03 3.346E+03 2.518E+07 26.8567 1.00000
  1.000E+10 1.000E+10 3.815E+00 5.362E+01 9.733E+02 2.777E+03 3.804E+03 3.807E+03 2.548E+07 27.0869 1.00000
  1.122E+10 1.122E+10 3.832E+00 6.027E+01 1.092E+03 3.177E+03 4.329E+03 4.333E+03 2.579E+07 27.3172 1.00000
  1.259E+10 1.259E+10 3.849E+00 6.773E+01 1.225E+03 3.634E+03 4.928E+03 4.931E+03 2.608E+07 27.5475 1.00000
  1.413E+10 1.413E+10 3.866E+00 7.610E+01 1.375E+03 4.158E+03 5.609E+03 5.613E+03 2.637E+07 27.7777 1.00000
  1.585E+10 1.585E+10 3.883E+00 8.550E+01 1.543E+03 4.758E+03 6.386E+03 6.390E+03 2.666E+07 28.0080 1.00000
  1.778E+10 1.778E+10 3.901E+00 9.606E+01 1.731E+03 5.445E+03 7.272E+03 7.276E+03 2.695E+07 28.2382 1.00000
  1.995E+10 1.995E+10 3.918E+00 1.079E+02 1.942E+03 6.231E+03 8.281E+03 8.285E+03 2.723E+07 28.4685 1.00000
  2.239E+10 2.239E+10 3.936E+00 1.212E+02 2.179E+03 7.130E+03 9.431E+03 9.435E+03 2.750E+07 28.6988 1.00000
  2.512E+10 2.512E+10 3.953E+00 1.361E+02 2.445E+03 8.160E+03 1.074E+04 1.075E+04 2.777E+07 28.9290 1.00000
  2.818E+10 2.818E+10 3.971E+00 1.529E+02 2.744E+03 9.340E+03 1.224E+04 1.224E+04 2.804E+07 29.1593 1.00000
  3.162E+10 3.162E+10 3.989E+00 1.717E+02 3.079E+03 1.069E+04 1.394E+04 1.394E+04 2.831E+07 29.3895 1.00000
  3.548E+10 3.548E+10 4.007E+00 1.928E+02 3.454E+03 1.224E+04 1.588E+04 1.589E+04 2.857E+07 29.6198 1.00000
  3.981E+10 3.981E+10 4.025E+00 2.165E+02 3.876E+03 1.401E+04 1.810E+04 1.810E+04 2.882E+07 29.8500 1.00000
  4.467E+10 4.467E+10 4.043E+00 2.431E+02 4.349E+03 1.604E+04 2.063E+04 2.063E+04 2.907E+07 30.0803 1.00000
  5.012E+10 5.012E+10 4.062E+00 2.729E+02 4.879E+03 1.836E+04 2.351E+04 2.351E+04 2.932E+07 30.3106 1.00000
  5.623E+10 5.623E+10 4.080E+00 3.064E+02 5.475E+03 2.102E+04 2.680E+04 2.680E+04 2.957E+07 30.5408 1.00000
  6.310E+10 6.310E+10 4.099E+00 3.440E+02 6.143E+03 2.406E+04 3.055E+04 3.055E+04 2.981E+07 30.7711 1.00000
  7.079E+10 7.079E+10 4.117E+00 3.862E+02 6.892E+03 2.755E+04 3.483E+04 3.484E+04 3.004E+07 31.0013 1.00000
  7.943E+10 7.943E+10 4.136E+00 4.335E+02 7.733E+03 3.155E+04 3.972E+04 3.972E+04 3.028E+07 31.2316 1.00000
  8.913E+10 8.913E+10 4.155E+00 4.867E+02 8.676E+03 3.613E+04 4.529E+04 4.530E+04 3.050E+07 31.4619 1.00000
  1.000E+11 1.000E+11 4.174E+00 5.463E+02 9.735E+03 4.137E+04 5.165E+04 5.166E+04 3.073E+07 31.6921 1.00000
  1.122E+11 1.122E+11 4.193E+00 6.132E+02 1.092E+04 4.738E+04 5.892E+04 5.892E+04 3.095E+07 31.9224 1.00000
  1.259E+11 1.259E+11 4.212E+00 6.882E+02 1.225E+04 5.427E+04 6.721E+04 6.722E+04 3.117E+07 32.1526 1.00000
  1.413E+11 1.413E+11 4.231E+00 7.724E+02 1.375E+04 6.216E+04 7.668E+04 7.668E+04 3.138E+07 32.3829 1.00000
  1.585E+11 1.585E+11 4.251E+00 8.669E+02 1.543E+04 7.120E+04 8.749E+04 8.749E+04 3.159E+07 32.6131 1.00000
  1.778E+11 1.778E+11 4.270E+00 9.730E+02 1.731E+04 8.155E+04 9.984E+04 9.984E+04 3.180E+07 32.8434 1.00000
  1.995E+11 1.995E+11 4.290E+00 1.092E+03 1.942E+04 9.342E+04 1.139E+05 1.139E+05 3.201E+07 33.0737 1.00000
  2.239E+11 2.239E+11 4.309E+00 1.226E+03 2.179E+04 1.070E+05 1.300E+05 1.300E+05 3.221E+07 33.3039 1.00000
  2.512E+11 2.512E+11 4.329E+00 1.375E+03 2.445E+04 1.226E+05 1.484E+05 1.484E+05 3.240E+07 33.5342 1.00000
  2.818E+11 2.818E+11 4.349E+00 1.543E+03 2.743E+04 1.405E+05 1.695E+05 1.695E+05 3.260E+07 33.7644 1.00000
  3.162E+11 3.162E+11 4.369E+00 1.732E+03 3.078E+04 1.610E+05 1.935E+05 1.935E+05 3.279E+07 33.9947 1.00000
  3.548E+11 3.548E+11 4.389E+00 1.944E+03 3.453E+04 1.844E+05 2.209E+05 2.209E+05 3.297E+07 34.2250 1.00000
  3.981E+11 3.981E+11 4.409E+00 2.181E+03 3.874E+04 2.113E+05 2.523E+05 2.523E+05 3.316E+07 34.4552 1.00000
  4.467E+11 4.467E+11 4.430E+00 2.448E+03 4.347E+04 2.422E+05 2.881E+05 2.881E+05 3.334E+07 34.6855 1.00000
  5.012E+11 5.012E+11 4.450E+00 2.747E+03 4.877E+04 2.776E+05 3.291E+05 3.291E+05 3.352E+07 34.9157 1.00000
  5.623E+11 5.623E+11 4.471E+00 3.082E+03 5.472E+04 3.181E+05 3.759E+05 3.759E+05 3.369E+07 35.1460 1.00000
  6.310E+11 6.310E+11 4.492E+00 3.459E+03 6.140E+04 3.646E+05 4.294E+05 4.294E+05 3.386E+07 35.3762 1.00000
  7.079E+11 7.079E+11 4.512E+00 3.881E+03 6.888E+04 4.179E+05 4.907E+05 4.907E+05 3.403E+07 35.6065 1.00000
  7.943E+11 7.943E+11 4.533E+00 4.355E+03 7.729E+04 4.790E+05 5.606E+05 5.606E+05 3.420E+07 35.8368 1.00000
  8.913E+11 8.913E+11 4.554E+00 4.887E+03 8.671E+04 5.491E+05 6.407E+05 6.407E+05 3.436E+07 36.0670 1.00000
  1.000E+12 1.000E+12 4.576E+00 5.483E+03 9.729E+04 6.295E+05 7.322E+05 7.322E+05 3.452E+07 36.2973 1.00000
  1.122E+12 1.122E+12 4.597E+00 6.153E+03 1.092E+05 7.216E+05 8.369E+05 8.369E+05 3.467E+07 36.5275 1.00000
  1.259E+12 1.259E+12 4.618E+00 6.904E+03 1.225E+05 8.273E+05 9.567E+05 9.567E+05 3.483E+07 36.7578 1.00000
  1.413E+12 1.413E+12 4.640E+00 7.747E+03 1.374E+05 9.486E+05 1.094E+06 1.094E+06 3.498E+07 36.9881 1.00000
  1.585E+12 1.585E+12 4.661E+00 8.692E+03 1.542E+05 1.088E+06 1.251E+06 1.251E+06 3.512E+07 37.2183 1.00000
  1.778E+12 1.778E+12 4.683E+00 9.753E+03 1.730E+05 1.247E+06 1.430E+06 1.430E+06 3.527E+07 37.4486 1.00000
  1.995E+12 1.995E+12 4.705E+00 1.094E+04 1.941E+05 1.430E+06 1.635E+06 1.635E+06 3.541E+07 37.6788 1.00000
  2.239E+12 2.239E+12 4.727E+00 1.228E+04 2.178E+05 1.640E+06 1.870E+06 1.870E+06 3.555E+07 37.9091 1.00000
  2.512E+12 2.512E+12 4.749E+00 1.378E+04 2.443E+05 1.881E+06 2.139E+06 2.139E+06 3.569E+07 38.1393 1.00000
  2.818E+12 2.818E+12 4.772E+00 1.546E+04 2.741E+05 2.157E+06 2.447E+06 2.447E+06 3.582E+07 38.3696 1.00000
  3.162E+12 3.162E+12 4.794E+00 1.735E+04 3.075E+05 2.474E+06 2.799E+06 2.799E+06 3.595E+07 38.5999 1.00000
  3.548E+12 3.548E+12 4.816E+00 1.946E+04 3.451E+05 2.838E+06 3.202E+06 3.202E+06 3.608E+07 38.8301 1.00000
  3.981E+12 3.981E+12 4.839E+00 2.184E+04 3.871E+05 3.255E+06 3.664E+06 3.664E+06 3.621E+07 39.0604 1.00000
  4.467E+12 4.467E+12 4.862E+00 2.450E+04 4.344E+05 3.734E+06 4.193E+06 4.193E+06 3.633E+07 39.2906 1.00000
  5.012E+12 5.012E+12 4.885E+00 2.750E+04 4.873E+05 4.284E+06 4.799E+06 4.799E+06 3.646E+07 39.5209 1.00000
  5.623E+12 5.623E+12 4.908E+00 3.085E+04 5.468E+05 4.914E+06 5.492E+06 5.492E+06 3.657E+07 39.7512 1.00000
  6.310E+12 6.310E+12 4.931E+00 3.462E+04 6.135E+05 5.638E+06 6.286E+06 6.286E+06 3.669E+07 39.9814 1.00000
  7.079E+12 7.079E+12 4.954E+00 3.884E+04 6.883E+05 6.469E+06 7.196E+06 7.196E+06 3.681E+07 40.2117 1.00000
  7.943E+12 7.943E+12 4.977E+00 4.358E+04 7.722E+05 7.423E+06 8.238E+06 8.238E+06 3.692E+07 40.4419 1.00000
  8.913E+12 8.913E+12 5.001E+00 4.890E+04 8.664E+05 8.517E+06 9.433E+06 9.433E+06 3.703E+07 40.6722 1.00000
  1.000E+13 1.000E+13 5.025E+00 5.486E+04 9.721E+05 9.774E+06 1.080E+07 1.080E+07 3.714E+07 40.9025 1.00000
  1.122E+13 1.122E+13 5.048E+00 6.156E+04 1.091E+06 1.122E+07 1.237E+07 1.237E+07 3.724E+07 41.1327 1.00000
  1.259E+13 1.259E+13 5.072E+00 6.907E+04 1.224E+06 1.287E+07 1.416E+07 1.416E+07 3.735E+07 41.3630 1.00000
  1.413E+13 1.413E+13 5.096E+00 7.750E+04 1.373E+06 1.477E+07 1.622E+07 1.622E+07 3.745E+07 41.5932 1.00000
  1.585E+13 1.585E+13 5.120E+00 8.696E+04 1.540E+06 1.696E+07 1.858E+07 1.858E+07 3.755E+07 41.8235 1.00000
  1.778E+13 1.778E+13 5.145E+00 9.757E+04 1.728E+06 1.946E+07 2.129E+07 2.129E+07 3.765E+07 42.0537 1.00000
  1.995E+13 1.995E+13 5.169E+00 1.095E+05 1.939E+06 2.234E+07 2.439E+07 2.439E+07 3.774E+07 42.2840 1.00000
  2.239E+13 2.239E+13 5.194E+00 1.228E+05 2.175E+06 2.564E+07 2.794E+07 2.794E+07 3.783E+07 42.5143 1.00000
  2.512E+13 2.512E+13 5.218E+00 1.378E+05 2.441E+06 2.944E+07 3.202E+07 3.202E+07 3.793E+07 42.7445 1.00000
  2.818E+13 2.818E+13 5.243E+00 1.546E+05 2.738E+06 3.379E+07 3.669E+07 3.669E+07 3.802E+07 42.9748 1.00000
  3.162E+13 3.162E+13 5.268E+00 1.735E+05 3.072E+06 3.880E+07 4.204E+07 4.204E+07 3.810E+07 43.2050 1.00000
  3.548E+13 3.548E+13 5.293E+00 1.947E+05 3.447E+06 4.455E+07 4.819E+07 4.819E+07 3.819E+07 43.4353 1.00000
  3.981E+13 3.981E+13 5.318E+00 2.184E+05 3.867E+06 5.115E+07 5.523E+07 5.523E+07 3.827E+07 43.6656 1.00000
  4.467E+13 4.467E+13 5.344E+00 2.451E+05 4.339E+06 5.873E+07 6.331E+07 6.331E+07 3.836E+07 43.8958 1.00000
  5.012E+13 5.012E+13 5.369E+00 2.750E+05 4.868E+06 6.744E+07 7.258E+07 7.258E+07 3.844E+07 44.1261 1.00000
  5.623E+13 5.623E+13 5.395E+00 3.085E+05 5.462E+06 7.744E+07 8.321E+07 8.321E+07 3.851E+07 44.3563 1.00000
  6.310E+13 6.310E+13 5.421E+00 3.462E+05 6.128E+06 8.893E+07 9.541E+07 9.541E+07 3.859E+07 44.5866 1.00000
  7.079E+13 7.079E+13 5.446E+00 3.884E+05 6.876E+06 1.021E+08 1.094E+08 1.094E+08 3.867E+07 44.8168 1.00000
  7.943E+13 7.943E+13 5.472E+00 4.358E+05 7.714E+06 1.173E+08 1.254E+08 1.254E+08 3.874E+07 45.0471 1.00000
  8.913E+13 8.913E+13 5.499E+00 4.890E+05 8.655E+06 1.347E+08 1.439E+08 1.439E+08 3.881E+07 45.2774 1.00000
