 Incident particle is a Tau with M = 1776.82000 MeV
 Index = 0: LiquidKrypton
      Absorber with <Z/A> = 0.42960
 Sternheimer coef:  a     k=m_s   x_0    x_1    I[eV]   Cbar  delta0
                 0.2349  3.0000  0.4454  3.0000  352.0  5.9674 0.00

 *** Table generated with PUMAS v1.00 ***

      T         p     Ionization  brems     pair     photonuc  Radloss    dE/dx   CSDA Range  delta   beta
    [MeV]    [MeV/c]  -----------------------[MeV cm^2/g]------------------------  [g/cm^2]
  1.000E+05 1.018E+05 1.827E+00 5.350E-04 9.002E-03 7.789E-03 1.733E-02 1.845E+00 2.711E+04  2.5783 0.99985
  1.122E+05 1.140E+05 1.846E+00 6.196E-04 1.079E-02 8.759E-03 2.017E-02 1.866E+00 3.368E+04  2.7534 0.99988
  1.259E+05 1.277E+05 1.865E+00 7.171E-04 1.289E-02 9.798E-03 2.341E-02 1.888E+00 4.098E+04  2.9330 0.99990
  1.413E+05 1.430E+05 1.883E+00 8.295E-04 1.537E-02 1.096E-02 2.716E-02 1.910E+00 4.907E+04  3.1167 0.99992
  1.585E+05 1.603E+05 1.901E+00 9.591E-04 1.827E-02 1.226E-02 3.149E-02 1.933E+00 5.804E+04  3.3044 0.99994
  1.778E+05 1.796E+05 1.919E+00 1.108E-03 2.166E-02 1.370E-02 3.647E-02 1.956E+00 6.799E+04  3.4960 0.99995
  1.995E+05 2.013E+05 1.937E+00 1.280E-03 2.562E-02 1.534E-02 4.224E-02 1.979E+00 7.902E+04  3.6912 0.99996
  2.239E+05 2.256E+05 1.954E+00 1.477E-03 3.024E-02 1.713E-02 4.884E-02 2.003E+00 9.124E+04  3.8899 0.99997
  2.512E+05 2.530E+05 1.972E+00 1.704E-03 3.561E-02 1.912E-02 5.643E-02 2.028E+00 1.048E+05  4.0919 0.99998
  2.818E+05 2.836E+05 1.989E+00 1.965E-03 4.184E-02 2.136E-02 6.516E-02 2.054E+00 1.198E+05  4.2970 0.99998
  3.162E+05 3.180E+05 2.006E+00 2.264E-03 4.907E-02 2.388E-02 7.521E-02 2.081E+00 1.364E+05  4.5050 0.99998
  3.548E+05 3.566E+05 2.023E+00 2.608E-03 5.743E-02 2.670E-02 8.673E-02 2.109E+00 1.549E+05  4.7158 0.99999
  3.981E+05 3.999E+05 2.039E+00 3.002E-03 6.709E-02 2.983E-02 9.993E-02 2.139E+00 1.752E+05  4.9291 0.99999
  4.467E+05 4.485E+05 2.056E+00 3.455E-03 7.824E-02 3.334E-02 1.150E-01 2.171E+00 1.978E+05  5.1448 0.99999
  5.012E+05 5.030E+05 2.072E+00 3.973E-03 9.108E-02 3.728E-02 1.323E-01 2.205E+00 2.227E+05  5.3627 0.99999
  5.623E+05 5.641E+05 2.088E+00 4.567E-03 1.059E-01 4.152E-02 1.519E-01 2.240E+00 2.502E+05  5.5825 1.00000
  6.310E+05 6.327E+05 2.104E+00 5.247E-03 1.228E-01 4.630E-02 1.744E-01 2.279E+00 2.806E+05  5.8042 1.00000
  7.079E+05 7.097E+05 2.120E+00 6.026E-03 1.423E-01 5.167E-02 2.000E-01 2.320E+00 3.141E+05  6.0276 1.00000
  7.943E+05 7.961E+05 2.136E+00 6.918E-03 1.646E-01 5.773E-02 2.293E-01 2.365E+00 3.509E+05  6.2524 1.00000
  8.913E+05 8.930E+05 2.151E+00 7.938E-03 1.902E-01 6.457E-02 2.627E-01 2.414E+00 3.915E+05  6.4784 1.00000
  1.000E+06 1.002E+06 2.167E+00 9.104E-03 2.194E-01 7.229E-02 3.008E-01 2.468E+00 4.361E+05  6.7056 1.00000
  1.122E+06 1.124E+06 2.182E+00 1.044E-02 2.528E-01 8.101E-02 3.442E-01 2.526E+00 4.849E+05  6.9337 1.00000
  1.259E+06 1.261E+06 2.197E+00 1.196E-02 2.909E-01 9.087E-02 3.937E-01 2.591E+00 5.385E+05  7.1626 1.00000
  1.413E+06 1.414E+06 2.212E+00 1.370E-02 3.343E-01 1.020E-01 4.500E-01 2.662E+00 5.969E+05  7.3920 1.00000
  1.585E+06 1.587E+06 2.227E+00 1.569E-02 3.837E-01 1.147E-01 5.141E-01 2.741E+00 6.607E+05  7.6218 1.00000
  1.778E+06 1.780E+06 2.242E+00 1.796E-02 4.399E-01 1.290E-01 5.869E-01 2.829E+00 7.302E+05  7.8517 1.00000
  1.995E+06 1.997E+06 2.257E+00 2.055E-02 5.038E-01 1.453E-01 6.696E-01 2.926E+00 8.056E+05  8.0818 1.00000
  2.239E+06 2.240E+06 2.271E+00 2.350E-02 5.763E-01 1.637E-01 7.635E-01 3.035E+00 8.873E+05  8.3119 1.00000
  2.512E+06 2.514E+06 2.286E+00 2.687E-02 6.586E-01 1.846E-01 8.702E-01 3.156E+00 9.756E+05  8.5419 1.00000
  2.818E+06 2.820E+06 2.300E+00 3.071E-02 7.520E-01 2.084E-01 9.911E-01 3.291E+00 1.071E+06  8.7720 1.00000
  3.162E+06 3.164E+06 2.314E+00 3.509E-02 8.577E-01 2.354E-01 1.128E+00 3.442E+00 1.173E+06  9.0022 1.00000
  3.548E+06 3.550E+06 2.328E+00 4.008E-02 9.774E-01 2.662E-01 1.284E+00 3.612E+00 1.282E+06  9.2323 1.00000
  3.981E+06 3.983E+06 2.342E+00 4.576E-02 1.113E+00 3.011E-01 1.460E+00 3.802E+00 1.399E+06  9.4625 1.00000
  4.467E+06 4.469E+06 2.356E+00 5.222E-02 1.266E+00 3.408E-01 1.659E+00 4.015E+00 1.524E+06  9.6926 1.00000
  5.012E+06 5.014E+06 2.370E+00 5.959E-02 1.439E+00 3.860E-01 1.884E+00 4.254E+00 1.656E+06  9.9228 1.00000
  5.623E+06 5.625E+06 2.383E+00 6.796E-02 1.634E+00 4.375E-01 2.140E+00 4.523E+00 1.795E+06 10.1530 1.00000
  6.310E+06 6.311E+06 2.397E+00 7.749E-02 1.855E+00 4.961E-01 2.428E+00 4.825E+00 1.942E+06 10.3832 1.00000
  7.079E+06 7.081E+06 2.410E+00 8.833E-02 2.104E+00 5.628E-01 2.755E+00 5.164E+00 2.096E+06 10.6134 1.00000
  7.943E+06 7.945E+06 2.423E+00 1.007E-01 2.384E+00 6.389E-01 3.124E+00 5.547E+00 2.258E+06 10.8436 1.00000
  8.913E+06 8.914E+06 2.436E+00 1.147E-01 2.700E+00 7.255E-01 3.541E+00 5.976E+00 2.426E+06 11.0738 1.00000
  1.000E+07 1.000E+07 2.449E+00 1.306E-01 3.057E+00 8.242E-01 4.012E+00 6.460E+00 2.601E+06 11.3040 1.00000
  1.122E+07 1.122E+07 2.461E+00 1.486E-01 3.458E+00 9.367E-01 4.544E+00 7.005E+00 2.783E+06 11.5342 1.00000
  1.259E+07 1.259E+07 2.474E+00 1.692E-01 3.910E+00 1.065E+00 5.144E+00 7.619E+00 2.971E+06 11.7644 1.00000
  1.413E+07 1.413E+07 2.487E+00 1.924E-01 4.419E+00 1.211E+00 5.823E+00 8.309E+00 3.164E+06 11.9947 1.00000
  1.585E+07 1.585E+07 2.499E+00 2.189E-01 4.992E+00 1.378E+00 6.589E+00 9.088E+00 3.362E+06 12.2249 1.00000
  1.778E+07 1.778E+07 2.511E+00 2.489E-01 5.636E+00 1.568E+00 7.453E+00 9.965E+00 3.566E+06 12.4551 1.00000
  1.995E+07 1.995E+07 2.524E+00 2.829E-01 6.361E+00 1.785E+00 8.429E+00 1.095E+01 3.774E+06 12.6854 1.00000
  2.239E+07 2.239E+07 2.536E+00 3.214E-01 7.176E+00 2.032E+00 9.530E+00 1.207E+01 3.986E+06 12.9156 1.00000
  2.512E+07 2.512E+07 2.548E+00 3.651E-01 8.093E+00 2.315E+00 1.077E+01 1.332E+01 4.201E+06 13.1458 1.00000
  2.818E+07 2.819E+07 2.560E+00 4.146E-01 9.123E+00 2.637E+00 1.217E+01 1.473E+01 4.421E+06 13.3761 1.00000
  3.162E+07 3.162E+07 2.572E+00 4.706E-01 1.028E+01 3.004E+00 1.376E+01 1.633E+01 4.643E+06 13.6063 1.00000
  3.548E+07 3.548E+07 2.584E+00 5.341E-01 1.158E+01 3.424E+00 1.554E+01 1.812E+01 4.867E+06 13.8366 1.00000
  3.981E+07 3.981E+07 2.596E+00 6.059E-01 1.304E+01 3.902E+00 1.755E+01 2.015E+01 5.094E+06 14.0668 1.00000
  4.467E+07 4.467E+07 2.608E+00 6.872E-01 1.469E+01 4.448E+00 1.982E+01 2.243E+01 5.323E+06 14.2971 1.00000
  5.012E+07 5.012E+07 2.620E+00 7.792E-01 1.653E+01 5.072E+00 2.238E+01 2.500E+01 5.553E+06 14.5273 1.00000
  5.623E+07 5.624E+07 2.632E+00 8.832E-01 1.860E+01 5.784E+00 2.527E+01 2.790E+01 5.785E+06 14.7576 1.00000
  6.310E+07 6.310E+07 2.644E+00 1.001E+00 2.093E+01 6.597E+00 2.853E+01 3.117E+01 6.018E+06 14.9878 1.00000
  7.079E+07 7.080E+07 2.656E+00 1.134E+00 2.354E+01 7.524E+00 3.220E+01 3.486E+01 6.252E+06 15.2181 1.00000
  7.943E+07 7.943E+07 2.668E+00 1.284E+00 2.648E+01 8.584E+00 3.635E+01 3.901E+01 6.487E+06 15.4483 1.00000
  8.913E+07 8.913E+07 2.680E+00 1.454E+00 2.977E+01 9.794E+00 4.102E+01 4.370E+01 6.722E+06 15.6786 1.00000
  1.000E+08 1.000E+08 2.692E+00 1.645E+00 3.347E+01 1.117E+01 4.629E+01 4.899E+01 6.957E+06 15.9088 1.00000
  1.122E+08 1.122E+08 2.704E+00 1.861E+00 3.763E+01 1.275E+01 5.224E+01 5.494E+01 7.193E+06 16.1391 1.00000
  1.259E+08 1.259E+08 2.716E+00 2.105E+00 4.229E+01 1.455E+01 5.895E+01 6.167E+01 7.429E+06 16.3693 1.00000
  1.413E+08 1.413E+08 2.728E+00 2.381E+00 4.752E+01 1.661E+01 6.652E+01 6.924E+01 7.664E+06 16.5996 1.00000
  1.585E+08 1.585E+08 2.740E+00 2.691E+00 5.340E+01 1.896E+01 7.505E+01 7.779E+01 7.899E+06 16.8299 1.00000
  1.778E+08 1.778E+08 2.752E+00 3.042E+00 5.999E+01 2.165E+01 8.468E+01 8.744E+01 8.134E+06 17.0601 1.00000
  1.995E+08 1.995E+08 2.764E+00 3.437E+00 6.740E+01 2.472E+01 9.555E+01 9.831E+01 8.369E+06 17.2904 1.00000
  2.239E+08 2.239E+08 2.776E+00 3.882E+00 7.570E+01 2.822E+01 1.078E+02 1.106E+02 8.602E+06 17.5206 1.00000
  2.512E+08 2.512E+08 2.789E+00 4.383E+00 8.503E+01 3.222E+01 1.216E+02 1.244E+02 8.836E+06 17.7509 1.00000
  2.818E+08 2.818E+08 2.801E+00 4.948E+00 9.549E+01 3.680E+01 1.372E+02 1.400E+02 9.068E+06 17.9811 1.00000
  3.162E+08 3.162E+08 2.813E+00 5.585E+00 1.072E+02 4.202E+01 1.548E+02 1.577E+02 9.300E+06 18.2114 1.00000
  3.548E+08 3.548E+08 2.826E+00 6.302E+00 1.204E+02 4.799E+01 1.747E+02 1.775E+02 9.531E+06 18.4417 1.00000
  3.981E+08 3.981E+08 2.838E+00 7.109E+00 1.352E+02 5.482E+01 1.971E+02 2.000E+02 9.761E+06 18.6719 1.00000
  4.467E+08 4.467E+08 2.851E+00 8.017E+00 1.518E+02 6.262E+01 2.224E+02 2.253E+02 9.991E+06 18.9022 1.00000
  5.012E+08 5.012E+08 2.864E+00 9.039E+00 1.704E+02 7.153E+01 2.510E+02 2.539E+02 1.022E+07 19.1324 1.00000
  5.623E+08 5.623E+08 2.876E+00 1.019E+01 1.913E+02 8.172E+01 2.832E+02 2.861E+02 1.045E+07 19.3627 1.00000
  6.310E+08 6.310E+08 2.889E+00 1.148E+01 2.148E+02 9.336E+01 3.196E+02 3.225E+02 1.067E+07 19.5929 1.00000
  7.079E+08 7.079E+08 2.902E+00 1.294E+01 2.411E+02 1.067E+02 3.607E+02 3.636E+02 1.090E+07 19.8232 1.00000
  7.943E+08 7.943E+08 2.915E+00 1.458E+01 2.706E+02 1.219E+02 4.071E+02 4.100E+02 1.112E+07 20.0535 1.00000
  8.913E+08 8.913E+08 2.928E+00 1.642E+01 3.038E+02 1.393E+02 4.595E+02 4.624E+02 1.134E+07 20.2837 1.00000
  1.000E+09 1.000E+09 2.941E+00 1.849E+01 3.410E+02 1.592E+02 5.186E+02 5.215E+02 1.157E+07 20.5140 1.00000
  1.122E+09 1.122E+09 2.954E+00 2.081E+01 3.827E+02 1.819E+02 5.854E+02 5.883E+02 1.179E+07 20.7442 1.00000
  1.259E+09 1.259E+09 2.967E+00 2.343E+01 4.295E+02 2.079E+02 6.608E+02 6.638E+02 1.201E+07 20.9745 1.00000
  1.413E+09 1.413E+09 2.980E+00 2.636E+01 4.820E+02 2.376E+02 7.460E+02 7.489E+02 1.223E+07 21.2047 1.00000
  1.585E+09 1.585E+09 2.994E+00 2.967E+01 5.410E+02 2.716E+02 8.422E+02 8.452E+02 1.244E+07 21.4350 1.00000
  1.778E+09 1.778E+09 3.007E+00 3.338E+01 6.071E+02 3.104E+02 9.509E+02 9.539E+02 1.266E+07 21.6653 1.00000
  1.995E+09 1.995E+09 3.020E+00 3.754E+01 6.813E+02 3.548E+02 1.074E+03 1.077E+03 1.287E+07 21.8955 1.00000
  2.239E+09 2.239E+09 3.034E+00 4.222E+01 7.646E+02 4.057E+02 1.212E+03 1.215E+03 1.309E+07 22.1258 1.00000
  2.512E+09 2.512E+09 3.048E+00 4.748E+01 8.580E+02 4.638E+02 1.369E+03 1.372E+03 1.330E+07 22.3560 1.00000
  2.818E+09 2.818E+09 3.061E+00 5.339E+01 9.628E+02 5.302E+02 1.546E+03 1.550E+03 1.351E+07 22.5863 1.00000
  3.162E+09 3.162E+09 3.075E+00 6.002E+01 1.080E+03 6.063E+02 1.747E+03 1.750E+03 1.372E+07 22.8166 1.00000
  3.548E+09 3.548E+09 3.089E+00 6.747E+01 1.212E+03 6.932E+02 1.973E+03 1.976E+03 1.393E+07 23.0468 1.00000
  3.981E+09 3.981E+09 3.103E+00 7.583E+01 1.361E+03 7.927E+02 2.229E+03 2.232E+03 1.413E+07 23.2771 1.00000
  4.467E+09 4.467E+09 3.117E+00 8.522E+01 1.527E+03 9.065E+02 2.518E+03 2.521E+03 1.434E+07 23.5073 1.00000
  5.012E+09 5.012E+09 3.131E+00 9.577E+01 1.713E+03 1.037E+03 2.846E+03 2.849E+03 1.454E+07 23.7376 1.00000
  5.623E+09 5.623E+09 3.145E+00 1.076E+02 1.922E+03 1.186E+03 3.215E+03 3.219E+03 1.474E+07 23.9678 1.00000
  6.310E+09 6.310E+09 3.159E+00 1.209E+02 2.157E+03 1.356E+03 3.634E+03 3.637E+03 1.494E+07 24.1981 1.00000
  7.079E+09 7.079E+09 3.173E+00 1.358E+02 2.420E+03 1.551E+03 4.107E+03 4.110E+03 1.514E+07 24.4284 1.00000
  7.943E+09 7.943E+09 3.188E+00 1.526E+02 2.716E+03 1.774E+03 4.642E+03 4.646E+03 1.534E+07 24.6586 1.00000
  8.913E+09 8.913E+09 3.202E+00 1.713E+02 3.047E+03 2.030E+03 5.248E+03 5.251E+03 1.554E+07 24.8889 1.00000
  1.000E+10 1.000E+10 3.217E+00 1.924E+02 3.419E+03 2.322E+03 5.933E+03 5.937E+03 1.573E+07 25.1191 1.00000
  1.122E+10 1.122E+10 3.231E+00 2.161E+02 3.836E+03 2.656E+03 6.709E+03 6.712E+03 1.593E+07 25.3494 1.00000
  1.259E+10 1.259E+10 3.246E+00 2.427E+02 4.305E+03 3.039E+03 7.586E+03 7.590E+03 1.612E+07 25.5797 1.00000
  1.413E+10 1.413E+10 3.261E+00 2.725E+02 4.830E+03 3.477E+03 8.580E+03 8.583E+03 1.631E+07 25.8099 1.00000
  1.585E+10 1.585E+10 3.276E+00 3.060E+02 5.419E+03 3.979E+03 9.704E+03 9.707E+03 1.650E+07 26.0402 1.00000
  1.778E+10 1.778E+10 3.291E+00 3.436E+02 6.081E+03 4.553E+03 1.098E+04 1.098E+04 1.669E+07 26.2704 1.00000
  1.995E+10 1.995E+10 3.306E+00 3.857E+02 6.823E+03 5.210E+03 1.242E+04 1.242E+04 1.687E+07 26.5007 1.00000
  2.239E+10 2.239E+10 3.321E+00 4.330E+02 7.655E+03 5.962E+03 1.405E+04 1.405E+04 1.706E+07 26.7310 1.00000
  2.512E+10 2.512E+10 3.336E+00 4.861E+02 8.589E+03 6.824E+03 1.590E+04 1.590E+04 1.724E+07 26.9612 1.00000
  2.818E+10 2.818E+10 3.351E+00 5.457E+02 9.638E+03 7.810E+03 1.799E+04 1.800E+04 1.742E+07 27.1915 1.00000
  3.162E+10 3.162E+10 3.367E+00 6.126E+02 1.081E+04 8.939E+03 2.037E+04 2.037E+04 1.760E+07 27.4217 1.00000
  3.548E+10 3.548E+10 3.382E+00 6.876E+02 1.213E+04 1.023E+04 2.305E+04 2.306E+04 1.778E+07 27.6520 1.00000
  3.981E+10 3.981E+10 3.398E+00 7.718E+02 1.361E+04 1.171E+04 2.610E+04 2.610E+04 1.796E+07 27.8822 1.00000
  4.467E+10 4.467E+10 3.414E+00 8.663E+02 1.527E+04 1.341E+04 2.955E+04 2.955E+04 1.813E+07 28.1125 1.00000
  5.012E+10 5.012E+10 3.429E+00 9.723E+02 1.714E+04 1.535E+04 3.346E+04 3.346E+04 1.831E+07 28.3428 1.00000
  5.623E+10 5.623E+10 3.445E+00 1.091E+03 1.923E+04 1.757E+04 3.789E+04 3.790E+04 1.848E+07 28.5730 1.00000
  6.310E+10 6.310E+10 3.461E+00 1.225E+03 2.157E+04 2.012E+04 4.292E+04 4.292E+04 1.865E+07 28.8033 1.00000
  7.079E+10 7.079E+10 3.477E+00 1.375E+03 2.421E+04 2.304E+04 4.862E+04 4.862E+04 1.882E+07 29.0335 1.00000
  7.943E+10 7.943E+10 3.493E+00 1.543E+03 2.716E+04 2.638E+04 5.508E+04 5.509E+04 1.898E+07 29.2638 1.00000
  8.913E+10 8.913E+10 3.509E+00 1.731E+03 3.047E+04 3.021E+04 6.241E+04 6.242E+04 1.915E+07 29.4941 1.00000
  1.000E+11 1.000E+11 3.526E+00 1.943E+03 3.419E+04 3.460E+04 7.073E+04 7.073E+04 1.931E+07 29.7243 1.00000
  1.122E+11 1.122E+11 3.542E+00 2.180E+03 3.836E+04 3.962E+04 8.016E+04 8.017E+04 1.948E+07 29.9546 1.00000
  1.259E+11 1.259E+11 3.558E+00 2.447E+03 4.304E+04 4.538E+04 9.087E+04 9.087E+04 1.964E+07 30.1848 1.00000
  1.413E+11 1.413E+11 3.575E+00 2.746E+03 4.829E+04 5.198E+04 1.030E+05 1.030E+05 1.980E+07 30.4151 1.00000
  1.585E+11 1.585E+11 3.592E+00 3.081E+03 5.418E+04 5.953E+04 1.168E+05 1.168E+05 1.995E+07 30.6453 1.00000
  1.778E+11 1.778E+11 3.608E+00 3.457E+03 6.079E+04 6.819E+04 1.324E+05 1.324E+05 2.011E+07 30.8756 1.00000
  1.995E+11 1.995E+11 3.625E+00 3.880E+03 6.821E+04 7.812E+04 1.502E+05 1.502E+05 2.026E+07 31.1059 1.00000
  2.239E+11 2.239E+11 3.642E+00 4.354E+03 7.653E+04 8.949E+04 1.704E+05 1.704E+05 2.042E+07 31.3361 1.00000
  2.512E+11 2.512E+11 3.659E+00 4.885E+03 8.587E+04 1.025E+05 1.933E+05 1.933E+05 2.057E+07 31.5664 1.00000
  2.818E+11 2.818E+11 3.676E+00 5.482E+03 9.634E+04 1.175E+05 2.193E+05 2.193E+05 2.072E+07 31.7966 1.00000
  3.162E+11 3.162E+11 3.693E+00 6.151E+03 1.081E+05 1.346E+05 2.488E+05 2.488E+05 2.086E+07 32.0269 1.00000
  3.548E+11 3.548E+11 3.711E+00 6.902E+03 1.213E+05 1.542E+05 2.824E+05 2.824E+05 2.101E+07 32.2572 1.00000
  3.981E+11 3.981E+11 3.728E+00 7.745E+03 1.361E+05 1.767E+05 3.205E+05 3.205E+05 2.115E+07 32.4874 1.00000
  4.467E+11 4.467E+11 3.746E+00 8.690E+03 1.527E+05 2.025E+05 3.639E+05 3.639E+05 2.130E+07 32.7177 1.00000
  5.012E+11 5.012E+11 3.763E+00 9.751E+03 1.713E+05 2.321E+05 4.131E+05 4.131E+05 2.144E+07 32.9479 1.00000
  5.623E+11 5.623E+11 3.781E+00 1.094E+04 1.922E+05 2.660E+05 4.691E+05 4.691E+05 2.158E+07 33.1782 1.00000
  6.310E+11 6.310E+11 3.799E+00 1.228E+04 2.156E+05 3.049E+05 5.328E+05 5.328E+05 2.171E+07 33.4084 1.00000
  7.079E+11 7.079E+11 3.817E+00 1.378E+04 2.419E+05 3.494E+05 6.051E+05 6.051E+05 2.185E+07 33.6387 1.00000
  7.943E+11 7.943E+11 3.835E+00 1.546E+04 2.714E+05 4.005E+05 6.874E+05 6.874E+05 2.198E+07 33.8690 1.00000
  8.913E+11 8.913E+11 3.853E+00 1.734E+04 3.046E+05 4.591E+05 7.810E+05 7.810E+05 2.212E+07 34.0992 1.00000
  1.000E+12 1.000E+12 3.871E+00 1.946E+04 3.417E+05 5.264E+05 8.875E+05 8.875E+05 2.225E+07 34.3295 1.00000
  1.122E+12 1.122E+12 3.889E+00 2.184E+04 3.834E+05 6.034E+05 1.009E+06 1.009E+06 2.238E+07 34.5597 1.00000
  1.259E+12 1.259E+12 3.908E+00 2.450E+04 4.301E+05 6.918E+05 1.146E+06 1.146E+06 2.250E+07 34.7900 1.00000
  1.413E+12 1.413E+12 3.926E+00 2.749E+04 4.826E+05 7.932E+05 1.303E+06 1.303E+06 2.263E+07 35.0203 1.00000
  1.585E+12 1.585E+12 3.945E+00 3.084E+04 5.415E+05 9.095E+05 1.482E+06 1.482E+06 2.275E+07 35.2505 1.00000
  1.778E+12 1.778E+12 3.964E+00 3.461E+04 6.075E+05 1.043E+06 1.685E+06 1.685E+06 2.288E+07 35.4808 1.00000
  1.995E+12 1.995E+12 3.982E+00 3.883E+04 6.816E+05 1.196E+06 1.916E+06 1.916E+06 2.300E+07 35.7110 1.00000
  2.239E+12 2.239E+12 4.001E+00 4.357E+04 7.648E+05 1.371E+06 2.180E+06 2.180E+06 2.312E+07 35.9413 1.00000
  2.512E+12 2.512E+12 4.020E+00 4.889E+04 8.580E+05 1.573E+06 2.480E+06 2.480E+06 2.324E+07 36.1715 1.00000
  2.818E+12 2.818E+12 4.039E+00 5.485E+04 9.627E+05 1.804E+06 2.821E+06 2.821E+06 2.335E+07 36.4018 1.00000
  3.162E+12 3.162E+12 4.059E+00 6.155E+04 1.080E+06 2.069E+06 3.211E+06 3.211E+06 2.347E+07 36.6321 1.00000
  3.548E+12 3.548E+12 4.078E+00 6.906E+04 1.212E+06 2.373E+06 3.654E+06 3.654E+06 2.358E+07 36.8623 1.00000
  3.981E+12 3.981E+12 4.097E+00 7.749E+04 1.360E+06 2.722E+06 4.159E+06 4.159E+06 2.369E+07 37.0926 1.00000
  4.467E+12 4.467E+12 4.117E+00 8.694E+04 1.526E+06 3.122E+06 4.735E+06 4.735E+06 2.380E+07 37.3228 1.00000
  5.012E+12 5.012E+12 4.137E+00 9.755E+04 1.712E+06 3.582E+06 5.391E+06 5.391E+06 2.391E+07 37.5531 1.00000
  5.623E+12 5.623E+12 4.156E+00 1.095E+05 1.920E+06 4.109E+06 6.139E+06 6.139E+06 2.401E+07 37.7834 1.00000
  6.310E+12 6.310E+12 4.176E+00 1.228E+05 2.155E+06 4.715E+06 6.992E+06 6.992E+06 2.412E+07 38.0136 1.00000
  7.079E+12 7.079E+12 4.196E+00 1.378E+05 2.417E+06 5.409E+06 7.965E+06 7.965E+06 2.422E+07 38.2439 1.00000
  7.943E+12 7.943E+12 4.216E+00 1.546E+05 2.712E+06 6.207E+06 9.074E+06 9.074E+06 2.432E+07 38.4741 1.00000
  8.913E+12 8.913E+12 4.237E+00 1.735E+05 3.043E+06 7.122E+06 1.034E+07 1.034E+07 2.442E+07 38.7044 1.00000
  1.000E+13 1.000E+13 4.257E+00 1.946E+05 3.414E+06 8.173E+06 1.178E+07 1.178E+07 2.452E+07 38.9347 1.00000
  1.122E+13 1.122E+13 4.277E+00 2.184E+05 3.830E+06 9.379E+06 1.343E+07 1.343E+07 2.462E+07 39.1649 1.00000
  1.259E+13 1.259E+13 4.298E+00 2.450E+05 4.298E+06 1.076E+07 1.531E+07 1.531E+07 2.472E+07 39.3952 1.00000
  1.413E+13 1.413E+13 4.319E+00 2.749E+05 4.822E+06 1.235E+07 1.745E+07 1.745E+07 2.481E+07 39.6254 1.00000
  1.585E+13 1.585E+13 4.339E+00 3.085E+05 5.410E+06 1.418E+07 1.990E+07 1.990E+07 2.490E+07 39.8557 1.00000
  1.778E+13 1.778E+13 4.360E+00 3.461E+05 6.070E+06 1.627E+07 2.269E+07 2.269E+07 2.499E+07 40.0859 1.00000
  1.995E+13 1.995E+13 4.381E+00 3.884E+05 6.810E+06 1.868E+07 2.588E+07 2.588E+07 2.508E+07 40.3162 1.00000
  2.239E+13 2.239E+13 4.402E+00 4.358E+05 7.640E+06 2.144E+07 2.952E+07 2.952E+07 2.517E+07 40.5465 1.00000
  2.512E+13 2.512E+13 4.424E+00 4.889E+05 8.572E+06 2.462E+07 3.368E+07 3.368E+07 2.526E+07 40.7767 1.00000
  2.818E+13 2.818E+13 4.445E+00 5.486E+05 9.618E+06 2.826E+07 3.842E+07 3.842E+07 2.534E+07 41.0070 1.00000
  3.162E+13 3.162E+13 4.466E+00 6.155E+05 1.079E+07 3.244E+07 4.385E+07 4.385E+07 2.543E+07 41.2372 1.00000
  3.548E+13 3.548E+13 4.488E+00 6.906E+05 1.211E+07 3.725E+07 5.005E+07 5.005E+07 2.551E+07 41.4675 1.00000
  3.981E+13 3.981E+13 4.510E+00 7.749E+05 1.358E+07 4.277E+07 5.713E+07 5.713E+07 2.559E+07 41.6978 1.00000
  4.467E+13 4.467E+13 4.531E+00 8.694E+05 1.524E+07 4.911E+07 6.522E+07 6.522E+07 2.567E+07 41.9280 1.00000
  5.012E+13 5.012E+13 4.553E+00 9.755E+05 1.710E+07 5.639E+07 7.446E+07 7.446E+07 2.575E+07 42.1583 1.00000
  5.623E+13 5.623E+13 4.575E+00 1.095E+06 1.918E+07 6.476E+07 8.503E+07 8.503E+07 2.583E+07 42.3885 1.00000
  6.310E+13 6.310E+13 4.597E+00 1.228E+06 2.152E+07 7.436E+07 9.712E+07 9.712E+07 2.590E+07 42.6188 1.00000
  7.079E+13 7.079E+13 4.620E+00 1.378E+06 2.415E+07 8.540E+07 1.109E+08 1.109E+08 2.598E+07 42.8490 1.00000
  7.943E+13 7.943E+13 4.642E+00 1.546E+06 2.709E+07 9.809E+07 1.267E+08 1.267E+08 2.605E+07 43.0793 1.00000
  8.913E+13 8.913E+13 4.665E+00 1.735E+06 3.040E+07 1.127E+08 1.448E+08 1.448E+08 2.612E+07 43.3096 1.00000
