 Incident particle is a Tau with M = 1776.82000 MeV
 Index = 0: LiquidArgon
      Absorber with <Z/A> = 0.45058
 Sternheimer coef:  a     k=m_s   x_0    x_1    I[eV]   Cbar  delta0
                 0.1956  3.0000  0.2000  3.0000  188.0  5.2146 0.00

 *** Table generated with PUMAS v1.00 ***

      T         p     Ionization  brems     pair     photonuc  Radloss    dE/dx   CSDA Range  delta   beta
    [MeV]    [MeV/c]  -----------------------[MeV cm^2/g]------------------------  [g/cm^2]
  1.000E+05 1.018E+05 1.956E+00 2.972E-04 4.800E-03 7.998E-03 1.310E-02 1.969E+00 2.539E+04  3.2558 0.99985
  1.122E+05 1.140E+05 1.975E+00 3.438E-04 5.764E-03 9.009E-03 1.512E-02 1.991E+00 3.155E+04  3.4395 0.99988
  1.259E+05 1.277E+05 1.994E+00 3.975E-04 6.900E-03 1.009E-02 1.739E-02 2.012E+00 3.839E+04  3.6270 0.99990
  1.413E+05 1.430E+05 2.013E+00 4.593E-04 8.236E-03 1.131E-02 2.001E-02 2.033E+00 4.599E+04  3.8180 0.99992
  1.585E+05 1.603E+05 2.032E+00 5.305E-04 9.804E-03 1.267E-02 2.301E-02 2.055E+00 5.442E+04  4.0124 0.99994
  1.778E+05 1.796E+05 2.050E+00 6.124E-04 1.164E-02 1.419E-02 2.644E-02 2.077E+00 6.378E+04  4.2101 0.99995
  1.995E+05 2.013E+05 2.068E+00 7.066E-04 1.379E-02 1.591E-02 3.041E-02 2.099E+00 7.418E+04  4.4108 0.99996
  2.239E+05 2.256E+05 2.086E+00 8.148E-04 1.629E-02 1.779E-02 3.490E-02 2.121E+00 8.571E+04  4.6145 0.99997
  2.512E+05 2.530E+05 2.104E+00 9.391E-04 1.921E-02 1.990E-02 4.004E-02 2.144E+00 9.852E+04  4.8209 0.99998
  2.818E+05 2.836E+05 2.122E+00 1.082E-03 2.260E-02 2.226E-02 4.594E-02 2.168E+00 1.127E+05  5.0299 0.99998
  3.162E+05 3.180E+05 2.140E+00 1.246E-03 2.653E-02 2.492E-02 5.270E-02 2.192E+00 1.285E+05  5.2415 0.99998
  3.548E+05 3.566E+05 2.157E+00 1.434E-03 3.109E-02 2.791E-02 6.043E-02 2.218E+00 1.460E+05  5.4553 0.99999
  3.981E+05 3.999E+05 2.174E+00 1.649E-03 3.636E-02 3.124E-02 6.925E-02 2.244E+00 1.654E+05  5.6712 0.99999
  4.467E+05 4.485E+05 2.192E+00 1.896E-03 4.245E-02 3.496E-02 7.931E-02 2.271E+00 1.869E+05  5.8892 0.99999
  5.012E+05 5.030E+05 2.209E+00 2.180E-03 4.947E-02 3.915E-02 9.080E-02 2.299E+00 2.108E+05  6.1090 0.99999
  5.623E+05 5.641E+05 2.225E+00 2.504E-03 5.756E-02 4.367E-02 1.037E-01 2.329E+00 2.372E+05  6.3305 1.00000
  6.310E+05 6.327E+05 2.242E+00 2.875E-03 6.687E-02 4.876E-02 1.185E-01 2.361E+00 2.665E+05  6.5535 1.00000
  7.079E+05 7.097E+05 2.259E+00 3.300E-03 7.756E-02 5.450E-02 1.354E-01 2.394E+00 2.989E+05  6.7779 1.00000
  7.943E+05 7.961E+05 2.275E+00 3.787E-03 8.983E-02 6.098E-02 1.546E-01 2.430E+00 3.347E+05  7.0035 1.00000
  8.913E+05 8.930E+05 2.291E+00 4.343E-03 1.039E-01 6.828E-02 1.765E-01 2.468E+00 3.743E+05  7.2302 1.00000
  1.000E+06 1.002E+06 2.307E+00 4.979E-03 1.200E-01 7.654E-02 2.015E-01 2.509E+00 4.180E+05  7.4578 1.00000
  1.122E+06 1.124E+06 2.323E+00 5.706E-03 1.384E-01 8.588E-02 2.300E-01 2.553E+00 4.662E+05  7.6862 1.00000
  1.259E+06 1.261E+06 2.339E+00 6.537E-03 1.595E-01 9.644E-02 2.624E-01 2.602E+00 5.193E+05  7.9152 1.00000
  1.413E+06 1.414E+06 2.355E+00 7.486E-03 1.835E-01 1.084E-01 2.994E-01 2.654E+00 5.778E+05  8.1447 1.00000
  1.585E+06 1.587E+06 2.371E+00 8.570E-03 2.108E-01 1.220E-01 3.414E-01 2.712E+00 6.420E+05  8.3746 1.00000
  1.778E+06 1.780E+06 2.386E+00 9.807E-03 2.420E-01 1.373E-01 3.892E-01 2.775E+00 7.125E+05  8.6045 1.00000
  1.995E+06 1.997E+06 2.402E+00 1.122E-02 2.775E-01 1.548E-01 4.435E-01 2.845E+00 7.897E+05  8.8346 1.00000
  2.239E+06 2.240E+06 2.417E+00 1.283E-02 3.178E-01 1.746E-01 5.053E-01 2.922E+00 8.742E+05  9.0647 1.00000
  2.512E+06 2.514E+06 2.432E+00 1.467E-02 3.637E-01 1.971E-01 5.754E-01 3.007E+00 9.663E+05  9.2947 1.00000
  2.818E+06 2.820E+06 2.447E+00 1.676E-02 4.157E-01 2.226E-01 6.550E-01 3.102E+00 1.067E+06  9.5248 1.00000
  3.162E+06 3.164E+06 2.462E+00 1.915E-02 4.746E-01 2.516E-01 7.454E-01 3.207E+00 1.176E+06  9.7550 1.00000
  3.548E+06 3.550E+06 2.477E+00 2.188E-02 5.415E-01 2.847E-01 8.480E-01 3.325E+00 1.294E+06  9.9851 1.00000
  3.981E+06 3.983E+06 2.491E+00 2.498E-02 6.171E-01 3.222E-01 9.643E-01 3.456E+00 1.422E+06 10.2153 1.00000
  4.467E+06 4.469E+06 2.506E+00 2.851E-02 7.028E-01 3.649E-01 1.096E+00 3.602E+00 1.559E+06 10.4454 1.00000
  5.012E+06 5.014E+06 2.520E+00 3.253E-02 7.997E-01 4.136E-01 1.246E+00 3.766E+00 1.707E+06 10.6756 1.00000
  5.623E+06 5.625E+06 2.534E+00 3.711E-02 9.092E-01 4.689E-01 1.415E+00 3.949E+00 1.866E+06 10.9058 1.00000
  6.310E+06 6.311E+06 2.548E+00 4.232E-02 1.033E+00 5.320E-01 1.607E+00 4.155E+00 2.035E+06 11.1360 1.00000
  7.079E+06 7.081E+06 2.562E+00 4.825E-02 1.173E+00 6.038E-01 1.825E+00 4.387E+00 2.216E+06 11.3662 1.00000
  7.943E+06 7.945E+06 2.576E+00 5.499E-02 1.330E+00 6.856E-01 2.071E+00 4.647E+00 2.407E+06 11.5964 1.00000
  8.913E+06 8.914E+06 2.590E+00 6.266E-02 1.508E+00 7.788E-01 2.349E+00 4.939E+00 2.610E+06 11.8266 1.00000
  1.000E+07 1.000E+07 2.603E+00 7.137E-02 1.708E+00 8.850E-01 2.665E+00 5.268E+00 2.823E+06 12.0568 1.00000
  1.122E+07 1.122E+07 2.616E+00 8.127E-02 1.934E+00 1.006E+00 3.022E+00 5.638E+00 3.047E+06 12.2870 1.00000
  1.259E+07 1.259E+07 2.630E+00 9.252E-02 2.189E+00 1.144E+00 3.426E+00 6.055E+00 3.281E+06 12.5172 1.00000
  1.413E+07 1.413E+07 2.643E+00 1.053E-01 2.476E+00 1.302E+00 3.883E+00 6.525E+00 3.526E+06 12.7475 1.00000
  1.585E+07 1.585E+07 2.656E+00 1.198E-01 2.799E+00 1.481E+00 4.399E+00 7.055E+00 3.780E+06 12.9777 1.00000
  1.778E+07 1.778E+07 2.669E+00 1.363E-01 3.162E+00 1.686E+00 4.984E+00 7.653E+00 4.044E+06 13.2079 1.00000
  1.995E+07 1.995E+07 2.682E+00 1.549E-01 3.571E+00 1.919E+00 5.645E+00 8.327E+00 4.316E+06 13.4382 1.00000
  2.239E+07 2.239E+07 2.694E+00 1.761E-01 4.031E+00 2.186E+00 6.393E+00 9.087E+00 4.596E+06 13.6684 1.00000
  2.512E+07 2.512E+07 2.707E+00 2.001E-01 4.548E+00 2.489E+00 7.238E+00 9.945E+00 4.883E+06 13.8986 1.00000
  2.818E+07 2.819E+07 2.720E+00 2.274E-01 5.130E+00 2.836E+00 8.194E+00 1.091E+01 5.178E+06 14.1289 1.00000
  3.162E+07 3.162E+07 2.732E+00 2.582E-01 5.784E+00 3.232E+00 9.274E+00 1.201E+01 5.479E+06 14.3591 1.00000
  3.548E+07 3.548E+07 2.745E+00 2.932E-01 6.519E+00 3.683E+00 1.050E+01 1.324E+01 5.785E+06 14.5894 1.00000
  3.981E+07 3.981E+07 2.757E+00 3.328E-01 7.346E+00 4.199E+00 1.188E+01 1.463E+01 6.097E+06 14.8196 1.00000
  4.467E+07 4.467E+07 2.770E+00 3.776E-01 8.274E+00 4.787E+00 1.344E+01 1.621E+01 6.412E+06 15.0499 1.00000
  5.012E+07 5.012E+07 2.783E+00 4.284E-01 9.318E+00 5.458E+00 1.520E+01 1.799E+01 6.732E+06 15.2801 1.00000
  5.623E+07 5.624E+07 2.795E+00 4.858E-01 1.049E+01 6.225E+00 1.720E+01 2.000E+01 7.055E+06 15.5104 1.00000
  6.310E+07 6.310E+07 2.808E+00 5.508E-01 1.181E+01 7.100E+00 1.946E+01 2.226E+01 7.381E+06 15.7406 1.00000
  7.079E+07 7.080E+07 2.820E+00 6.243E-01 1.328E+01 8.099E+00 2.201E+01 2.483E+01 7.709E+06 15.9709 1.00000
  7.943E+07 7.943E+07 2.833E+00 7.073E-01 1.495E+01 9.240E+00 2.489E+01 2.773E+01 8.038E+06 16.2011 1.00000
  8.913E+07 8.913E+07 2.845E+00 8.012E-01 1.681E+01 1.054E+01 2.815E+01 3.100E+01 8.369E+06 16.4314 1.00000
  1.000E+08 1.000E+08 2.858E+00 9.073E-01 1.890E+01 1.203E+01 3.184E+01 3.470E+01 8.701E+06 16.6616 1.00000
  1.122E+08 1.122E+08 2.870E+00 1.027E+00 2.125E+01 1.373E+01 3.601E+01 3.888E+01 9.034E+06 16.8919 1.00000
  1.259E+08 1.259E+08 2.883E+00 1.162E+00 2.389E+01 1.567E+01 4.073E+01 4.361E+01 9.367E+06 17.1221 1.00000
  1.413E+08 1.413E+08 2.896E+00 1.315E+00 2.686E+01 1.789E+01 4.606E+01 4.895E+01 9.700E+06 17.3524 1.00000
  1.585E+08 1.585E+08 2.908E+00 1.488E+00 3.018E+01 2.042E+01 5.209E+01 5.500E+01 1.003E+07 17.5827 1.00000
  1.778E+08 1.778E+08 2.921E+00 1.682E+00 3.392E+01 2.331E+01 5.891E+01 6.183E+01 1.037E+07 17.8129 1.00000
  1.995E+08 1.995E+08 2.934E+00 1.902E+00 3.811E+01 2.661E+01 6.662E+01 6.955E+01 1.070E+07 18.0432 1.00000
  2.239E+08 2.239E+08 2.947E+00 2.150E+00 4.281E+01 3.038E+01 7.535E+01 7.829E+01 1.103E+07 18.2734 1.00000
  2.512E+08 2.512E+08 2.960E+00 2.429E+00 4.809E+01 3.470E+01 8.522E+01 8.818E+01 1.136E+07 18.5037 1.00000
  2.818E+08 2.818E+08 2.973E+00 2.744E+00 5.402E+01 3.962E+01 9.638E+01 9.936E+01 1.168E+07 18.7339 1.00000
  3.162E+08 3.162E+08 2.986E+00 3.098E+00 6.067E+01 4.525E+01 1.090E+02 1.120E+02 1.201E+07 18.9642 1.00000
  3.548E+08 3.548E+08 2.999E+00 3.498E+00 6.813E+01 5.168E+01 1.233E+02 1.263E+02 1.234E+07 19.1945 1.00000
  3.981E+08 3.981E+08 3.012E+00 3.948E+00 7.651E+01 5.903E+01 1.395E+02 1.425E+02 1.266E+07 19.4247 1.00000
  4.467E+08 4.467E+08 3.025E+00 4.455E+00 8.591E+01 6.743E+01 1.578E+02 1.608E+02 1.298E+07 19.6550 1.00000
  5.012E+08 5.012E+08 3.038E+00 5.026E+00 9.646E+01 7.703E+01 1.785E+02 1.815E+02 1.330E+07 19.8852 1.00000
  5.623E+08 5.623E+08 3.052E+00 5.669E+00 1.083E+02 8.800E+01 2.020E+02 2.050E+02 1.362E+07 20.1155 1.00000
  6.310E+08 6.310E+08 3.065E+00 6.392E+00 1.216E+02 1.005E+02 2.285E+02 2.316E+02 1.393E+07 20.3457 1.00000
  7.079E+08 7.079E+08 3.078E+00 7.206E+00 1.365E+02 1.149E+02 2.586E+02 2.616E+02 1.425E+07 20.5760 1.00000
  7.943E+08 7.943E+08 3.092E+00 8.122E+00 1.532E+02 1.312E+02 2.926E+02 2.957E+02 1.456E+07 20.8063 1.00000
  8.913E+08 8.913E+08 3.105E+00 9.152E+00 1.720E+02 1.500E+02 3.311E+02 3.342E+02 1.487E+07 21.0365 1.00000
  1.000E+09 1.000E+09 3.119E+00 1.031E+01 1.931E+02 1.714E+02 3.747E+02 3.779E+02 1.517E+07 21.2668 1.00000
  1.122E+09 1.122E+09 3.133E+00 1.161E+01 2.167E+02 1.959E+02 4.242E+02 4.273E+02 1.548E+07 21.4970 1.00000
  1.259E+09 1.259E+09 3.147E+00 1.308E+01 2.432E+02 2.238E+02 4.801E+02 4.833E+02 1.578E+07 21.7273 1.00000
  1.413E+09 1.413E+09 3.161E+00 1.473E+01 2.730E+02 2.558E+02 5.435E+02 5.467E+02 1.608E+07 21.9575 1.00000
  1.585E+09 1.585E+09 3.175E+00 1.658E+01 3.064E+02 2.924E+02 6.154E+02 6.185E+02 1.638E+07 22.1878 1.00000
  1.778E+09 1.778E+09 3.189E+00 1.866E+01 3.438E+02 3.343E+02 6.968E+02 6.999E+02 1.667E+07 22.4181 1.00000
  1.995E+09 1.995E+09 3.203E+00 2.100E+01 3.859E+02 3.821E+02 7.890E+02 7.922E+02 1.696E+07 22.6483 1.00000
  2.239E+09 2.239E+09 3.217E+00 2.363E+01 4.330E+02 4.368E+02 8.935E+02 8.967E+02 1.725E+07 22.8786 1.00000
  2.512E+09 2.512E+09 3.231E+00 2.658E+01 4.860E+02 4.994E+02 1.012E+03 1.015E+03 1.754E+07 23.1088 1.00000
  2.818E+09 2.818E+09 3.245E+00 2.990E+01 5.453E+02 5.710E+02 1.146E+03 1.149E+03 1.782E+07 23.3391 1.00000
  3.162E+09 3.162E+09 3.260E+00 3.363E+01 6.120E+02 6.529E+02 1.298E+03 1.302E+03 1.810E+07 23.5694 1.00000
  3.548E+09 3.548E+09 3.274E+00 3.781E+01 6.867E+02 7.465E+02 1.471E+03 1.474E+03 1.838E+07 23.7996 1.00000
  3.981E+09 3.981E+09 3.289E+00 4.251E+01 7.706E+02 8.536E+02 1.667E+03 1.670E+03 1.866E+07 24.0299 1.00000
  4.467E+09 4.467E+09 3.304E+00 4.779E+01 8.648E+02 9.762E+02 1.889E+03 1.892E+03 1.893E+07 24.2601 1.00000
  5.012E+09 5.012E+09 3.318E+00 5.372E+01 9.704E+02 1.116E+03 2.140E+03 2.144E+03 1.921E+07 24.4904 1.00000
  5.623E+09 5.623E+09 3.333E+00 6.038E+01 1.089E+03 1.277E+03 2.426E+03 2.429E+03 1.947E+07 24.7206 1.00000
  6.310E+09 6.310E+09 3.348E+00 6.786E+01 1.222E+03 1.460E+03 2.750E+03 2.753E+03 1.974E+07 24.9509 1.00000
  7.079E+09 7.079E+09 3.363E+00 7.625E+01 1.371E+03 1.670E+03 3.118E+03 3.121E+03 2.000E+07 25.1812 1.00000
  7.943E+09 7.943E+09 3.378E+00 8.568E+01 1.538E+03 1.911E+03 3.535E+03 3.538E+03 2.026E+07 25.4114 1.00000
  8.913E+09 8.913E+09 3.393E+00 9.626E+01 1.726E+03 2.186E+03 4.008E+03 4.012E+03 2.052E+07 25.6417 1.00000
  1.000E+10 1.000E+10 3.409E+00 1.081E+02 1.937E+03 2.500E+03 4.545E+03 4.549E+03 2.078E+07 25.8719 1.00000
  1.122E+10 1.122E+10 3.424E+00 1.215E+02 2.173E+03 2.861E+03 5.155E+03 5.159E+03 2.103E+07 26.1022 1.00000
  1.259E+10 1.259E+10 3.439E+00 1.364E+02 2.439E+03 3.273E+03 5.848E+03 5.851E+03 2.128E+07 26.3325 1.00000
  1.413E+10 1.413E+10 3.455E+00 1.532E+02 2.736E+03 3.745E+03 6.634E+03 6.638E+03 2.152E+07 26.5627 1.00000
  1.585E+10 1.585E+10 3.470E+00 1.721E+02 3.070E+03 4.285E+03 7.527E+03 7.530E+03 2.177E+07 26.7930 1.00000
  1.778E+10 1.778E+10 3.486E+00 1.932E+02 3.445E+03 4.903E+03 8.541E+03 8.544E+03 2.201E+07 27.0232 1.00000
  1.995E+10 1.995E+10 3.502E+00 2.170E+02 3.865E+03 5.611E+03 9.693E+03 9.696E+03 2.225E+07 27.2535 1.00000
  2.239E+10 2.239E+10 3.518E+00 2.437E+02 4.337E+03 6.421E+03 1.100E+04 1.100E+04 2.249E+07 27.4838 1.00000
  2.512E+10 2.512E+10 3.534E+00 2.736E+02 4.866E+03 7.349E+03 1.249E+04 1.249E+04 2.272E+07 27.7140 1.00000
  2.818E+10 2.818E+10 3.550E+00 3.071E+02 5.460E+03 8.411E+03 1.418E+04 1.418E+04 2.295E+07 27.9443 1.00000
  3.162E+10 3.162E+10 3.566E+00 3.448E+02 6.126E+03 9.627E+03 1.610E+04 1.610E+04 2.318E+07 28.1745 1.00000
  3.548E+10 3.548E+10 3.582E+00 3.871E+02 6.873E+03 1.102E+04 1.828E+04 1.828E+04 2.340E+07 28.4048 1.00000
  3.981E+10 3.981E+10 3.599E+00 4.345E+02 7.712E+03 1.261E+04 2.076E+04 2.076E+04 2.363E+07 28.6350 1.00000
  4.467E+10 4.467E+10 3.615E+00 4.878E+02 8.653E+03 1.444E+04 2.358E+04 2.358E+04 2.385E+07 28.8653 1.00000
  5.012E+10 5.012E+10 3.631E+00 5.475E+02 9.709E+03 1.653E+04 2.679E+04 2.679E+04 2.406E+07 29.0956 1.00000
  5.623E+10 5.623E+10 3.648E+00 6.146E+02 1.089E+04 1.893E+04 3.043E+04 3.044E+04 2.428E+07 29.3258 1.00000
  6.310E+10 6.310E+10 3.665E+00 6.898E+02 1.222E+04 2.167E+04 3.458E+04 3.459E+04 2.449E+07 29.5561 1.00000
  7.079E+10 7.079E+10 3.682E+00 7.743E+02 1.371E+04 2.481E+04 3.930E+04 3.930E+04 2.470E+07 29.7863 1.00000
  7.943E+10 7.943E+10 3.698E+00 8.690E+02 1.539E+04 2.841E+04 4.467E+04 4.467E+04 2.491E+07 30.0166 1.00000
  8.913E+10 8.913E+10 3.715E+00 9.753E+02 1.726E+04 3.253E+04 5.077E+04 5.078E+04 2.511E+07 30.2469 1.00000
  1.000E+11 1.000E+11 3.732E+00 1.095E+03 1.937E+04 3.726E+04 5.772E+04 5.773E+04 2.531E+07 30.4771 1.00000
  1.122E+11 1.122E+11 3.750E+00 1.228E+03 2.173E+04 4.267E+04 6.563E+04 6.563E+04 2.551E+07 30.7074 1.00000
  1.259E+11 1.259E+11 3.767E+00 1.379E+03 2.438E+04 4.887E+04 7.463E+04 7.464E+04 2.571E+07 30.9376 1.00000
  1.413E+11 1.413E+11 3.784E+00 1.547E+03 2.736E+04 5.597E+04 8.488E+04 8.488E+04 2.590E+07 31.1679 1.00000
  1.585E+11 1.585E+11 3.802E+00 1.736E+03 3.070E+04 6.411E+04 9.654E+04 9.655E+04 2.609E+07 31.3981 1.00000
  1.778E+11 1.778E+11 3.819E+00 1.948E+03 3.444E+04 7.344E+04 1.098E+05 1.098E+05 2.628E+07 31.6284 1.00000
  1.995E+11 1.995E+11 3.837E+00 2.186E+03 3.864E+04 8.413E+04 1.250E+05 1.250E+05 2.646E+07 31.8587 1.00000
  2.239E+11 2.239E+11 3.855E+00 2.454E+03 4.336E+04 9.638E+04 1.422E+05 1.422E+05 2.665E+07 32.0889 1.00000
  2.512E+11 2.512E+11 3.873E+00 2.753E+03 4.865E+04 1.104E+05 1.618E+05 1.618E+05 2.683E+07 32.3192 1.00000
  2.818E+11 2.818E+11 3.890E+00 3.090E+03 5.458E+04 1.265E+05 1.842E+05 1.842E+05 2.700E+07 32.5494 1.00000
  3.162E+11 3.162E+11 3.909E+00 3.467E+03 6.124E+04 1.449E+05 2.097E+05 2.097E+05 2.718E+07 32.7797 1.00000
  3.548E+11 3.548E+11 3.927E+00 3.890E+03 6.871E+04 1.661E+05 2.387E+05 2.387E+05 2.735E+07 33.0100 1.00000
  3.981E+11 3.981E+11 3.945E+00 4.365E+03 7.709E+04 1.903E+05 2.718E+05 2.718E+05 2.752E+07 33.2402 1.00000
  4.467E+11 4.467E+11 3.963E+00 4.899E+03 8.649E+04 2.181E+05 3.095E+05 3.095E+05 2.769E+07 33.4705 1.00000
  5.012E+11 5.012E+11 3.982E+00 5.497E+03 9.704E+04 2.499E+05 3.525E+05 3.525E+05 2.786E+07 33.7007 1.00000
  5.623E+11 5.623E+11 4.000E+00 6.168E+03 1.089E+05 2.865E+05 4.015E+05 4.015E+05 2.802E+07 33.9310 1.00000
  6.310E+11 6.310E+11 4.019E+00 6.921E+03 1.222E+05 3.283E+05 4.574E+05 4.574E+05 2.818E+07 34.1612 1.00000
  7.079E+11 7.079E+11 4.038E+00 7.765E+03 1.371E+05 3.763E+05 5.211E+05 5.211E+05 2.834E+07 34.3915 1.00000
  7.943E+11 7.943E+11 4.057E+00 8.713E+03 1.538E+05 4.313E+05 5.938E+05 5.938E+05 2.849E+07 34.6218 1.00000
  8.913E+11 8.913E+11 4.076E+00 9.777E+03 1.725E+05 4.945E+05 6.768E+05 6.768E+05 2.865E+07 34.8520 1.00000
  1.000E+12 1.000E+12 4.095E+00 1.097E+04 1.936E+05 5.668E+05 7.714E+05 7.714E+05 2.880E+07 35.0823 1.00000
  1.122E+12 1.122E+12 4.114E+00 1.231E+04 2.172E+05 6.498E+05 8.793E+05 8.793E+05 2.895E+07 35.3125 1.00000
  1.259E+12 1.259E+12 4.133E+00 1.381E+04 2.437E+05 7.450E+05 1.003E+06 1.003E+06 2.909E+07 35.5428 1.00000
  1.413E+12 1.413E+12 4.153E+00 1.550E+04 2.734E+05 8.542E+05 1.143E+06 1.143E+06 2.924E+07 35.7731 1.00000
  1.585E+12 1.585E+12 4.172E+00 1.739E+04 3.068E+05 9.794E+05 1.304E+06 1.304E+06 2.938E+07 36.0033 1.00000
  1.778E+12 1.778E+12 4.192E+00 1.951E+04 3.442E+05 1.123E+06 1.487E+06 1.487E+06 2.952E+07 36.2336 1.00000
  1.995E+12 1.995E+12 4.212E+00 2.189E+04 3.862E+05 1.288E+06 1.696E+06 1.696E+06 2.965E+07 36.4638 1.00000
  2.239E+12 2.239E+12 4.231E+00 2.456E+04 4.333E+05 1.477E+06 1.935E+06 1.935E+06 2.979E+07 36.6941 1.00000
  2.512E+12 2.512E+12 4.251E+00 2.756E+04 4.861E+05 1.694E+06 2.207E+06 2.207E+06 2.992E+07 36.9243 1.00000
  2.818E+12 2.818E+12 4.271E+00 3.093E+04 5.454E+05 1.943E+06 2.519E+06 2.519E+06 3.005E+07 37.1546 1.00000
  3.162E+12 3.162E+12 4.292E+00 3.470E+04 6.119E+05 2.228E+06 2.875E+06 2.875E+06 3.018E+07 37.3849 1.00000
  3.548E+12 3.548E+12 4.312E+00 3.893E+04 6.866E+05 2.556E+06 3.281E+06 3.281E+06 3.031E+07 37.6151 1.00000
  3.981E+12 3.981E+12 4.332E+00 4.368E+04 7.703E+05 2.931E+06 3.745E+06 3.745E+06 3.043E+07 37.8454 1.00000
  4.467E+12 4.467E+12 4.353E+00 4.902E+04 8.643E+05 3.363E+06 4.276E+06 4.276E+06 3.055E+07 38.0756 1.00000
  5.012E+12 5.012E+12 4.373E+00 5.500E+04 9.697E+05 3.857E+06 4.882E+06 4.882E+06 3.067E+07 38.3059 1.00000
  5.623E+12 5.623E+12 4.394E+00 6.171E+04 1.088E+06 4.425E+06 5.575E+06 5.575E+06 3.079E+07 38.5362 1.00000
  6.310E+12 6.310E+12 4.415E+00 6.924E+04 1.221E+06 5.077E+06 6.367E+06 6.367E+06 3.090E+07 38.7664 1.00000
  7.079E+12 7.079E+12 4.436E+00 7.769E+04 1.369E+06 5.825E+06 7.273E+06 7.273E+06 3.102E+07 38.9967 1.00000
  7.943E+12 7.943E+12 4.457E+00 8.717E+04 1.537E+06 6.684E+06 8.308E+06 8.308E+06 3.113E+07 39.2269 1.00000
  8.913E+12 8.913E+12 4.478E+00 9.780E+04 1.724E+06 7.670E+06 9.492E+06 9.492E+06 3.124E+07 39.4572 1.00000
  1.000E+13 1.000E+13 4.500E+00 1.097E+05 1.934E+06 8.801E+06 1.085E+07 1.085E+07 3.134E+07 39.6875 1.00000
  1.122E+13 1.122E+13 4.521E+00 1.231E+05 2.170E+06 1.010E+07 1.239E+07 1.239E+07 3.145E+07 39.9177 1.00000
  1.259E+13 1.259E+13 4.543E+00 1.382E+05 2.435E+06 1.159E+07 1.416E+07 1.416E+07 3.155E+07 40.1480 1.00000
  1.413E+13 1.413E+13 4.564E+00 1.550E+05 2.732E+06 1.330E+07 1.619E+07 1.619E+07 3.166E+07 40.3782 1.00000
  1.585E+13 1.585E+13 4.586E+00 1.739E+05 3.065E+06 1.527E+07 1.851E+07 1.851E+07 3.176E+07 40.6085 1.00000
  1.778E+13 1.778E+13 4.608E+00 1.951E+05 3.439E+06 1.752E+07 2.116E+07 2.116E+07 3.185E+07 40.8387 1.00000
  1.995E+13 1.995E+13 4.630E+00 2.190E+05 3.858E+06 2.012E+07 2.419E+07 2.419E+07 3.195E+07 41.0690 1.00000
  2.239E+13 2.239E+13 4.652E+00 2.457E+05 4.329E+06 2.309E+07 2.767E+07 2.767E+07 3.204E+07 41.2993 1.00000
  2.512E+13 2.512E+13 4.674E+00 2.757E+05 4.856E+06 2.651E+07 3.164E+07 3.164E+07 3.214E+07 41.5295 1.00000
  2.818E+13 2.818E+13 4.697E+00 3.093E+05 5.449E+06 3.043E+07 3.619E+07 3.619E+07 3.223E+07 41.7598 1.00000
  3.162E+13 3.162E+13 4.719E+00 3.470E+05 6.113E+06 3.494E+07 4.140E+07 4.140E+07 3.232E+07 41.9900 1.00000
  3.548E+13 3.548E+13 4.742E+00 3.894E+05 6.859E+06 4.011E+07 4.736E+07 4.736E+07 3.240E+07 42.2203 1.00000
  3.981E+13 3.981E+13 4.764E+00 4.369E+05 7.695E+06 4.606E+07 5.419E+07 5.419E+07 3.249E+07 42.4506 1.00000
  4.467E+13 4.467E+13 4.787E+00 4.902E+05 8.634E+06 5.288E+07 6.201E+07 6.201E+07 3.257E+07 42.6808 1.00000
  5.012E+13 5.012E+13 4.810E+00 5.500E+05 9.687E+06 6.073E+07 7.096E+07 7.096E+07 3.266E+07 42.9111 1.00000
  5.623E+13 5.623E+13 4.833E+00 6.171E+05 1.087E+07 6.973E+07 8.122E+07 8.122E+07 3.274E+07 43.1413 1.00000
  6.310E+13 6.310E+13 4.857E+00 6.924E+05 1.219E+07 8.008E+07 9.297E+07 9.297E+07 3.282E+07 43.3716 1.00000
  7.079E+13 7.079E+13 4.880E+00 7.769E+05 1.368E+07 9.197E+07 1.064E+08 1.064E+08 3.289E+07 43.6018 1.00000
  7.943E+13 7.943E+13 4.903E+00 8.717E+05 1.535E+07 1.056E+08 1.218E+08 1.218E+08 3.297E+07 43.8321 1.00000
  8.913E+13 8.913E+13 4.927E+00 9.781E+05 1.722E+07 1.213E+08 1.395E+08 1.395E+08 3.304E+07 44.0624 1.00000
