 Incident particle is a Tau with M = 1776.82000 MeV
 Index = 0: LiquidHydrogen
      Absorber with <Z/A> = 0.99138
 Sternheimer coef:  a     k=m_s   x_0    x_1    I[eV]   Cbar  delta0
                 0.1348  5.6249  0.4400  1.8856   21.8  3.0977 0.00

 *** Table generated with PUMAS v1.00 ***

      T         p     Ionization  brems     pair     photonuc  Radloss    dE/dx   CSDA Range  delta   beta
    [MeV]    [MeV/c]  -----------------------[MeV cm^2/g]------------------------  [g/cm^2]
  1.000E+05 1.018E+05 4.695E+00 4.767E-05 8.027E-04 9.202E-03 1.005E-02 4.705E+00 1.063E+04  4.9979 0.99985
  1.122E+05 1.140E+05 4.731E+00 5.494E-05 1.002E-03 1.045E-02 1.151E-02 4.742E+00 1.321E+04  5.2244 0.99988
  1.259E+05 1.277E+05 4.766E+00 6.332E-05 1.239E-03 1.181E-02 1.312E-02 4.779E+00 1.609E+04  5.4513 0.99990
  1.413E+05 1.430E+05 4.802E+00 7.295E-05 1.521E-03 1.335E-02 1.495E-02 4.817E+00 1.929E+04  5.6786 0.99992
  1.585E+05 1.603E+05 4.838E+00 8.403E-05 1.856E-03 1.508E-02 1.702E-02 4.855E+00 2.285E+04  5.9062 0.99994
  1.778E+05 1.796E+05 4.874E+00 9.678E-05 2.252E-03 1.703E-02 1.938E-02 4.893E+00 2.682E+04  6.1341 0.99995
  1.995E+05 2.013E+05 4.910E+00 1.114E-04 2.720E-03 1.926E-02 2.209E-02 4.932E+00 3.124E+04  6.3622 0.99996
  2.239E+05 2.256E+05 4.946E+00 1.283E-04 3.271E-03 2.171E-02 2.511E-02 4.971E+00 3.615E+04  6.5905 0.99997
  2.512E+05 2.530E+05 4.982E+00 1.477E-04 3.918E-03 2.448E-02 2.854E-02 5.010E+00 4.163E+04  6.8191 0.99998
  2.818E+05 2.836E+05 5.018E+00 1.700E-04 4.677E-03 2.760E-02 3.245E-02 5.050E+00 4.772E+04  7.0478 0.99998
  3.162E+05 3.180E+05 5.054E+00 1.957E-04 5.565E-03 3.115E-02 3.691E-02 5.091E+00 5.450E+04  7.2767 0.99998
  3.548E+05 3.566E+05 5.090E+00 2.252E-04 6.603E-03 3.516E-02 4.198E-02 5.132E+00 6.205E+04  7.5058 0.99999
  3.981E+05 3.999E+05 5.126E+00 2.591E-04 7.813E-03 3.964E-02 4.772E-02 5.174E+00 7.045E+04  7.7350 0.99999
  4.467E+05 4.485E+05 5.162E+00 2.982E-04 9.221E-03 4.470E-02 5.422E-02 5.216E+00 7.980E+04  7.9643 0.99999
  5.012E+05 5.030E+05 5.198E+00 3.431E-04 1.086E-02 5.041E-02 6.161E-02 5.259E+00 9.021E+04  8.1937 0.99999
  5.623E+05 5.641E+05 5.234E+00 3.948E-04 1.276E-02 5.663E-02 6.978E-02 5.303E+00 1.018E+05  8.4232 1.00000
  6.310E+05 6.327E+05 5.269E+00 4.544E-04 1.496E-02 6.366E-02 7.908E-02 5.348E+00 1.147E+05  8.6527 1.00000
  7.079E+05 7.097E+05 5.305E+00 5.230E-04 1.751E-02 7.162E-02 8.966E-02 5.395E+00 1.290E+05  8.8824 1.00000
  7.943E+05 7.961E+05 5.341E+00 6.019E-04 2.046E-02 8.064E-02 1.017E-01 5.442E+00 1.449E+05  9.1121 1.00000
  8.913E+05 8.930E+05 5.376E+00 6.928E-04 2.387E-02 9.085E-02 1.154E-01 5.491E+00 1.627E+05  9.3419 1.00000
  1.000E+06 1.002E+06 5.411E+00 7.975E-04 2.780E-02 1.024E-01 1.310E-01 5.542E+00 1.824E+05  9.5717 1.00000
  1.122E+06 1.124E+06 5.446E+00 9.181E-04 3.232E-02 1.156E-01 1.488E-01 5.595E+00 2.043E+05  9.8016 1.00000
  1.259E+06 1.261E+06 5.481E+00 1.057E-03 3.753E-02 1.305E-01 1.691E-01 5.650E+00 2.287E+05 10.0315 1.00000
  1.413E+06 1.414E+06 5.515E+00 1.217E-03 4.351E-02 1.474E-01 1.921E-01 5.708E+00 2.557E+05 10.2614 1.00000
  1.585E+06 1.587E+06 5.550E+00 1.402E-03 5.038E-02 1.666E-01 2.184E-01 5.768E+00 2.857E+05 10.4914 1.00000
  1.778E+06 1.780E+06 5.584E+00 1.614E-03 5.826E-02 1.884E-01 2.483E-01 5.832E+00 3.191E+05 10.7214 1.00000
  1.995E+06 1.997E+06 5.618E+00 1.859E-03 6.730E-02 2.133E-01 2.824E-01 5.900E+00 3.561E+05 10.9515 1.00000
  2.239E+06 2.240E+06 5.651E+00 2.142E-03 7.763E-02 2.415E-01 3.212E-01 5.973E+00 3.971E+05 11.1816 1.00000
  2.512E+06 2.514E+06 5.685E+00 2.467E-03 8.946E-02 2.736E-01 3.655E-01 6.050E+00 4.425E+05 11.4116 1.00000
  2.818E+06 2.820E+06 5.718E+00 2.841E-03 1.030E-01 3.101E-01 4.159E-01 6.134E+00 4.928E+05 11.6417 1.00000
  3.162E+06 3.164E+06 5.750E+00 3.273E-03 1.184E-01 3.516E-01 4.733E-01 6.224E+00 5.485E+05 11.8719 1.00000
  3.548E+06 3.550E+06 5.783E+00 3.769E-03 1.360E-01 3.989E-01 5.386E-01 6.322E+00 6.100E+05 12.1020 1.00000
  3.981E+06 3.983E+06 5.815E+00 4.341E-03 1.560E-01 4.527E-01 6.131E-01 6.428E+00 6.779E+05 12.3322 1.00000
  4.467E+06 4.469E+06 5.847E+00 4.999E-03 1.788E-01 5.140E-01 6.979E-01 6.545E+00 7.528E+05 12.5623 1.00000
  5.012E+06 5.014E+06 5.878E+00 5.756E-03 2.048E-01 5.839E-01 7.944E-01 6.673E+00 8.353E+05 12.7925 1.00000
  5.623E+06 5.625E+06 5.910E+00 6.626E-03 2.343E-01 6.634E-01 9.043E-01 6.814E+00 9.260E+05 13.0227 1.00000
  6.310E+06 6.311E+06 5.940E+00 7.627E-03 2.678E-01 7.540E-01 1.029E+00 6.970E+00 1.026E+06 13.2529 1.00000
  7.079E+06 7.081E+06 5.971E+00 8.777E-03 3.058E-01 8.573E-01 1.172E+00 7.143E+00 1.135E+06 13.4831 1.00000
  7.943E+06 7.945E+06 6.001E+00 1.010E-02 3.490E-01 9.751E-01 1.334E+00 7.335E+00 1.254E+06 13.7133 1.00000
  8.913E+06 8.914E+06 6.031E+00 1.161E-02 3.979E-01 1.109E+00 1.519E+00 7.550E+00 1.384E+06 13.9435 1.00000
  1.000E+07 1.000E+07 6.061E+00 1.336E-02 4.532E-01 1.262E+00 1.729E+00 7.790E+00 1.526E+06 14.1737 1.00000
  1.122E+07 1.122E+07 6.090E+00 1.535E-02 5.159E-01 1.437E+00 1.968E+00 8.058E+00 1.680E+06 14.4039 1.00000
  1.259E+07 1.259E+07 6.119E+00 1.765E-02 5.868E-01 1.636E+00 2.240E+00 8.359E+00 1.847E+06 14.6341 1.00000
  1.413E+07 1.413E+07 6.148E+00 2.027E-02 6.670E-01 1.863E+00 2.550E+00 8.698E+00 2.027E+06 14.8644 1.00000
  1.585E+07 1.585E+07 6.177E+00 2.328E-02 7.576E-01 2.122E+00 2.902E+00 9.079E+00 2.221E+06 15.0946 1.00000
  1.778E+07 1.778E+07 6.205E+00 2.673E-02 8.599E-01 2.417E+00 3.303E+00 9.509E+00 2.429E+06 15.3248 1.00000
  1.995E+07 1.995E+07 6.234E+00 3.067E-02 9.754E-01 2.754E+00 3.760E+00 9.993E+00 2.652E+06 15.5551 1.00000
  2.239E+07 2.239E+07 6.262E+00 3.519E-02 1.106E+00 3.138E+00 4.279E+00 1.054E+01 2.889E+06 15.7853 1.00000
  2.512E+07 2.512E+07 6.290E+00 4.035E-02 1.253E+00 3.577E+00 4.870E+00 1.116E+01 3.141E+06 16.0155 1.00000
  2.818E+07 2.819E+07 6.318E+00 4.626E-02 1.418E+00 4.077E+00 5.542E+00 1.186E+01 3.408E+06 16.2458 1.00000
  3.162E+07 3.162E+07 6.345E+00 5.300E-02 1.605E+00 4.648E+00 6.306E+00 1.265E+01 3.689E+06 16.4760 1.00000
  3.548E+07 3.548E+07 6.373E+00 6.070E-02 1.815E+00 5.300E+00 7.176E+00 1.355E+01 3.984E+06 16.7063 1.00000
  3.981E+07 3.981E+07 6.401E+00 6.951E-02 2.052E+00 6.044E+00 8.166E+00 1.457E+01 4.292E+06 16.9365 1.00000
  4.467E+07 4.467E+07 6.428E+00 7.955E-02 2.319E+00 6.893E+00 9.292E+00 1.572E+01 4.613E+06 17.1668 1.00000
  5.012E+07 5.012E+07 6.456E+00 9.100E-02 2.619E+00 7.863E+00 1.057E+01 1.703E+01 4.947E+06 17.3970 1.00000
  5.623E+07 5.624E+07 6.483E+00 1.040E-01 2.957E+00 8.970E+00 1.203E+01 1.851E+01 5.291E+06 17.6273 1.00000
  6.310E+07 6.310E+07 6.511E+00 1.189E-01 3.337E+00 1.023E+01 1.369E+01 2.020E+01 5.647E+06 17.8575 1.00000
  7.079E+07 7.080E+07 6.538E+00 1.359E-01 3.764E+00 1.168E+01 1.558E+01 2.211E+01 6.011E+06 18.0878 1.00000
  7.943E+07 7.943E+07 6.566E+00 1.552E-01 4.244E+00 1.332E+01 1.772E+01 2.429E+01 6.384E+06 18.3180 1.00000
  8.913E+07 8.913E+07 6.594E+00 1.772E-01 4.784E+00 1.521E+01 2.017E+01 2.676E+01 6.765E+06 18.5483 1.00000
  1.000E+08 1.000E+08 6.621E+00 2.022E-01 5.391E+00 1.735E+01 2.295E+01 2.957E+01 7.152E+06 18.7785 1.00000
  1.122E+08 1.122E+08 6.649E+00 2.306E-01 6.073E+00 1.981E+01 2.611E+01 3.276E+01 7.545E+06 19.0088 1.00000
  1.259E+08 1.259E+08 6.677E+00 2.629E-01 6.840E+00 2.261E+01 2.971E+01 3.639E+01 7.942E+06 19.2390 1.00000
  1.413E+08 1.413E+08 6.705E+00 2.997E-01 7.700E+00 2.581E+01 3.381E+01 4.052E+01 8.342E+06 19.4693 1.00000
  1.585E+08 1.585E+08 6.733E+00 3.415E-01 8.668E+00 2.947E+01 3.848E+01 4.521E+01 8.746E+06 19.6996 1.00000
  1.778E+08 1.778E+08 6.761E+00 3.890E-01 9.754E+00 3.364E+01 4.379E+01 5.055E+01 9.151E+06 19.9298 1.00000
  1.995E+08 1.995E+08 6.789E+00 4.428E-01 1.097E+01 3.842E+01 4.983E+01 5.662E+01 9.557E+06 20.1601 1.00000
  2.239E+08 2.239E+08 6.817E+00 5.039E-01 1.234E+01 4.387E+01 5.671E+01 6.353E+01 9.964E+06 20.3903 1.00000
  2.512E+08 2.512E+08 6.845E+00 5.733E-01 1.388E+01 5.009E+01 6.455E+01 7.139E+01 1.037E+07 20.6206 1.00000
  2.818E+08 2.818E+08 6.874E+00 6.519E-01 1.561E+01 5.721E+01 7.347E+01 8.034E+01 1.078E+07 20.8508 1.00000
  3.162E+08 3.162E+08 6.903E+00 7.409E-01 1.755E+01 6.534E+01 8.363E+01 9.053E+01 1.118E+07 21.0811 1.00000
  3.548E+08 3.548E+08 6.931E+00 8.419E-01 1.972E+01 7.463E+01 9.520E+01 1.021E+02 1.158E+07 21.3114 1.00000
  3.981E+08 3.981E+08 6.960E+00 9.562E-01 2.217E+01 8.525E+01 1.084E+02 1.153E+02 1.198E+07 21.5416 1.00000
  4.467E+08 4.467E+08 6.989E+00 1.086E+00 2.491E+01 9.738E+01 1.234E+02 1.304E+02 1.238E+07 21.7719 1.00000
  5.012E+08 5.012E+08 7.018E+00 1.232E+00 2.799E+01 1.112E+02 1.405E+02 1.475E+02 1.277E+07 22.0021 1.00000
  5.623E+08 5.623E+08 7.048E+00 1.398E+00 3.144E+01 1.271E+02 1.599E+02 1.670E+02 1.316E+07 22.2324 1.00000
  6.310E+08 6.310E+08 7.077E+00 1.585E+00 3.532E+01 1.452E+02 1.821E+02 1.892E+02 1.355E+07 22.4626 1.00000
  7.079E+08 7.079E+08 7.107E+00 1.797E+00 3.967E+01 1.659E+02 2.074E+02 2.145E+02 1.393E+07 22.6929 1.00000
  7.943E+08 7.943E+08 7.136E+00 2.037E+00 4.456E+01 1.896E+02 2.362E+02 2.433E+02 1.431E+07 22.9232 1.00000
  8.913E+08 8.913E+08 7.166E+00 2.308E+00 5.004E+01 2.166E+02 2.690E+02 2.761E+02 1.469E+07 23.1534 1.00000
  1.000E+09 1.000E+09 7.196E+00 2.614E+00 5.619E+01 2.476E+02 3.064E+02 3.136E+02 1.506E+07 23.3837 1.00000
  1.122E+09 1.122E+09 7.227E+00 2.960E+00 6.310E+01 2.829E+02 3.490E+02 3.562E+02 1.542E+07 23.6139 1.00000
  1.259E+09 1.259E+09 7.257E+00 3.350E+00 7.085E+01 3.234E+02 3.975E+02 4.048E+02 1.578E+07 23.8442 1.00000
  1.413E+09 1.413E+09 7.288E+00 3.791E+00 7.954E+01 3.696E+02 4.529E+02 4.602E+02 1.614E+07 24.0744 1.00000
  1.585E+09 1.585E+09 7.318E+00 4.288E+00 8.930E+01 4.224E+02 5.160E+02 5.233E+02 1.649E+07 24.3047 1.00000
  1.778E+09 1.778E+09 7.349E+00 4.849E+00 1.002E+02 4.829E+02 5.880E+02 5.953E+02 1.684E+07 24.5350 1.00000
  1.995E+09 1.995E+09 7.380E+00 5.481E+00 1.125E+02 5.520E+02 6.700E+02 6.774E+02 1.718E+07 24.7652 1.00000
  2.239E+09 2.239E+09 7.411E+00 6.194E+00 1.263E+02 6.311E+02 7.636E+02 7.710E+02 1.752E+07 24.9955 1.00000
  2.512E+09 2.512E+09 7.443E+00 6.997E+00 1.418E+02 7.215E+02 8.702E+02 8.777E+02 1.785E+07 25.2257 1.00000
  2.818E+09 2.818E+09 7.474E+00 7.902E+00 1.591E+02 8.249E+02 9.919E+02 9.994E+02 1.818E+07 25.4560 1.00000
  3.162E+09 3.162E+09 7.506E+00 8.922E+00 1.786E+02 9.432E+02 1.131E+03 1.138E+03 1.850E+07 25.6863 1.00000
  3.548E+09 3.548E+09 7.538E+00 1.007E+01 2.005E+02 1.078E+03 1.289E+03 1.297E+03 1.882E+07 25.9165 1.00000
  3.981E+09 3.981E+09 7.570E+00 1.136E+01 2.250E+02 1.233E+03 1.470E+03 1.477E+03 1.913E+07 26.1468 1.00000
  4.467E+09 4.467E+09 7.602E+00 1.282E+01 2.525E+02 1.410E+03 1.676E+03 1.683E+03 1.944E+07 26.3770 1.00000
  5.012E+09 5.012E+09 7.635E+00 1.446E+01 2.834E+02 1.613E+03 1.911E+03 1.918E+03 1.975E+07 26.6073 1.00000
  5.623E+09 5.623E+09 7.667E+00 1.630E+01 3.180E+02 1.845E+03 2.179E+03 2.187E+03 2.005E+07 26.8375 1.00000
  6.310E+09 6.310E+09 7.700E+00 1.838E+01 3.569E+02 2.110E+03 2.485E+03 2.493E+03 2.034E+07 27.0678 1.00000
  7.079E+09 7.079E+09 7.733E+00 2.071E+01 4.005E+02 2.413E+03 2.834E+03 2.842E+03 2.063E+07 27.2981 1.00000
  7.943E+09 7.943E+09 7.766E+00 2.334E+01 4.494E+02 2.760E+03 3.233E+03 3.241E+03 2.092E+07 27.5283 1.00000
  8.913E+09 8.913E+09 7.800E+00 2.629E+01 5.043E+02 3.158E+03 3.688E+03 3.696E+03 2.120E+07 27.7586 1.00000
  1.000E+10 1.000E+10 7.833E+00 2.961E+01 5.659E+02 3.612E+03 4.208E+03 4.216E+03 2.147E+07 27.9888 1.00000
  1.122E+10 1.122E+10 7.867E+00 3.334E+01 6.351E+02 4.133E+03 4.801E+03 4.809E+03 2.174E+07 28.2191 1.00000
  1.259E+10 1.259E+10 7.901E+00 3.754E+01 7.126E+02 4.728E+03 5.478E+03 5.486E+03 2.201E+07 28.4494 1.00000
  1.413E+10 1.413E+10 7.935E+00 4.225E+01 7.996E+02 5.410E+03 6.252E+03 6.260E+03 2.227E+07 28.6796 1.00000
  1.585E+10 1.585E+10 7.969E+00 4.755E+01 8.973E+02 6.190E+03 7.135E+03 7.143E+03 2.253E+07 28.9099 1.00000
  1.778E+10 1.778E+10 8.004E+00 5.350E+01 1.007E+03 7.083E+03 8.144E+03 8.152E+03 2.279E+07 29.1401 1.00000
  1.995E+10 1.995E+10 8.039E+00 6.019E+01 1.130E+03 8.106E+03 9.296E+03 9.304E+03 2.304E+07 29.3704 1.00000
  2.239E+10 2.239E+10 8.074E+00 6.770E+01 1.268E+03 9.276E+03 1.061E+04 1.062E+04 2.328E+07 29.6007 1.00000
  2.512E+10 2.512E+10 8.109E+00 7.614E+01 1.422E+03 1.062E+04 1.211E+04 1.212E+04 2.352E+07 29.8309 1.00000
  2.818E+10 2.818E+10 8.144E+00 8.561E+01 1.596E+03 1.215E+04 1.383E+04 1.384E+04 2.376E+07 30.0612 1.00000
  3.162E+10 3.162E+10 8.180E+00 9.626E+01 1.791E+03 1.391E+04 1.579E+04 1.580E+04 2.399E+07 30.2914 1.00000
  3.548E+10 3.548E+10 8.215E+00 1.082E+02 2.009E+03 1.592E+04 1.804E+04 1.804E+04 2.422E+07 30.5217 1.00000
  3.981E+10 3.981E+10 8.251E+00 1.216E+02 2.255E+03 1.822E+04 2.060E+04 2.061E+04 2.445E+07 30.7519 1.00000
  4.467E+10 4.467E+10 8.287E+00 1.367E+02 2.530E+03 2.086E+04 2.353E+04 2.354E+04 2.467E+07 30.9822 1.00000
  5.012E+10 5.012E+10 8.324E+00 1.536E+02 2.838E+03 2.388E+04 2.687E+04 2.688E+04 2.489E+07 31.2125 1.00000
  5.623E+10 5.623E+10 8.360E+00 1.726E+02 3.185E+03 2.734E+04 3.070E+04 3.071E+04 2.510E+07 31.4427 1.00000
  6.310E+10 6.310E+10 8.397E+00 1.939E+02 3.573E+03 3.131E+04 3.507E+04 3.508E+04 2.531E+07 31.6730 1.00000
  7.079E+10 7.079E+10 8.434E+00 2.179E+02 4.009E+03 3.584E+04 4.007E+04 4.008E+04 2.551E+07 31.9032 1.00000
  7.943E+10 7.943E+10 8.471E+00 2.447E+02 4.499E+03 4.104E+04 4.579E+04 4.580E+04 2.572E+07 32.1335 1.00000
  8.913E+10 8.913E+10 8.508E+00 2.749E+02 5.047E+03 4.700E+04 5.232E+04 5.233E+04 2.591E+07 32.3638 1.00000
  1.000E+11 1.000E+11 8.546E+00 3.088E+02 5.663E+03 5.382E+04 5.980E+04 5.981E+04 2.611E+07 32.5940 1.00000
  1.122E+11 1.122E+11 8.584E+00 3.468E+02 6.354E+03 6.164E+04 6.834E+04 6.835E+04 2.630E+07 32.8243 1.00000
  1.259E+11 1.259E+11 8.622E+00 3.894E+02 7.129E+03 7.060E+04 7.812E+04 7.813E+04 2.649E+07 33.0545 1.00000
  1.413E+11 1.413E+11 8.660E+00 4.373E+02 7.999E+03 8.086E+04 8.930E+04 8.931E+04 2.667E+07 33.2848 1.00000
  1.585E+11 1.585E+11 8.698E+00 4.910E+02 8.975E+03 9.262E+04 1.021E+05 1.021E+05 2.685E+07 33.5150 1.00000
  1.778E+11 1.778E+11 8.737E+00 5.513E+02 1.007E+04 1.061E+05 1.167E+05 1.167E+05 2.703E+07 33.7453 1.00000
  1.995E+11 1.995E+11 8.776E+00 6.189E+02 1.130E+04 1.215E+05 1.335E+05 1.335E+05 2.721E+07 33.9756 1.00000
  2.239E+11 2.239E+11 8.815E+00 6.948E+02 1.268E+04 1.392E+05 1.526E+05 1.526E+05 2.738E+07 34.2058 1.00000
  2.512E+11 2.512E+11 8.854E+00 7.800E+02 1.422E+04 1.595E+05 1.745E+05 1.745E+05 2.754E+07 34.4361 1.00000
  2.818E+11 2.818E+11 8.894E+00 8.757E+02 1.596E+04 1.828E+05 1.996E+05 1.996E+05 2.771E+07 34.6663 1.00000
  3.162E+11 3.162E+11 8.933E+00 9.829E+02 1.791E+04 2.094E+05 2.283E+05 2.283E+05 2.787E+07 34.8966 1.00000
  3.548E+11 3.548E+11 8.973E+00 1.103E+03 2.009E+04 2.399E+05 2.611E+05 2.611E+05 2.803E+07 35.1269 1.00000
  3.981E+11 3.981E+11 9.013E+00 1.238E+03 2.254E+04 2.749E+05 2.987E+05 2.987E+05 2.818E+07 35.3571 1.00000
  4.467E+11 4.467E+11 9.054E+00 1.390E+03 2.529E+04 3.151E+05 3.418E+05 3.418E+05 2.834E+07 35.5874 1.00000
  5.012E+11 5.012E+11 9.094E+00 1.560E+03 2.837E+04 3.611E+05 3.910E+05 3.910E+05 2.849E+07 35.8176 1.00000
  5.623E+11 5.623E+11 9.135E+00 1.751E+03 3.184E+04 4.138E+05 4.474E+05 4.474E+05 2.863E+07 36.0479 1.00000
  6.310E+11 6.310E+11 9.176E+00 1.965E+03 3.572E+04 4.743E+05 5.120E+05 5.120E+05 2.878E+07 36.2781 1.00000
  7.079E+11 7.079E+11 9.218E+00 2.206E+03 4.008E+04 5.436E+05 5.859E+05 5.859E+05 2.892E+07 36.5084 1.00000
  7.943E+11 7.943E+11 9.259E+00 2.475E+03 4.497E+04 6.232E+05 6.706E+05 6.706E+05 2.905E+07 36.7387 1.00000
  8.913E+11 8.913E+11 9.301E+00 2.778E+03 5.045E+04 7.143E+05 7.676E+05 7.676E+05 2.919E+07 36.9689 1.00000
  1.000E+12 1.000E+12 9.343E+00 3.117E+03 5.660E+04 8.189E+05 8.786E+05 8.786E+05 2.932E+07 37.1992 1.00000
  1.122E+12 1.122E+12 9.385E+00 3.498E+03 6.351E+04 9.388E+05 1.006E+06 1.006E+06 2.945E+07 37.4294 1.00000
  1.259E+12 1.259E+12 9.428E+00 3.926E+03 7.125E+04 1.076E+06 1.151E+06 1.152E+06 2.958E+07 37.6597 1.00000
  1.413E+12 1.413E+12 9.470E+00 4.405E+03 7.995E+04 1.234E+06 1.318E+06 1.318E+06 2.971E+07 37.8900 1.00000
  1.585E+12 1.585E+12 9.513E+00 4.943E+03 8.970E+04 1.415E+06 1.510E+06 1.510E+06 2.983E+07 38.1202 1.00000
  1.778E+12 1.778E+12 9.557E+00 5.547E+03 1.006E+05 1.622E+06 1.729E+06 1.729E+06 2.995E+07 38.3505 1.00000
  1.995E+12 1.995E+12 9.600E+00 6.225E+03 1.129E+05 1.861E+06 1.980E+06 1.980E+06 3.007E+07 38.5807 1.00000
  2.239E+12 2.239E+12 9.644E+00 6.985E+03 1.267E+05 2.134E+06 2.267E+06 2.267E+06 3.018E+07 38.8110 1.00000
  2.512E+12 2.512E+12 9.688E+00 7.838E+03 1.421E+05 2.447E+06 2.597E+06 2.597E+06 3.029E+07 39.0412 1.00000
  2.818E+12 2.818E+12 9.732E+00 8.795E+03 1.595E+05 2.806E+06 2.975E+06 2.975E+06 3.040E+07 39.2715 1.00000
  3.162E+12 3.162E+12 9.776E+00 9.869E+03 1.789E+05 3.219E+06 3.408E+06 3.408E+06 3.051E+07 39.5018 1.00000
  3.548E+12 3.548E+12 9.821E+00 1.107E+04 2.007E+05 3.692E+06 3.904E+06 3.904E+06 3.062E+07 39.7320 1.00000
  3.981E+12 3.981E+12 9.866E+00 1.243E+04 2.252E+05 4.235E+06 4.473E+06 4.473E+06 3.072E+07 39.9623 1.00000
  4.467E+12 4.467E+12 9.911E+00 1.394E+04 2.527E+05 4.858E+06 5.125E+06 5.125E+06 3.082E+07 40.1925 1.00000
  5.012E+12 5.012E+12 9.956E+00 1.564E+04 2.835E+05 5.573E+06 5.872E+06 5.872E+06 3.092E+07 40.4228 1.00000
  5.623E+12 5.623E+12 1.000E+01 1.755E+04 3.181E+05 6.393E+06 6.729E+06 6.729E+06 3.102E+07 40.6531 1.00000
  6.310E+12 6.310E+12 1.005E+01 1.970E+04 3.569E+05 7.335E+06 7.712E+06 7.712E+06 3.112E+07 40.8833 1.00000
  7.079E+12 7.079E+12 1.009E+01 2.210E+04 4.004E+05 8.416E+06 8.838E+06 8.838E+06 3.121E+07 41.1136 1.00000
  7.943E+12 7.943E+12 1.014E+01 2.480E+04 4.493E+05 9.656E+06 1.013E+07 1.013E+07 3.130E+07 41.3438 1.00000
  8.913E+12 8.913E+12 1.019E+01 2.782E+04 5.041E+05 1.108E+07 1.161E+07 1.161E+07 3.139E+07 41.5741 1.00000
  1.000E+13 1.000E+13 1.023E+01 3.122E+04 5.656E+05 1.271E+07 1.331E+07 1.331E+07 3.148E+07 41.8044 1.00000
  1.122E+13 1.122E+13 1.028E+01 3.503E+04 6.345E+05 1.459E+07 1.526E+07 1.526E+07 3.156E+07 42.0346 1.00000
  1.259E+13 1.259E+13 1.033E+01 3.931E+04 7.119E+05 1.675E+07 1.750E+07 1.750E+07 3.165E+07 42.2649 1.00000
  1.413E+13 1.413E+13 1.038E+01 4.410E+04 7.987E+05 1.922E+07 2.006E+07 2.006E+07 3.173E+07 42.4951 1.00000
  1.585E+13 1.585E+13 1.042E+01 4.948E+04 8.962E+05 2.206E+07 2.300E+07 2.300E+07 3.181E+07 42.7254 1.00000
  1.778E+13 1.778E+13 1.047E+01 5.552E+04 1.005E+06 2.532E+07 2.638E+07 2.638E+07 3.189E+07 42.9556 1.00000
  1.995E+13 1.995E+13 1.052E+01 6.230E+04 1.128E+06 2.906E+07 3.025E+07 3.025E+07 3.197E+07 43.1859 1.00000
  2.239E+13 2.239E+13 1.057E+01 6.990E+04 1.266E+06 3.336E+07 3.470E+07 3.470E+07 3.204E+07 43.4162 1.00000
  2.512E+13 2.512E+13 1.062E+01 7.843E+04 1.420E+06 3.830E+07 3.979E+07 3.979E+07 3.212E+07 43.6464 1.00000
  2.818E+13 2.818E+13 1.067E+01 8.800E+04 1.593E+06 4.396E+07 4.565E+07 4.565E+07 3.219E+07 43.8767 1.00000
  3.162E+13 3.162E+13 1.072E+01 9.874E+04 1.788E+06 5.047E+07 5.236E+07 5.236E+07 3.226E+07 44.1069 1.00000
  3.548E+13 3.548E+13 1.077E+01 1.108E+05 2.006E+06 5.795E+07 6.007E+07 6.007E+07 3.233E+07 44.3372 1.00000
  3.981E+13 3.981E+13 1.082E+01 1.243E+05 2.250E+06 6.654E+07 6.891E+07 6.891E+07 3.239E+07 44.5675 1.00000
  4.467E+13 4.467E+13 1.087E+01 1.395E+05 2.524E+06 7.640E+07 7.907E+07 7.907E+07 3.246E+07 44.7977 1.00000
  5.012E+13 5.012E+13 1.092E+01 1.565E+05 2.832E+06 8.773E+07 9.072E+07 9.072E+07 3.253E+07 45.0280 1.00000
  5.623E+13 5.623E+13 1.097E+01 1.756E+05 3.178E+06 1.007E+08 1.041E+08 1.041E+08 3.259E+07 45.2582 1.00000
  6.310E+13 6.310E+13 1.102E+01 1.970E+05 3.565E+06 1.157E+08 1.195E+08 1.195E+08 3.265E+07 45.4885 1.00000
  7.079E+13 7.079E+13 1.107E+01 2.211E+05 4.000E+06 1.329E+08 1.371E+08 1.371E+08 3.271E+07 45.7187 1.00000
  7.943E+13 7.943E+13 1.112E+01 2.480E+05 4.488E+06 1.526E+08 1.573E+08 1.573E+08 3.277E+07 45.9490 1.00000
  8.913E+13 8.913E+13 1.117E+01 2.783E+05 5.035E+06 1.753E+08 1.806E+08 1.806E+08 3.283E+07 46.1793 1.00000
