 Incident particle is a Tau with M = 1776.82000 MeV
 Index = 0: LiquidXenon
      Absorber with <Z/A> = 0.41129
 Sternheimer coef:  a     k=m_s   x_0    x_1    I[eV]   Cbar  delta0
                 0.2659  3.0000  0.5993  3.0000  482.0  6.4396 0.00

 *** Table generated with PUMAS v1.00 ***

      T         p     Ionization  brems     pair     photonuc  Radloss    dE/dx   CSDA Range  delta   beta
    [MeV]    [MeV/c]  -----------------------[MeV cm^2/g]------------------------  [g/cm^2]
  1.000E+05 1.018E+05 1.736E+00 7.412E-04 1.282E-02 7.667E-03 2.123E-02 1.757E+00 2.846E+04  2.1655 0.99985
  1.122E+05 1.140E+05 1.754E+00 8.590E-04 1.536E-02 8.613E-03 2.483E-02 1.779E+00 3.536E+04  2.3339 0.99988
  1.259E+05 1.277E+05 1.772E+00 9.949E-04 1.835E-02 9.625E-03 2.897E-02 1.801E+00 4.301E+04  2.5071 0.99990
  1.413E+05 1.430E+05 1.790E+00 1.152E-03 2.185E-02 1.076E-02 3.376E-02 1.824E+00 5.148E+04  2.6851 0.99992
  1.585E+05 1.603E+05 1.808E+00 1.332E-03 2.596E-02 1.202E-02 3.931E-02 1.847E+00 6.087E+04  2.8676 0.99994
  1.778E+05 1.796E+05 1.825E+00 1.541E-03 3.076E-02 1.342E-02 4.572E-02 1.871E+00 7.128E+04  3.0544 0.99995
  1.995E+05 2.013E+05 1.843E+00 1.780E-03 3.636E-02 1.501E-02 5.315E-02 1.896E+00 8.280E+04  3.2453 0.99996
  2.239E+05 2.256E+05 1.860E+00 2.056E-03 4.289E-02 1.674E-02 6.169E-02 1.921E+00 9.555E+04  3.4401 0.99997
  2.512E+05 2.530E+05 1.877E+00 2.373E-03 5.048E-02 1.867E-02 7.152E-02 1.948E+00 1.097E+05  3.6385 0.99998
  2.818E+05 2.836E+05 1.893E+00 2.738E-03 5.928E-02 2.084E-02 8.285E-02 1.976E+00 1.253E+05  3.8405 0.99998
  3.162E+05 3.180E+05 1.910E+00 3.157E-03 6.948E-02 2.327E-02 9.591E-02 2.006E+00 1.426E+05  4.0458 0.99998
  3.548E+05 3.566E+05 1.926E+00 3.638E-03 8.127E-02 2.600E-02 1.109E-01 2.037E+00 1.617E+05  4.2541 0.99999
  3.981E+05 3.999E+05 1.942E+00 4.191E-03 9.489E-02 2.902E-02 1.281E-01 2.070E+00 1.827E+05  4.4653 0.99999
  4.467E+05 4.485E+05 1.958E+00 4.824E-03 1.106E-01 3.240E-02 1.478E-01 2.106E+00 2.060E+05  4.6792 0.99999
  5.012E+05 5.030E+05 1.974E+00 5.551E-03 1.287E-01 3.620E-02 1.704E-01 2.144E+00 2.317E+05  4.8956 0.99999
  5.623E+05 5.641E+05 1.989E+00 6.383E-03 1.494E-01 4.028E-02 1.961E-01 2.185E+00 2.599E+05  5.1142 1.00000
  6.310E+05 6.327E+05 2.005E+00 7.337E-03 1.733E-01 4.488E-02 2.255E-01 2.230E+00 2.910E+05  5.3348 1.00000
  7.079E+05 7.097E+05 2.020E+00 8.430E-03 2.007E-01 5.005E-02 2.591E-01 2.279E+00 3.251E+05  5.5573 1.00000
  7.943E+05 7.961E+05 2.035E+00 9.680E-03 2.320E-01 5.587E-02 2.975E-01 2.332E+00 3.626E+05  5.7815 1.00000
  8.913E+05 8.930E+05 2.050E+00 1.111E-02 2.678E-01 6.243E-02 3.414E-01 2.391E+00 4.037E+05  6.0071 1.00000
  1.000E+06 1.002E+06 2.065E+00 1.275E-02 3.088E-01 6.984E-02 3.914E-01 2.456E+00 4.485E+05  6.2339 1.00000
  1.122E+06 1.124E+06 2.079E+00 1.462E-02 3.555E-01 7.821E-02 4.484E-01 2.528E+00 4.975E+05  6.4618 1.00000
  1.259E+06 1.261E+06 2.094E+00 1.676E-02 4.088E-01 8.767E-02 5.132E-01 2.607E+00 5.509E+05  6.6905 1.00000
  1.413E+06 1.414E+06 2.108E+00 1.920E-02 4.695E-01 9.838E-02 5.871E-01 2.695E+00 6.088E+05  6.9198 1.00000
  1.585E+06 1.587E+06 2.122E+00 2.199E-02 5.386E-01 1.105E-01 6.710E-01 2.793E+00 6.716E+05  7.1496 1.00000
  1.778E+06 1.780E+06 2.137E+00 2.518E-02 6.171E-01 1.242E-01 7.665E-01 2.903E+00 7.396E+05  7.3795 1.00000
  1.995E+06 1.997E+06 2.151E+00 2.882E-02 7.062E-01 1.398E-01 8.748E-01 3.025E+00 8.128E+05  7.6096 1.00000
  2.239E+06 2.240E+06 2.165E+00 3.296E-02 8.074E-01 1.575E-01 9.978E-01 3.162E+00 8.915E+05  7.8397 1.00000
  2.512E+06 2.514E+06 2.178E+00 3.770E-02 9.221E-01 1.775E-01 1.137E+00 3.316E+00 9.759E+05  8.0697 1.00000
  2.818E+06 2.820E+06 2.192E+00 4.309E-02 1.052E+00 2.003E-01 1.295E+00 3.488E+00 1.066E+06  8.2998 1.00000
  3.162E+06 3.164E+06 2.206E+00 4.924E-02 1.199E+00 2.262E-01 1.475E+00 3.680E+00 1.162E+06  8.5300 1.00000
  3.548E+06 3.550E+06 2.219E+00 5.624E-02 1.366E+00 2.556E-01 1.678E+00 3.897E+00 1.264E+06  8.7601 1.00000
  3.981E+06 3.983E+06 2.233E+00 6.422E-02 1.554E+00 2.890E-01 1.907E+00 4.140E+00 1.372E+06  8.9903 1.00000
  4.467E+06 4.469E+06 2.246E+00 7.330E-02 1.767E+00 3.270E-01 2.167E+00 4.413E+00 1.486E+06  9.2204 1.00000
  5.012E+06 5.014E+06 2.259E+00 8.364E-02 2.007E+00 3.703E-01 2.461E+00 4.720E+00 1.605E+06  9.4506 1.00000
  5.623E+06 5.625E+06 2.272E+00 9.541E-02 2.279E+00 4.195E-01 2.794E+00 5.065E+00 1.730E+06  9.6808 1.00000
  6.310E+06 6.311E+06 2.284E+00 1.088E-01 2.585E+00 4.756E-01 3.169E+00 5.454E+00 1.861E+06  9.9110 1.00000
  7.079E+06 7.081E+06 2.297E+00 1.240E-01 2.930E+00 5.394E-01 3.593E+00 5.891E+00 1.997E+06 10.1412 1.00000
  7.943E+06 7.945E+06 2.310E+00 1.413E-01 3.319E+00 6.121E-01 4.073E+00 6.382E+00 2.138E+06 10.3714 1.00000
  8.913E+06 8.914E+06 2.322E+00 1.609E-01 3.758E+00 6.950E-01 4.614E+00 6.936E+00 2.284E+06 10.6016 1.00000
  1.000E+07 1.000E+07 2.334E+00 1.833E-01 4.252E+00 7.894E-01 5.225E+00 7.559E+00 2.434E+06 10.8318 1.00000
  1.122E+07 1.122E+07 2.347E+00 2.086E-01 4.808E+00 8.970E-01 5.914E+00 8.261E+00 2.588E+06 11.0620 1.00000
  1.259E+07 1.259E+07 2.359E+00 2.374E-01 5.435E+00 1.020E+00 6.692E+00 9.050E+00 2.747E+06 11.2922 1.00000
  1.413E+07 1.413E+07 2.371E+00 2.701E-01 6.140E+00 1.159E+00 7.569E+00 9.940E+00 2.909E+06 11.5225 1.00000
  1.585E+07 1.585E+07 2.383E+00 3.071E-01 6.933E+00 1.319E+00 8.559E+00 1.094E+01 3.075E+06 11.7527 1.00000
  1.778E+07 1.778E+07 2.394E+00 3.492E-01 7.825E+00 1.501E+00 9.675E+00 1.207E+01 3.243E+06 11.9829 1.00000
  1.995E+07 1.995E+07 2.406E+00 3.968E-01 8.828E+00 1.708E+00 1.093E+01 1.334E+01 3.414E+06 12.2132 1.00000
  2.239E+07 2.239E+07 2.418E+00 4.508E-01 9.956E+00 1.945E+00 1.235E+01 1.477E+01 3.588E+06 12.4434 1.00000
  2.512E+07 2.512E+07 2.429E+00 5.120E-01 1.122E+01 2.215E+00 1.395E+01 1.638E+01 3.764E+06 12.6736 1.00000
  2.818E+07 2.819E+07 2.441E+00 5.814E-01 1.265E+01 2.523E+00 1.575E+01 1.819E+01 3.942E+06 12.9039 1.00000
  3.162E+07 3.162E+07 2.452E+00 6.599E-01 1.425E+01 2.874E+00 1.779E+01 2.024E+01 4.121E+06 13.1341 1.00000
  3.548E+07 3.548E+07 2.464E+00 7.487E-01 1.605E+01 3.275E+00 2.007E+01 2.254E+01 4.302E+06 13.3644 1.00000
  3.981E+07 3.981E+07 2.475E+00 8.493E-01 1.807E+01 3.733E+00 2.265E+01 2.513E+01 4.484E+06 13.5946 1.00000
  4.467E+07 4.467E+07 2.487E+00 9.631E-01 2.034E+01 4.255E+00 2.556E+01 2.805E+01 4.667E+06 13.8249 1.00000
  5.012E+07 5.012E+07 2.498E+00 1.092E+00 2.290E+01 4.851E+00 2.884E+01 3.134E+01 4.852E+06 14.0551 1.00000
  5.623E+07 5.624E+07 2.510E+00 1.237E+00 2.576E+01 5.532E+00 3.253E+01 3.504E+01 5.036E+06 14.2854 1.00000
  6.310E+07 6.310E+07 2.521E+00 1.402E+00 2.898E+01 6.309E+00 3.669E+01 3.921E+01 5.222E+06 14.5156 1.00000
  7.079E+07 7.080E+07 2.533E+00 1.587E+00 3.259E+01 7.196E+00 4.137E+01 4.391E+01 5.408E+06 14.7459 1.00000
  7.943E+07 7.943E+07 2.544E+00 1.797E+00 3.665E+01 8.209E+00 4.665E+01 4.920E+01 5.594E+06 14.9761 1.00000
  8.913E+07 8.913E+07 2.555E+00 2.034E+00 4.120E+01 9.366E+00 5.260E+01 5.516E+01 5.780E+06 15.2064 1.00000
  1.000E+08 1.000E+08 2.567E+00 2.302E+00 4.632E+01 1.069E+01 5.930E+01 6.187E+01 5.967E+06 15.4366 1.00000
  1.122E+08 1.122E+08 2.578E+00 2.604E+00 5.206E+01 1.219E+01 6.686E+01 6.943E+01 6.153E+06 15.6669 1.00000
  1.259E+08 1.259E+08 2.590E+00 2.944E+00 5.850E+01 1.392E+01 7.536E+01 7.795E+01 6.340E+06 15.8971 1.00000
  1.413E+08 1.413E+08 2.602E+00 3.329E+00 6.573E+01 1.589E+01 8.495E+01 8.755E+01 6.526E+06 16.1274 1.00000
  1.585E+08 1.585E+08 2.613E+00 3.762E+00 7.385E+01 1.813E+01 9.575E+01 9.836E+01 6.712E+06 16.3577 1.00000
  1.778E+08 1.778E+08 2.625E+00 4.250E+00 8.297E+01 2.070E+01 1.079E+02 1.105E+02 6.898E+06 16.5879 1.00000
  1.995E+08 1.995E+08 2.636E+00 4.801E+00 9.320E+01 2.363E+01 1.216E+02 1.243E+02 7.083E+06 16.8182 1.00000
  2.239E+08 2.239E+08 2.648E+00 5.421E+00 1.047E+02 2.698E+01 1.371E+02 1.397E+02 7.268E+06 17.0484 1.00000
  2.512E+08 2.512E+08 2.660E+00 6.120E+00 1.176E+02 3.081E+01 1.545E+02 1.571E+02 7.453E+06 17.2787 1.00000
  2.818E+08 2.818E+08 2.672E+00 6.908E+00 1.320E+02 3.518E+01 1.741E+02 1.768E+02 7.637E+06 17.5089 1.00000
  3.162E+08 3.162E+08 2.684E+00 7.794E+00 1.482E+02 4.018E+01 1.962E+02 1.989E+02 7.821E+06 17.7392 1.00000
  3.548E+08 3.548E+08 2.696E+00 8.792E+00 1.665E+02 4.589E+01 2.211E+02 2.238E+02 8.004E+06 17.9695 1.00000
  3.981E+08 3.981E+08 2.708E+00 9.915E+00 1.869E+02 5.241E+01 2.492E+02 2.519E+02 8.187E+06 18.1997 1.00000
  4.467E+08 4.467E+08 2.720E+00 1.118E+01 2.098E+02 5.987E+01 2.809E+02 2.836E+02 8.369E+06 18.4300 1.00000
  5.012E+08 5.012E+08 2.732E+00 1.260E+01 2.356E+02 6.839E+01 3.165E+02 3.193E+02 8.550E+06 18.6602 1.00000
  5.623E+08 5.623E+08 2.744E+00 1.420E+01 2.644E+02 7.813E+01 3.568E+02 3.595E+02 8.731E+06 18.8905 1.00000
  6.310E+08 6.310E+08 2.756E+00 1.600E+01 2.968E+02 8.926E+01 4.021E+02 4.049E+02 8.911E+06 19.1207 1.00000
  7.079E+08 7.079E+08 2.768E+00 1.803E+01 3.332E+02 1.020E+02 4.532E+02 4.560E+02 9.091E+06 19.3510 1.00000
  7.943E+08 7.943E+08 2.781E+00 2.030E+01 3.740E+02 1.165E+02 5.108E+02 5.136E+02 9.269E+06 19.5813 1.00000
  8.913E+08 8.913E+08 2.793E+00 2.286E+01 4.198E+02 1.332E+02 5.758E+02 5.786E+02 9.447E+06 19.8115 1.00000
  1.000E+09 1.000E+09 2.806E+00 2.573E+01 4.711E+02 1.522E+02 6.490E+02 6.519E+02 9.625E+06 20.0418 1.00000
  1.122E+09 1.122E+09 2.818E+00 2.897E+01 5.288E+02 1.739E+02 7.317E+02 7.345E+02 9.801E+06 20.2720 1.00000
  1.259E+09 1.259E+09 2.831E+00 3.260E+01 5.935E+02 1.987E+02 8.248E+02 8.276E+02 9.977E+06 20.5023 1.00000
  1.413E+09 1.413E+09 2.843E+00 3.668E+01 6.660E+02 2.272E+02 9.299E+02 9.327E+02 1.015E+07 20.7325 1.00000
  1.585E+09 1.585E+09 2.856E+00 4.126E+01 7.475E+02 2.596E+02 1.048E+03 1.051E+03 1.033E+07 20.9628 1.00000
  1.778E+09 1.778E+09 2.869E+00 4.641E+01 8.388E+02 2.968E+02 1.182E+03 1.185E+03 1.050E+07 21.1931 1.00000
  1.995E+09 1.995E+09 2.882E+00 5.220E+01 9.414E+02 3.393E+02 1.333E+03 1.336E+03 1.067E+07 21.4233 1.00000
  2.239E+09 2.239E+09 2.895E+00 5.870E+01 1.056E+03 3.878E+02 1.503E+03 1.506E+03 1.085E+07 21.6536 1.00000
  2.512E+09 2.512E+09 2.908E+00 6.600E+01 1.185E+03 4.434E+02 1.695E+03 1.698E+03 1.102E+07 21.8838 1.00000
  2.818E+09 2.818E+09 2.921E+00 7.419E+01 1.330E+03 5.070E+02 1.911E+03 1.914E+03 1.119E+07 22.1141 1.00000
  3.162E+09 3.162E+09 2.934E+00 8.340E+01 1.493E+03 5.796E+02 2.156E+03 2.159E+03 1.136E+07 22.3444 1.00000
  3.548E+09 3.548E+09 2.947E+00 9.373E+01 1.675E+03 6.628E+02 2.432E+03 2.435E+03 1.152E+07 22.5746 1.00000
  3.981E+09 3.981E+09 2.961E+00 1.053E+02 1.880E+03 7.579E+02 2.743E+03 2.746E+03 1.169E+07 22.8049 1.00000
  4.467E+09 4.467E+09 2.974E+00 1.184E+02 2.109E+03 8.667E+02 3.094E+03 3.097E+03 1.186E+07 23.0351 1.00000
  5.012E+09 5.012E+09 2.987E+00 1.330E+02 2.367E+03 9.912E+02 3.491E+03 3.494E+03 1.203E+07 23.2654 1.00000
  5.623E+09 5.623E+09 3.001E+00 1.494E+02 2.656E+03 1.134E+03 3.939E+03 3.942E+03 1.219E+07 23.4956 1.00000
  6.310E+09 6.310E+09 3.015E+00 1.678E+02 2.980E+03 1.297E+03 4.444E+03 4.447E+03 1.235E+07 23.7259 1.00000
  7.079E+09 7.079E+09 3.028E+00 1.885E+02 3.344E+03 1.483E+03 5.015E+03 5.018E+03 1.252E+07 23.9562 1.00000
  7.943E+09 7.943E+09 3.042E+00 2.117E+02 3.752E+03 1.696E+03 5.660E+03 5.663E+03 1.268E+07 24.1864 1.00000
  8.913E+09 8.913E+09 3.056E+00 2.378E+02 4.210E+03 1.941E+03 6.388E+03 6.391E+03 1.284E+07 24.4167 1.00000
  1.000E+10 1.000E+10 3.070E+00 2.670E+02 4.724E+03 2.220E+03 7.211E+03 7.214E+03 1.300E+07 24.6469 1.00000
  1.122E+10 1.122E+10 3.084E+00 2.999E+02 5.300E+03 2.540E+03 8.140E+03 8.143E+03 1.316E+07 24.8772 1.00000
  1.259E+10 1.259E+10 3.098E+00 3.367E+02 5.947E+03 2.906E+03 9.189E+03 9.192E+03 1.332E+07 25.1075 1.00000
  1.413E+10 1.413E+10 3.112E+00 3.781E+02 6.673E+03 3.325E+03 1.038E+04 1.038E+04 1.348E+07 25.3377 1.00000
  1.585E+10 1.585E+10 3.126E+00 4.245E+02 7.487E+03 3.804E+03 1.172E+04 1.172E+04 1.363E+07 25.5680 1.00000
  1.778E+10 1.778E+10 3.141E+00 4.766E+02 8.401E+03 4.353E+03 1.323E+04 1.323E+04 1.379E+07 25.7982 1.00000
  1.995E+10 1.995E+10 3.155E+00 5.350E+02 9.426E+03 4.981E+03 1.494E+04 1.495E+04 1.394E+07 26.0285 1.00000
  2.239E+10 2.239E+10 3.169E+00 6.006E+02 1.058E+04 5.701E+03 1.688E+04 1.688E+04 1.410E+07 26.2588 1.00000
  2.512E+10 2.512E+10 3.184E+00 6.742E+02 1.187E+04 6.524E+03 1.906E+04 1.907E+04 1.425E+07 26.4890 1.00000
  2.818E+10 2.818E+10 3.199E+00 7.568E+02 1.331E+04 7.467E+03 2.154E+04 2.154E+04 1.440E+07 26.7193 1.00000
  3.162E+10 3.162E+10 3.213E+00 8.495E+02 1.494E+04 8.547E+03 2.433E+04 2.434E+04 1.455E+07 26.9495 1.00000
  3.548E+10 3.548E+10 3.228E+00 9.534E+02 1.676E+04 9.783E+03 2.750E+04 2.750E+04 1.470E+07 27.1798 1.00000
  3.981E+10 3.981E+10 3.243E+00 1.070E+03 1.881E+04 1.120E+04 3.108E+04 3.108E+04 1.485E+07 27.4100 1.00000
  4.467E+10 4.467E+10 3.258E+00 1.201E+03 2.110E+04 1.282E+04 3.512E+04 3.512E+04 1.500E+07 27.6403 1.00000
  5.012E+10 5.012E+10 3.273E+00 1.348E+03 2.368E+04 1.468E+04 3.970E+04 3.970E+04 1.514E+07 27.8706 1.00000
  5.623E+10 5.623E+10 3.288E+00 1.513E+03 2.656E+04 1.680E+04 4.488E+04 4.488E+04 1.529E+07 28.1008 1.00000
  6.310E+10 6.310E+10 3.304E+00 1.698E+03 2.980E+04 1.924E+04 5.074E+04 5.074E+04 1.543E+07 28.3311 1.00000
  7.079E+10 7.079E+10 3.319E+00 1.905E+03 3.344E+04 2.203E+04 5.737E+04 5.738E+04 1.558E+07 28.5613 1.00000
  7.943E+10 7.943E+10 3.334E+00 2.138E+03 3.752E+04 2.522E+04 6.488E+04 6.489E+04 1.572E+07 28.7916 1.00000
  8.913E+10 8.913E+10 3.350E+00 2.400E+03 4.210E+04 2.888E+04 7.338E+04 7.338E+04 1.586E+07 29.0219 1.00000
  1.000E+11 1.000E+11 3.365E+00 2.693E+03 4.723E+04 3.308E+04 8.300E+04 8.301E+04 1.600E+07 29.2521 1.00000
  1.122E+11 1.122E+11 3.381E+00 3.022E+03 5.300E+04 3.788E+04 9.390E+04 9.390E+04 1.614E+07 29.4824 1.00000
  1.259E+11 1.259E+11 3.397E+00 3.391E+03 5.946E+04 4.339E+04 1.062E+05 1.062E+05 1.627E+07 29.7126 1.00000
  1.413E+11 1.413E+11 3.413E+00 3.806E+03 6.671E+04 4.969E+04 1.202E+05 1.202E+05 1.641E+07 29.9429 1.00000
  1.585E+11 1.585E+11 3.429E+00 4.270E+03 7.485E+04 5.692E+04 1.360E+05 1.360E+05 1.655E+07 30.1731 1.00000
  1.778E+11 1.778E+11 3.445E+00 4.792E+03 8.398E+04 6.520E+04 1.540E+05 1.540E+05 1.668E+07 30.4034 1.00000
  1.995E+11 1.995E+11 3.461E+00 5.377E+03 9.423E+04 7.469E+04 1.743E+05 1.743E+05 1.681E+07 30.6337 1.00000
  2.239E+11 2.239E+11 3.477E+00 6.034E+03 1.057E+05 8.557E+04 1.973E+05 1.973E+05 1.694E+07 30.8639 1.00000
  2.512E+11 2.512E+11 3.493E+00 6.771E+03 1.186E+05 9.803E+04 2.234E+05 2.234E+05 1.707E+07 31.0942 1.00000
  2.818E+11 2.818E+11 3.510E+00 7.597E+03 1.331E+05 1.123E+05 2.530E+05 2.530E+05 1.720E+07 31.3244 1.00000
  3.162E+11 3.162E+11 3.526E+00 8.525E+03 1.493E+05 1.287E+05 2.865E+05 2.865E+05 1.733E+07 31.5547 1.00000
  3.548E+11 3.548E+11 3.543E+00 9.565E+03 1.675E+05 1.475E+05 3.246E+05 3.246E+05 1.746E+07 31.7850 1.00000
  3.981E+11 3.981E+11 3.559E+00 1.073E+04 1.880E+05 1.690E+05 3.677E+05 3.677E+05 1.758E+07 32.0152 1.00000
  4.467E+11 4.467E+11 3.576E+00 1.204E+04 2.109E+05 1.936E+05 4.166E+05 4.166E+05 1.771E+07 32.2455 1.00000
  5.012E+11 5.012E+11 3.593E+00 1.351E+04 2.366E+05 2.219E+05 4.720E+05 4.721E+05 1.783E+07 32.4757 1.00000
  5.623E+11 5.623E+11 3.610E+00 1.516E+04 2.655E+05 2.543E+05 5.350E+05 5.350E+05 1.795E+07 32.7060 1.00000
  6.310E+11 6.310E+11 3.627E+00 1.701E+04 2.979E+05 2.915E+05 6.064E+05 6.064E+05 1.807E+07 32.9362 1.00000
  7.079E+11 7.079E+11 3.644E+00 1.909E+04 3.342E+05 3.341E+05 6.874E+05 6.874E+05 1.819E+07 33.1665 1.00000
  7.943E+11 7.943E+11 3.661E+00 2.142E+04 3.750E+05 3.830E+05 7.794E+05 7.794E+05 1.831E+07 33.3968 1.00000
  8.913E+11 8.913E+11 3.679E+00 2.403E+04 4.207E+05 4.390E+05 8.837E+05 8.838E+05 1.843E+07 33.6270 1.00000
  1.000E+12 1.000E+12 3.696E+00 2.697E+04 4.720E+05 5.032E+05 1.002E+06 1.002E+06 1.854E+07 33.8573 1.00000
  1.122E+12 1.122E+12 3.714E+00 3.026E+04 5.296E+05 5.769E+05 1.137E+06 1.137E+06 1.866E+07 34.0875 1.00000
  1.259E+12 1.259E+12 3.731E+00 3.395E+04 5.942E+05 6.614E+05 1.290E+06 1.290E+06 1.877E+07 34.3178 1.00000
  1.413E+12 1.413E+12 3.749E+00 3.809E+04 6.667E+05 7.584E+05 1.463E+06 1.463E+06 1.888E+07 34.5481 1.00000
  1.585E+12 1.585E+12 3.767E+00 4.274E+04 7.480E+05 8.696E+05 1.660E+06 1.660E+06 1.899E+07 34.7783 1.00000
  1.778E+12 1.778E+12 3.785E+00 4.796E+04 8.393E+05 9.971E+05 1.884E+06 1.884E+06 1.910E+07 35.0086 1.00000
  1.995E+12 1.995E+12 3.803E+00 5.381E+04 9.416E+05 1.143E+06 2.139E+06 2.139E+06 1.921E+07 35.2388 1.00000
  2.239E+12 2.239E+12 3.821E+00 6.038E+04 1.056E+06 1.311E+06 2.428E+06 2.428E+06 1.932E+07 35.4691 1.00000
  2.512E+12 2.512E+12 3.839E+00 6.775E+04 1.185E+06 1.504E+06 2.757E+06 2.757E+06 1.943E+07 35.6993 1.00000
  2.818E+12 2.818E+12 3.857E+00 7.601E+04 1.330E+06 1.725E+06 3.131E+06 3.131E+06 1.953E+07 35.9296 1.00000
  3.162E+12 3.162E+12 3.876E+00 8.529E+04 1.492E+06 1.978E+06 3.555E+06 3.555E+06 1.963E+07 36.1599 1.00000
  3.548E+12 3.548E+12 3.894E+00 9.570E+04 1.674E+06 2.269E+06 4.039E+06 4.039E+06 1.974E+07 36.3901 1.00000
  3.981E+12 3.981E+12 3.913E+00 1.074E+05 1.878E+06 2.602E+06 4.588E+06 4.588E+06 1.984E+07 36.6204 1.00000
  4.467E+12 4.467E+12 3.932E+00 1.205E+05 2.107E+06 2.985E+06 5.213E+06 5.213E+06 1.994E+07 36.8506 1.00000
  5.012E+12 5.012E+12 3.950E+00 1.352E+05 2.364E+06 3.425E+06 5.924E+06 5.924E+06 2.003E+07 37.0809 1.00000
  5.623E+12 5.623E+12 3.969E+00 1.517E+05 2.653E+06 3.929E+06 6.734E+06 6.734E+06 2.013E+07 37.3112 1.00000
  6.310E+12 6.310E+12 3.988E+00 1.702E+05 2.976E+06 4.508E+06 7.654E+06 7.654E+06 2.023E+07 37.5414 1.00000
  7.079E+12 7.079E+12 4.008E+00 1.909E+05 3.339E+06 5.172E+06 8.702E+06 8.702E+06 2.032E+07 37.7717 1.00000
  7.943E+12 7.943E+12 4.027E+00 2.142E+05 3.747E+06 5.934E+06 9.895E+06 9.895E+06 2.041E+07 38.0019 1.00000
  8.913E+12 8.913E+12 4.046E+00 2.404E+05 4.204E+06 6.809E+06 1.125E+07 1.125E+07 2.051E+07 38.2322 1.00000
  1.000E+13 1.000E+13 4.066E+00 2.697E+05 4.716E+06 7.814E+06 1.280E+07 1.280E+07 2.060E+07 38.4625 1.00000
  1.122E+13 1.122E+13 4.085E+00 3.026E+05 5.292E+06 8.967E+06 1.456E+07 1.456E+07 2.069E+07 38.6927 1.00000
  1.259E+13 1.259E+13 4.105E+00 3.396E+05 5.937E+06 1.029E+07 1.657E+07 1.657E+07 2.077E+07 38.9230 1.00000
  1.413E+13 1.413E+13 4.125E+00 3.810E+05 6.661E+06 1.181E+07 1.885E+07 1.885E+07 2.086E+07 39.1532 1.00000
  1.585E+13 1.585E+13 4.144E+00 4.275E+05 7.474E+06 1.356E+07 2.146E+07 2.146E+07 2.095E+07 39.3835 1.00000
  1.778E+13 1.778E+13 4.164E+00 4.796E+05 8.385E+06 1.556E+07 2.442E+07 2.442E+07 2.103E+07 39.6137 1.00000
  1.995E+13 1.995E+13 4.185E+00 5.382E+05 9.408E+06 1.786E+07 2.781E+07 2.781E+07 2.112E+07 39.8440 1.00000
  2.239E+13 2.239E+13 4.205E+00 6.038E+05 1.055E+07 2.050E+07 3.166E+07 3.166E+07 2.120E+07 40.0743 1.00000
  2.512E+13 2.512E+13 4.225E+00 6.775E+05 1.184E+07 2.353E+07 3.605E+07 3.605E+07 2.128E+07 40.3045 1.00000
  2.818E+13 2.818E+13 4.245E+00 7.602E+05 1.329E+07 2.702E+07 4.106E+07 4.106E+07 2.136E+07 40.5348 1.00000
  3.162E+13 3.162E+13 4.266E+00 8.529E+05 1.491E+07 3.102E+07 4.678E+07 4.678E+07 2.144E+07 40.7650 1.00000
  3.548E+13 3.548E+13 4.287E+00 9.570E+05 1.672E+07 3.561E+07 5.330E+07 5.330E+07 2.152E+07 40.9953 1.00000
  3.981E+13 3.981E+13 4.307E+00 1.074E+06 1.876E+07 4.089E+07 6.073E+07 6.073E+07 2.159E+07 41.2256 1.00000
  4.467E+13 4.467E+13 4.328E+00 1.205E+06 2.105E+07 4.695E+07 6.921E+07 6.921E+07 2.167E+07 41.4558 1.00000
  5.012E+13 5.012E+13 4.349E+00 1.352E+06 2.362E+07 5.391E+07 7.889E+07 7.889E+07 2.174E+07 41.6861 1.00000
  5.623E+13 5.623E+13 4.370E+00 1.517E+06 2.650E+07 6.191E+07 8.993E+07 8.993E+07 2.181E+07 41.9163 1.00000
  6.310E+13 6.310E+13 4.392E+00 1.702E+06 2.973E+07 7.110E+07 1.025E+08 1.025E+08 2.188E+07 42.1466 1.00000
  7.079E+13 7.079E+13 4.413E+00 1.910E+06 3.336E+07 8.165E+07 1.169E+08 1.169E+08 2.196E+07 42.3768 1.00000
  7.943E+13 7.943E+13 4.434E+00 2.143E+06 3.743E+07 9.378E+07 1.333E+08 1.333E+08 2.202E+07 42.6071 1.00000
  8.913E+13 8.913E+13 4.456E+00 2.404E+06 4.199E+07 1.077E+08 1.521E+08 1.521E+08 2.209E+07 42.8374 1.00000
