 Incident particle is a Tau with M = 1776.82000 MeV
 Index = 0: LiquidDeuterium
      Absorber with <Z/A> = 0.49650
 Sternheimer coef:  a     k=m_s   x_0    x_1    I[eV]   Cbar  delta0
                 0.1348  5.6249  0.4467  1.8923   21.8  3.1288 0.00

 *** Table generated with PUMAS v1.00 ***

      T         p     Ionization  brems     pair     photonuc  Radloss    dE/dx   CSDA Range  delta   beta
    [MeV]    [MeV/c]  -----------------------[MeV cm^2/g]------------------------  [g/cm^2]
  1.000E+05 1.018E+05 2.354E+00 2.287E-05 4.020E-04 8.952E-03 9.377E-03 2.363E+00 2.116E+04  4.9668 0.99985
  1.122E+05 1.140E+05 2.372E+00 2.639E-05 5.017E-04 1.015E-02 1.068E-02 2.382E+00 2.630E+04  5.1933 0.99988
  1.259E+05 1.277E+05 2.389E+00 3.044E-05 6.206E-04 1.146E-02 1.211E-02 2.402E+00 3.202E+04  5.4202 0.99990
  1.413E+05 1.430E+05 2.407E+00 3.510E-05 7.620E-04 1.293E-02 1.372E-02 2.421E+00 3.839E+04  5.6475 0.99992
  1.585E+05 1.603E+05 2.425E+00 4.047E-05 9.296E-04 1.458E-02 1.555E-02 2.441E+00 4.548E+04  5.8751 0.99994
  1.778E+05 1.796E+05 2.443E+00 4.665E-05 1.128E-03 1.643E-02 1.761E-02 2.461E+00 5.338E+04  6.1030 0.99995
  1.995E+05 2.013E+05 2.461E+00 5.376E-05 1.362E-03 1.856E-02 1.997E-02 2.481E+00 6.216E+04  6.3311 0.99996
  2.239E+05 2.256E+05 2.479E+00 6.195E-05 1.638E-03 2.089E-02 2.259E-02 2.502E+00 7.193E+04  6.5594 0.99997
  2.512E+05 2.530E+05 2.497E+00 7.137E-05 1.962E-03 2.351E-02 2.554E-02 2.523E+00 8.280E+04  6.7880 0.99998
  2.818E+05 2.836E+05 2.515E+00 8.222E-05 2.342E-03 2.647E-02 2.890E-02 2.544E+00 9.490E+04  7.0167 0.99998
  3.162E+05 3.180E+05 2.533E+00 9.470E-05 2.787E-03 2.984E-02 3.272E-02 2.566E+00 1.084E+05  7.2456 0.99998
  3.548E+05 3.566E+05 2.552E+00 1.091E-04 3.307E-03 3.362E-02 3.704E-02 2.589E+00 1.233E+05  7.4747 0.99999
  3.981E+05 3.999E+05 2.570E+00 1.256E-04 3.913E-03 3.786E-02 4.190E-02 2.611E+00 1.400E+05  7.7039 0.99999
  4.467E+05 4.485E+05 2.588E+00 1.447E-04 4.618E-03 4.263E-02 4.739E-02 2.635E+00 1.585E+05  7.9332 0.99999
  5.012E+05 5.030E+05 2.606E+00 1.666E-04 5.438E-03 4.801E-02 5.362E-02 2.659E+00 1.791E+05  8.1626 0.99999
  5.623E+05 5.641E+05 2.624E+00 1.918E-04 6.390E-03 5.387E-02 6.045E-02 2.684E+00 2.020E+05  8.3921 1.00000
  6.310E+05 6.327E+05 2.641E+00 2.209E-04 7.494E-03 6.048E-02 6.820E-02 2.710E+00 2.274E+05  8.6216 1.00000
  7.079E+05 7.097E+05 2.659E+00 2.544E-04 8.771E-03 6.797E-02 7.699E-02 2.736E+00 2.557E+05  8.8513 1.00000
  7.943E+05 7.961E+05 2.677E+00 2.931E-04 1.025E-02 7.643E-02 8.698E-02 2.764E+00 2.871E+05  9.0810 1.00000
  8.913E+05 8.930E+05 2.695E+00 3.376E-04 1.195E-02 8.602E-02 9.831E-02 2.793E+00 3.220E+05  9.3108 1.00000
  1.000E+06 1.002E+06 2.712E+00 3.888E-04 1.392E-02 9.688E-02 1.112E-01 2.824E+00 3.607E+05  9.5406 1.00000
  1.122E+06 1.124E+06 2.730E+00 4.479E-04 1.619E-02 1.092E-01 1.258E-01 2.856E+00 4.037E+05  9.7705 1.00000
  1.259E+06 1.261E+06 2.747E+00 5.161E-04 1.879E-02 1.232E-01 1.425E-01 2.890E+00 4.514E+05 10.0004 1.00000
  1.413E+06 1.414E+06 2.765E+00 5.946E-04 2.179E-02 1.390E-01 1.614E-01 2.926E+00 5.042E+05 10.2303 1.00000
  1.585E+06 1.587E+06 2.782E+00 6.852E-04 2.523E-02 1.570E-01 1.829E-01 2.965E+00 5.627E+05 10.4603 1.00000
  1.778E+06 1.780E+06 2.799E+00 7.896E-04 2.918E-02 1.774E-01 2.074E-01 3.006E+00 6.275E+05 10.6903 1.00000
  1.995E+06 1.997E+06 2.816E+00 9.100E-04 3.370E-02 2.007E-01 2.353E-01 3.051E+00 6.991E+05 10.9204 1.00000
  2.239E+06 2.240E+06 2.833E+00 1.049E-03 3.888E-02 2.271E-01 2.670E-01 3.100E+00 7.783E+05 11.1505 1.00000
  2.512E+06 2.514E+06 2.849E+00 1.209E-03 4.480E-02 2.571E-01 3.031E-01 3.152E+00 8.657E+05 11.3805 1.00000
  2.818E+06 2.820E+06 2.866E+00 1.393E-03 5.157E-02 2.912E-01 3.442E-01 3.210E+00 9.620E+05 11.6106 1.00000
  3.162E+06 3.164E+06 2.882E+00 1.605E-03 5.929E-02 3.300E-01 3.909E-01 3.273E+00 1.068E+06 11.8408 1.00000
  3.548E+06 3.550E+06 2.899E+00 1.850E-03 6.810E-02 3.742E-01 4.442E-01 3.343E+00 1.185E+06 12.0709 1.00000
  3.981E+06 3.983E+06 2.915E+00 2.131E-03 7.814E-02 4.245E-01 5.048E-01 3.419E+00 1.313E+06 12.3011 1.00000
  4.467E+06 4.469E+06 2.931E+00 2.456E-03 8.956E-02 4.818E-01 5.738E-01 3.504E+00 1.453E+06 12.5312 1.00000
  5.012E+06 5.014E+06 2.946E+00 2.829E-03 1.026E-01 5.470E-01 6.524E-01 3.599E+00 1.607E+06 12.7614 1.00000
  5.623E+06 5.625E+06 2.962E+00 3.258E-03 1.173E-01 6.213E-01 7.419E-01 3.704E+00 1.774E+06 12.9916 1.00000
  6.310E+06 6.311E+06 2.977E+00 3.752E-03 1.341E-01 7.060E-01 8.439E-01 3.821E+00 1.957E+06 13.2218 1.00000
  7.079E+06 7.081E+06 2.993E+00 4.320E-03 1.532E-01 8.025E-01 9.599E-01 3.953E+00 2.155E+06 13.4520 1.00000
  7.943E+06 7.945E+06 3.008E+00 4.972E-03 1.748E-01 9.124E-01 1.092E+00 4.100E+00 2.369E+06 13.6822 1.00000
  8.913E+06 8.914E+06 3.023E+00 5.722E-03 1.993E-01 1.038E+00 1.243E+00 4.266E+00 2.601E+06 13.9124 1.00000
  1.000E+07 1.000E+07 3.038E+00 6.582E-03 2.270E-01 1.181E+00 1.414E+00 4.452E+00 2.851E+06 14.1426 1.00000
  1.122E+07 1.122E+07 3.052E+00 7.570E-03 2.584E-01 1.343E+00 1.609E+00 4.662E+00 3.119E+06 14.3728 1.00000
  1.259E+07 1.259E+07 3.067E+00 8.702E-03 2.939E-01 1.529E+00 1.832E+00 4.899E+00 3.405E+06 14.6030 1.00000
  1.413E+07 1.413E+07 3.081E+00 1.000E-02 3.340E-01 1.741E+00 2.085E+00 5.167E+00 3.711E+06 14.8333 1.00000
  1.585E+07 1.585E+07 3.096E+00 1.149E-02 3.794E-01 1.983E+00 2.374E+00 5.469E+00 4.035E+06 15.0635 1.00000
  1.778E+07 1.778E+07 3.110E+00 1.320E-02 4.306E-01 2.258E+00 2.702E+00 5.812E+00 4.378E+06 15.2937 1.00000
  1.995E+07 1.995E+07 3.124E+00 1.515E-02 4.885E-01 2.573E+00 3.076E+00 6.201E+00 4.740E+06 15.5240 1.00000
  2.239E+07 2.239E+07 3.138E+00 1.738E-02 5.537E-01 2.931E+00 3.503E+00 6.641E+00 5.119E+06 15.7542 1.00000
  2.512E+07 2.512E+07 3.152E+00 1.994E-02 6.273E-01 3.341E+00 3.988E+00 7.140E+00 5.516E+06 15.9844 1.00000
  2.818E+07 2.819E+07 3.166E+00 2.287E-02 7.103E-01 3.808E+00 4.541E+00 7.707E+00 5.930E+06 16.2147 1.00000
  3.162E+07 3.162E+07 3.180E+00 2.621E-02 8.038E-01 4.341E+00 5.171E+00 8.351E+00 6.359E+06 16.4449 1.00000
  3.548E+07 3.548E+07 3.194E+00 3.002E-02 9.092E-01 4.949E+00 5.889E+00 9.083E+00 6.802E+06 16.6752 1.00000
  3.981E+07 3.981E+07 3.208E+00 3.439E-02 1.028E+00 5.644E+00 6.706E+00 9.914E+00 7.259E+06 16.9054 1.00000
  4.467E+07 4.467E+07 3.222E+00 3.936E-02 1.161E+00 6.436E+00 7.637E+00 1.086E+01 7.728E+06 17.1357 1.00000
  5.012E+07 5.012E+07 3.236E+00 4.504E-02 1.312E+00 7.341E+00 8.698E+00 1.193E+01 8.207E+06 17.3659 1.00000
  5.623E+07 5.624E+07 3.249E+00 5.150E-02 1.481E+00 8.374E+00 9.907E+00 1.316E+01 8.696E+06 17.5962 1.00000
  6.310E+07 6.310E+07 3.263E+00 5.889E-02 1.671E+00 9.554E+00 1.128E+01 1.455E+01 9.192E+06 17.8264 1.00000
  7.079E+07 7.080E+07 3.277E+00 6.731E-02 1.885E+00 1.090E+01 1.285E+01 1.613E+01 9.695E+06 18.0567 1.00000
  7.943E+07 7.943E+07 3.291E+00 7.689E-02 2.126E+00 1.244E+01 1.464E+01 1.793E+01 1.020E+07 18.2869 1.00000
  8.913E+07 8.913E+07 3.305E+00 8.779E-02 2.396E+00 1.419E+01 1.668E+01 1.998E+01 1.072E+07 18.5172 1.00000
  1.000E+08 1.000E+08 3.318E+00 1.002E-01 2.700E+00 1.620E+01 1.900E+01 2.232E+01 1.123E+07 18.7474 1.00000
  1.122E+08 1.122E+08 3.332E+00 1.143E-01 3.042E+00 1.849E+01 2.164E+01 2.498E+01 1.175E+07 18.9777 1.00000
  1.259E+08 1.259E+08 3.346E+00 1.303E-01 3.425E+00 2.110E+01 2.466E+01 2.801E+01 1.227E+07 19.2079 1.00000
  1.413E+08 1.413E+08 3.360E+00 1.486E-01 3.857E+00 2.409E+01 2.810E+01 3.146E+01 1.279E+07 19.4382 1.00000
  1.585E+08 1.585E+08 3.374E+00 1.693E-01 4.341E+00 2.750E+01 3.201E+01 3.539E+01 1.330E+07 19.6685 1.00000
  1.778E+08 1.778E+08 3.388E+00 1.929E-01 4.885E+00 3.140E+01 3.648E+01 3.987E+01 1.382E+07 19.8987 1.00000
  1.995E+08 1.995E+08 3.402E+00 2.196E-01 5.496E+00 3.585E+01 4.157E+01 4.497E+01 1.433E+07 20.1290 1.00000
  2.239E+08 2.239E+08 3.416E+00 2.500E-01 6.182E+00 4.094E+01 4.737E+01 5.079E+01 1.484E+07 20.3592 1.00000
  2.512E+08 2.512E+08 3.431E+00 2.844E-01 6.952E+00 4.675E+01 5.399E+01 5.742E+01 1.535E+07 20.5895 1.00000
  2.818E+08 2.818E+08 3.445E+00 3.234E-01 7.817E+00 5.339E+01 6.153E+01 6.498E+01 1.585E+07 20.8197 1.00000
  3.162E+08 3.162E+08 3.459E+00 3.677E-01 8.788E+00 6.098E+01 7.013E+01 7.359E+01 1.635E+07 21.0500 1.00000
  3.548E+08 3.548E+08 3.474E+00 4.178E-01 9.878E+00 6.965E+01 7.994E+01 8.342E+01 1.685E+07 21.2803 1.00000
  3.981E+08 3.981E+08 3.488E+00 4.746E-01 1.110E+01 7.956E+01 9.113E+01 9.462E+01 1.733E+07 21.5105 1.00000
  4.467E+08 4.467E+08 3.503E+00 5.389E-01 1.248E+01 9.088E+01 1.039E+02 1.074E+02 1.782E+07 21.7408 1.00000
  5.012E+08 5.012E+08 3.517E+00 6.117E-01 1.402E+01 1.038E+02 1.184E+02 1.220E+02 1.829E+07 21.9710 1.00000
  5.623E+08 5.623E+08 3.532E+00 6.940E-01 1.575E+01 1.186E+02 1.350E+02 1.386E+02 1.877E+07 22.2013 1.00000
  6.310E+08 6.310E+08 3.547E+00 7.872E-01 1.769E+01 1.355E+02 1.540E+02 1.575E+02 1.923E+07 22.4315 1.00000
  7.079E+08 7.079E+08 3.562E+00 8.926E-01 1.987E+01 1.548E+02 1.756E+02 1.792E+02 1.969E+07 22.6618 1.00000
  7.943E+08 7.943E+08 3.576E+00 1.012E+00 2.232E+01 1.769E+02 2.002E+02 2.038E+02 2.014E+07 22.8921 1.00000
  8.913E+08 8.913E+08 3.591E+00 1.146E+00 2.506E+01 2.022E+02 2.284E+02 2.320E+02 2.059E+07 23.1223 1.00000
  1.000E+09 1.000E+09 3.606E+00 1.299E+00 2.814E+01 2.310E+02 2.605E+02 2.641E+02 2.103E+07 23.3526 1.00000
  1.122E+09 1.122E+09 3.622E+00 1.470E+00 3.160E+01 2.640E+02 2.971E+02 3.007E+02 2.146E+07 23.5828 1.00000
  1.259E+09 1.259E+09 3.637E+00 1.664E+00 3.548E+01 3.018E+02 3.389E+02 3.425E+02 2.189E+07 23.8131 1.00000
  1.413E+09 1.413E+09 3.652E+00 1.883E+00 3.984E+01 3.449E+02 3.866E+02 3.903E+02 2.231E+07 24.0433 1.00000
  1.585E+09 1.585E+09 3.667E+00 2.130E+00 4.472E+01 3.942E+02 4.411E+02 4.447E+02 2.273E+07 24.2736 1.00000
  1.778E+09 1.778E+09 3.683E+00 2.409E+00 5.020E+01 4.506E+02 5.032E+02 5.069E+02 2.313E+07 24.5039 1.00000
  1.995E+09 1.995E+09 3.698E+00 2.724E+00 5.636E+01 5.151E+02 5.742E+02 5.779E+02 2.354E+07 24.7341 1.00000
  2.239E+09 2.239E+09 3.714E+00 3.078E+00 6.326E+01 5.889E+02 6.552E+02 6.590E+02 2.393E+07 24.9644 1.00000
  2.512E+09 2.512E+09 3.730E+00 3.477E+00 7.101E+01 6.733E+02 7.478E+02 7.515E+02 2.432E+07 25.1946 1.00000
  2.818E+09 2.818E+09 3.746E+00 3.928E+00 7.970E+01 7.698E+02 8.534E+02 8.571E+02 2.470E+07 25.4249 1.00000
  3.162E+09 3.162E+09 3.762E+00 4.435E+00 8.946E+01 8.801E+02 9.740E+02 9.778E+02 2.508E+07 25.6552 1.00000
  3.548E+09 3.548E+09 3.778E+00 5.006E+00 1.004E+02 1.006E+03 1.112E+03 1.116E+03 2.545E+07 25.8854 1.00000
  3.981E+09 3.981E+09 3.794E+00 5.649E+00 1.127E+02 1.151E+03 1.269E+03 1.273E+03 2.581E+07 26.1157 1.00000
  4.467E+09 4.467E+09 3.810E+00 6.373E+00 1.265E+02 1.316E+03 1.449E+03 1.453E+03 2.617E+07 26.3459 1.00000
  5.012E+09 5.012E+09 3.826E+00 7.188E+00 1.419E+02 1.505E+03 1.654E+03 1.658E+03 2.652E+07 26.5762 1.00000
  5.623E+09 5.623E+09 3.842E+00 8.105E+00 1.593E+02 1.721E+03 1.889E+03 1.893E+03 2.687E+07 26.8064 1.00000
  6.310E+09 6.310E+09 3.859E+00 9.137E+00 1.787E+02 1.969E+03 2.157E+03 2.161E+03 2.721E+07 27.0367 1.00000
  7.079E+09 7.079E+09 3.875E+00 1.030E+01 2.006E+02 2.252E+03 2.463E+03 2.467E+03 2.754E+07 27.2670 1.00000
  7.943E+09 7.943E+09 3.892E+00 1.160E+01 2.251E+02 2.576E+03 2.813E+03 2.816E+03 2.787E+07 27.4972 1.00000
  8.913E+09 8.913E+09 3.909E+00 1.307E+01 2.526E+02 2.947E+03 3.212E+03 3.216E+03 2.820E+07 27.7275 1.00000
  1.000E+10 1.000E+10 3.925E+00 1.472E+01 2.834E+02 3.371E+03 3.669E+03 3.673E+03 2.851E+07 27.9577 1.00000
  1.122E+10 1.122E+10 3.942E+00 1.658E+01 3.181E+02 3.856E+03 4.191E+03 4.195E+03 2.882E+07 28.1880 1.00000
  1.259E+10 1.259E+10 3.959E+00 1.866E+01 3.569E+02 4.412E+03 4.788E+03 4.792E+03 2.913E+07 28.4183 1.00000
  1.413E+10 1.413E+10 3.976E+00 2.101E+01 4.005E+02 5.048E+03 5.470E+03 5.474E+03 2.943E+07 28.6485 1.00000
  1.585E+10 1.585E+10 3.994E+00 2.364E+01 4.494E+02 5.776E+03 6.249E+03 6.253E+03 2.973E+07 28.8788 1.00000
  1.778E+10 1.778E+10 4.011E+00 2.660E+01 5.042E+02 6.610E+03 7.141E+03 7.145E+03 3.002E+07 29.1090 1.00000
  1.995E+10 1.995E+10 4.028E+00 2.993E+01 5.658E+02 7.564E+03 8.160E+03 8.164E+03 3.030E+07 29.3393 1.00000
  2.239E+10 2.239E+10 4.046E+00 3.367E+01 6.349E+02 8.656E+03 9.325E+03 9.329E+03 3.058E+07 29.5696 1.00000
  2.512E+10 2.512E+10 4.063E+00 3.786E+01 7.124E+02 9.907E+03 1.066E+04 1.066E+04 3.086E+07 29.7998 1.00000
  2.818E+10 2.818E+10 4.081E+00 4.258E+01 7.993E+02 1.134E+04 1.218E+04 1.218E+04 3.112E+07 30.0301 1.00000
  3.162E+10 3.162E+10 4.099E+00 4.787E+01 8.969E+02 1.298E+04 1.392E+04 1.393E+04 3.139E+07 30.2603 1.00000
  3.548E+10 3.548E+10 4.117E+00 5.381E+01 1.006E+03 1.486E+04 1.592E+04 1.592E+04 3.165E+07 30.4906 1.00000
  3.981E+10 3.981E+10 4.135E+00 6.049E+01 1.129E+03 1.701E+04 1.819E+04 1.820E+04 3.190E+07 30.7208 1.00000
  4.467E+10 4.467E+10 4.153E+00 6.798E+01 1.267E+03 1.947E+04 2.080E+04 2.081E+04 3.215E+07 30.9511 1.00000
  5.012E+10 5.012E+10 4.171E+00 7.640E+01 1.422E+03 2.229E+04 2.378E+04 2.379E+04 3.240E+07 31.1814 1.00000
  5.623E+10 5.623E+10 4.189E+00 8.585E+01 1.595E+03 2.552E+04 2.720E+04 2.720E+04 3.264E+07 31.4116 1.00000
  6.310E+10 6.310E+10 4.208E+00 9.645E+01 1.790E+03 2.921E+04 3.110E+04 3.110E+04 3.288E+07 31.6419 1.00000
  7.079E+10 7.079E+10 4.226E+00 1.084E+02 2.008E+03 3.345E+04 3.557E+04 3.557E+04 3.311E+07 31.8721 1.00000
  7.943E+10 7.943E+10 4.245E+00 1.217E+02 2.253E+03 3.830E+04 4.068E+04 4.068E+04 3.334E+07 32.1024 1.00000
  8.913E+10 8.913E+10 4.263E+00 1.367E+02 2.528E+03 4.386E+04 4.653E+04 4.653E+04 3.356E+07 32.3327 1.00000
  1.000E+11 1.000E+11 4.282E+00 1.536E+02 2.836E+03 5.023E+04 5.322E+04 5.322E+04 3.378E+07 32.5629 1.00000
  1.122E+11 1.122E+11 4.301E+00 1.725E+02 3.182E+03 5.752E+04 6.088E+04 6.088E+04 3.399E+07 32.7932 1.00000
  1.259E+11 1.259E+11 4.320E+00 1.937E+02 3.571E+03 6.588E+04 6.965E+04 6.965E+04 3.420E+07 33.0234 1.00000
  1.413E+11 1.413E+11 4.339E+00 2.175E+02 4.006E+03 7.546E+04 7.968E+04 7.969E+04 3.441E+07 33.2537 1.00000
  1.585E+11 1.585E+11 4.359E+00 2.442E+02 4.495E+03 8.643E+04 9.117E+04 9.118E+04 3.461E+07 33.4839 1.00000
  1.778E+11 1.778E+11 4.378E+00 2.742E+02 5.043E+03 9.901E+04 1.043E+05 1.043E+05 3.481E+07 33.7142 1.00000
  1.995E+11 1.995E+11 4.397E+00 3.078E+02 5.659E+03 1.134E+05 1.194E+05 1.194E+05 3.501E+07 33.9445 1.00000
  2.239E+11 2.239E+11 4.417E+00 3.456E+02 6.349E+03 1.299E+05 1.366E+05 1.366E+05 3.520E+07 34.1747 1.00000
  2.512E+11 2.512E+11 4.437E+00 3.880E+02 7.123E+03 1.489E+05 1.564E+05 1.564E+05 3.539E+07 34.4050 1.00000
  2.818E+11 2.818E+11 4.456E+00 4.355E+02 7.992E+03 1.705E+05 1.790E+05 1.790E+05 3.557E+07 34.6352 1.00000
  3.162E+11 3.162E+11 4.476E+00 4.889E+02 8.967E+03 1.954E+05 2.049E+05 2.049E+05 3.575E+07 34.8655 1.00000
  3.548E+11 3.548E+11 4.496E+00 5.488E+02 1.006E+04 2.239E+05 2.345E+05 2.345E+05 3.593E+07 35.0958 1.00000
  3.981E+11 3.981E+11 4.516E+00 6.160E+02 1.129E+04 2.566E+05 2.685E+05 2.685E+05 3.610E+07 35.3260 1.00000
  4.467E+11 4.467E+11 4.537E+00 6.914E+02 1.267E+04 2.940E+05 3.074E+05 3.074E+05 3.627E+07 35.5563 1.00000
  5.012E+11 5.012E+11 4.557E+00 7.760E+02 1.421E+04 3.370E+05 3.519E+05 3.520E+05 3.643E+07 35.7865 1.00000
  5.623E+11 5.623E+11 4.577E+00 8.709E+02 1.594E+04 3.862E+05 4.030E+05 4.030E+05 3.660E+07 36.0168 1.00000
  6.310E+11 6.310E+11 4.598E+00 9.775E+02 1.789E+04 4.426E+05 4.615E+05 4.615E+05 3.676E+07 36.2470 1.00000
  7.079E+11 7.079E+11 4.619E+00 1.097E+03 2.007E+04 5.073E+05 5.285E+05 5.285E+05 3.691E+07 36.4773 1.00000
  7.943E+11 7.943E+11 4.640E+00 1.231E+03 2.252E+04 5.815E+05 6.053E+05 6.053E+05 3.707E+07 36.7076 1.00000
  8.913E+11 8.913E+11 4.660E+00 1.382E+03 2.527E+04 6.666E+05 6.933E+05 6.933E+05 3.722E+07 36.9378 1.00000
  1.000E+12 1.000E+12 4.682E+00 1.550E+03 2.835E+04 7.642E+05 7.941E+05 7.941E+05 3.736E+07 37.1681 1.00000
  1.122E+12 1.122E+12 4.703E+00 1.740E+03 3.181E+04 8.761E+05 9.096E+05 9.096E+05 3.751E+07 37.3983 1.00000
  1.259E+12 1.259E+12 4.724E+00 1.953E+03 3.569E+04 1.004E+06 1.042E+06 1.042E+06 3.765E+07 37.6286 1.00000
  1.413E+12 1.413E+12 4.745E+00 2.191E+03 4.004E+04 1.152E+06 1.194E+06 1.194E+06 3.779E+07 37.8589 1.00000
  1.585E+12 1.585E+12 4.767E+00 2.459E+03 4.492E+04 1.320E+06 1.368E+06 1.368E+06 3.792E+07 38.0891 1.00000
  1.778E+12 1.778E+12 4.788E+00 2.759E+03 5.040E+04 1.514E+06 1.567E+06 1.567E+06 3.805E+07 38.3194 1.00000
  1.995E+12 1.995E+12 4.810E+00 3.096E+03 5.655E+04 1.736E+06 1.796E+06 1.796E+06 3.818E+07 38.5496 1.00000
  2.239E+12 2.239E+12 4.832E+00 3.474E+03 6.345E+04 1.991E+06 2.058E+06 2.058E+06 3.831E+07 38.7799 1.00000
  2.512E+12 2.512E+12 4.854E+00 3.899E+03 7.119E+04 2.283E+06 2.358E+06 2.358E+06 3.843E+07 39.0101 1.00000
  2.818E+12 2.818E+12 4.876E+00 4.375E+03 7.987E+04 2.619E+06 2.703E+06 2.703E+06 3.856E+07 39.2404 1.00000
  3.162E+12 3.162E+12 4.898E+00 4.909E+03 8.961E+04 3.004E+06 3.098E+06 3.098E+06 3.868E+07 39.4707 1.00000
  3.548E+12 3.548E+12 4.921E+00 5.508E+03 1.005E+05 3.445E+06 3.551E+06 3.551E+06 3.879E+07 39.7009 1.00000
  3.981E+12 3.981E+12 4.943E+00 6.180E+03 1.128E+05 3.952E+06 4.071E+06 4.071E+06 3.891E+07 39.9312 1.00000
  4.467E+12 4.467E+12 4.966E+00 6.935E+03 1.266E+05 4.533E+06 4.667E+06 4.667E+06 3.902E+07 40.1614 1.00000
  5.012E+12 5.012E+12 4.989E+00 7.781E+03 1.420E+05 5.201E+06 5.350E+06 5.350E+06 3.913E+07 40.3917 1.00000
  5.623E+12 5.623E+12 5.011E+00 8.731E+03 1.593E+05 5.966E+06 6.134E+06 6.134E+06 3.923E+07 40.6220 1.00000
  6.310E+12 6.310E+12 5.034E+00 9.797E+03 1.787E+05 6.845E+06 7.034E+06 7.034E+06 3.934E+07 40.8522 1.00000
  7.079E+12 7.079E+12 5.057E+00 1.099E+04 2.005E+05 7.854E+06 8.065E+06 8.065E+06 3.944E+07 41.0825 1.00000
  7.943E+12 7.943E+12 5.081E+00 1.233E+04 2.250E+05 9.011E+06 9.249E+06 9.249E+06 3.954E+07 41.3127 1.00000
  8.913E+12 8.913E+12 5.104E+00 1.384E+04 2.525E+05 1.034E+07 1.061E+07 1.061E+07 3.964E+07 41.5430 1.00000
  1.000E+13 1.000E+13 5.128E+00 1.553E+04 2.832E+05 1.187E+07 1.216E+07 1.216E+07 3.974E+07 41.7733 1.00000
  1.122E+13 1.122E+13 5.151E+00 1.742E+04 3.178E+05 1.362E+07 1.395E+07 1.395E+07 3.983E+07 42.0035 1.00000
  1.259E+13 1.259E+13 5.175E+00 1.955E+04 3.565E+05 1.563E+07 1.600E+07 1.600E+07 3.992E+07 42.2338 1.00000
  1.413E+13 1.413E+13 5.199E+00 2.194E+04 4.000E+05 1.793E+07 1.836E+07 1.836E+07 4.001E+07 42.4640 1.00000
  1.585E+13 1.585E+13 5.223E+00 2.461E+04 4.488E+05 2.058E+07 2.106E+07 2.106E+07 4.010E+07 42.6943 1.00000
  1.778E+13 1.778E+13 5.247E+00 2.762E+04 5.036E+05 2.363E+07 2.416E+07 2.416E+07 4.018E+07 42.9245 1.00000
  1.995E+13 1.995E+13 5.271E+00 3.099E+04 5.650E+05 2.712E+07 2.772E+07 2.772E+07 4.027E+07 43.1548 1.00000
  2.239E+13 2.239E+13 5.296E+00 3.477E+04 6.339E+05 3.113E+07 3.180E+07 3.180E+07 4.035E+07 43.3851 1.00000
  2.512E+13 2.512E+13 5.320E+00 3.901E+04 7.112E+05 3.574E+07 3.649E+07 3.649E+07 4.043E+07 43.6153 1.00000
  2.818E+13 2.818E+13 5.345E+00 4.377E+04 7.979E+05 4.103E+07 4.187E+07 4.187E+07 4.051E+07 43.8456 1.00000
  3.162E+13 3.162E+13 5.369E+00 4.911E+04 8.952E+05 4.710E+07 4.805E+07 4.805E+07 4.059E+07 44.0758 1.00000
  3.548E+13 3.548E+13 5.394E+00 5.511E+04 1.004E+06 5.408E+07 5.514E+07 5.514E+07 4.066E+07 44.3061 1.00000
  3.981E+13 3.981E+13 5.419E+00 6.183E+04 1.127E+06 6.209E+07 6.328E+07 6.328E+07 4.074E+07 44.5364 1.00000
  4.467E+13 4.467E+13 5.445E+00 6.938E+04 1.264E+06 7.130E+07 7.263E+07 7.263E+07 4.081E+07 44.7666 1.00000
  5.012E+13 5.012E+13 5.470E+00 7.784E+04 1.419E+06 8.187E+07 8.337E+07 8.337E+07 4.088E+07 44.9969 1.00000
  5.623E+13 5.623E+13 5.495E+00 8.734E+04 1.591E+06 9.401E+07 9.569E+07 9.569E+07 4.095E+07 45.2271 1.00000
  6.310E+13 6.310E+13 5.521E+00 9.800E+04 1.786E+06 1.080E+08 1.098E+08 1.098E+08 4.101E+07 45.4574 1.00000
  7.079E+13 7.079E+13 5.547E+00 1.100E+05 2.003E+06 1.240E+08 1.261E+08 1.261E+08 4.108E+07 45.6876 1.00000
  7.943E+13 7.943E+13 5.573E+00 1.234E+05 2.248E+06 1.424E+08 1.448E+08 1.448E+08 4.114E+07 45.9179 1.00000
  8.913E+13 8.913E+13 5.599E+00 1.384E+05 2.522E+06 1.636E+08 1.662E+08 1.662E+08 4.121E+07 46.1482 1.00000
