 Incident particle is a Tau with M = 1776.82000 MeV
 Index = 0: LithiumCarbonate
      Absorber with <Z/A> = 0.48719
 Sternheimer coef:  a     k=m_s   x_0    x_1    I[eV]   Cbar  delta0
                 0.0994  3.5417  0.0551  2.6598   87.9  3.2029 0.00

 *** Table generated with PUMAS v1.00 ***

      T         p     Ionization  brems     pair     photonuc  Radloss    dE/dx   CSDA Range  delta   beta
    [MeV]    [MeV/c]  -----------------------[MeV cm^2/g]------------------------  [g/cm^2]
  1.000E+05 1.018E+05 2.101E+00 1.318E-04 2.049E-03 8.335E-03 1.052E-02 2.112E+00 2.367E+04  4.9617 0.99985
  1.122E+05 1.140E+05 2.120E+00 1.522E-04 2.474E-03 9.412E-03 1.204E-02 2.132E+00 2.942E+04  5.1758 0.99988
  1.259E+05 1.277E+05 2.138E+00 1.757E-04 2.975E-03 1.057E-02 1.372E-02 2.152E+00 3.582E+04  5.3919 0.99990
  1.413E+05 1.430E+05 2.156E+00 2.028E-04 3.565E-03 1.188E-02 1.565E-02 2.172E+00 4.292E+04  5.6100 0.99992
  1.585E+05 1.603E+05 2.175E+00 2.340E-04 4.259E-03 1.334E-02 1.783E-02 2.192E+00 5.082E+04  5.8298 0.99994
  1.778E+05 1.796E+05 2.193E+00 2.698E-04 5.074E-03 1.497E-02 2.032E-02 2.213E+00 5.960E+04  6.0511 0.99995
  1.995E+05 2.013E+05 2.211E+00 3.109E-04 6.028E-03 1.684E-02 2.318E-02 2.234E+00 6.936E+04  6.2738 0.99996
  2.239E+05 2.256E+05 2.229E+00 3.581E-04 7.144E-03 1.887E-02 2.638E-02 2.255E+00 8.021E+04  6.4978 0.99997
  2.512E+05 2.530E+05 2.247E+00 4.124E-04 8.445E-03 2.116E-02 3.001E-02 2.277E+00 9.226E+04  6.7228 0.99998
  2.818E+05 2.836E+05 2.265E+00 4.747E-04 9.960E-03 2.373E-02 3.416E-02 2.299E+00 1.057E+05  6.9488 0.99998
  3.162E+05 3.180E+05 2.283E+00 5.461E-04 1.172E-02 2.663E-02 3.890E-02 2.322E+00 1.205E+05  7.1757 0.99998
  3.548E+05 3.566E+05 2.300E+00 6.280E-04 1.377E-02 2.990E-02 4.429E-02 2.345E+00 1.371E+05  7.4032 0.99999
  3.981E+05 3.999E+05 2.318E+00 7.219E-04 1.614E-02 3.354E-02 5.040E-02 2.369E+00 1.555E+05  7.6313 0.99999
  4.467E+05 4.485E+05 2.336E+00 8.296E-04 1.888E-02 3.762E-02 5.733E-02 2.393E+00 1.759E+05  7.8599 0.99999
  5.012E+05 5.030E+05 2.354E+00 9.530E-04 2.205E-02 4.222E-02 6.522E-02 2.419E+00 1.985E+05  8.0889 0.99999
  5.623E+05 5.641E+05 2.371E+00 1.094E-03 2.571E-02 4.720E-02 7.401E-02 2.445E+00 2.237E+05  8.3181 1.00000
  6.310E+05 6.327E+05 2.389E+00 1.256E-03 2.993E-02 5.282E-02 8.400E-02 2.473E+00 2.516E+05  8.5476 1.00000
  7.079E+05 7.097E+05 2.406E+00 1.441E-03 3.478E-02 5.916E-02 9.538E-02 2.502E+00 2.825E+05  8.7772 1.00000
  7.943E+05 7.961E+05 2.424E+00 1.653E-03 4.036E-02 6.631E-02 1.083E-01 2.532E+00 3.168E+05  9.0069 1.00000
  8.913E+05 8.930E+05 2.441E+00 1.896E-03 4.677E-02 7.440E-02 1.231E-01 2.564E+00 3.549E+05  9.2367 1.00000
  1.000E+06 1.002E+06 2.458E+00 2.173E-03 5.413E-02 8.356E-02 1.399E-01 2.598E+00 3.970E+05  9.4665 1.00000
  1.122E+06 1.124E+06 2.476E+00 2.491E-03 6.256E-02 9.391E-02 1.590E-01 2.635E+00 4.436E+05  9.6964 1.00000
  1.259E+06 1.261E+06 2.493E+00 2.854E-03 7.220E-02 1.056E-01 1.807E-01 2.673E+00 4.952E+05  9.9263 1.00000
  1.413E+06 1.414E+06 2.510E+00 3.269E-03 8.323E-02 1.189E-01 2.054E-01 2.715E+00 5.522E+05 10.1562 1.00000
  1.585E+06 1.587E+06 2.527E+00 3.743E-03 9.583E-02 1.340E-01 2.336E-01 2.760E+00 6.152E+05 10.3862 1.00000
  1.778E+06 1.780E+06 2.543E+00 4.284E-03 1.102E-01 1.511E-01 2.656E-01 2.809E+00 6.847E+05 10.6162 1.00000
  1.995E+06 1.997E+06 2.560E+00 4.903E-03 1.266E-01 1.705E-01 3.021E-01 2.862E+00 7.612E+05 10.8463 1.00000
  2.239E+06 2.240E+06 2.577E+00 5.610E-03 1.453E-01 1.926E-01 3.435E-01 2.920E+00 8.454E+05 11.0764 1.00000
  2.512E+06 2.514E+06 2.593E+00 6.417E-03 1.665E-01 2.177E-01 3.906E-01 2.984E+00 9.380E+05 11.3064 1.00000
  2.818E+06 2.820E+06 2.609E+00 7.338E-03 1.907E-01 2.461E-01 4.442E-01 3.053E+00 1.040E+06 11.5365 1.00000
  3.162E+06 3.164E+06 2.625E+00 8.389E-03 2.182E-01 2.785E-01 5.051E-01 3.130E+00 1.151E+06 11.7667 1.00000
  3.548E+06 3.550E+06 2.641E+00 9.589E-03 2.493E-01 3.154E-01 5.743E-01 3.215E+00 1.272E+06 11.9968 1.00000
  3.981E+06 3.983E+06 2.657E+00 1.096E-02 2.847E-01 3.573E-01 6.529E-01 3.310E+00 1.405E+06 12.2270 1.00000
  4.467E+06 4.469E+06 2.673E+00 1.252E-02 3.248E-01 4.050E-01 7.423E-01 3.415E+00 1.550E+06 12.4571 1.00000
  5.012E+06 5.014E+06 2.688E+00 1.430E-02 3.702E-01 4.593E-01 8.437E-01 3.532E+00 1.707E+06 12.6873 1.00000
  5.623E+06 5.625E+06 2.703E+00 1.632E-02 4.216E-01 5.211E-01 9.590E-01 3.662E+00 1.877E+06 12.9175 1.00000
  6.310E+06 6.311E+06 2.719E+00 1.863E-02 4.797E-01 5.916E-01 1.090E+00 3.808E+00 2.060E+06 13.1477 1.00000
  7.079E+06 7.081E+06 2.734E+00 2.126E-02 5.455E-01 6.718E-01 1.239E+00 3.972E+00 2.258E+06 13.3779 1.00000
  7.943E+06 7.945E+06 2.748E+00 2.426E-02 6.198E-01 7.632E-01 1.407E+00 4.156E+00 2.471E+06 13.6081 1.00000
  8.913E+06 8.914E+06 2.763E+00 2.767E-02 7.037E-01 8.674E-01 1.599E+00 4.362E+00 2.699E+06 13.8383 1.00000
  1.000E+07 1.000E+07 2.778E+00 3.155E-02 7.985E-01 9.861E-01 1.816E+00 4.594E+00 2.942E+06 14.0685 1.00000
  1.122E+07 1.122E+07 2.792E+00 3.597E-02 9.054E-01 1.121E+00 2.063E+00 4.855E+00 3.200E+06 14.2987 1.00000
  1.259E+07 1.259E+07 2.806E+00 4.100E-02 1.026E+00 1.276E+00 2.343E+00 5.149E+00 3.474E+06 14.5289 1.00000
  1.413E+07 1.413E+07 2.821E+00 4.672E-02 1.162E+00 1.452E+00 2.661E+00 5.481E+00 3.763E+06 14.7592 1.00000
  1.585E+07 1.585E+07 2.835E+00 5.321E-02 1.315E+00 1.653E+00 3.021E+00 5.856E+00 4.068E+06 14.9894 1.00000
  1.778E+07 1.778E+07 2.849E+00 6.060E-02 1.488E+00 1.881E+00 3.430E+00 6.279E+00 4.387E+06 15.2196 1.00000
  1.995E+07 1.995E+07 2.863E+00 6.899E-02 1.682E+00 2.143E+00 3.894E+00 6.757E+00 4.720E+06 15.4499 1.00000
  2.239E+07 2.239E+07 2.876E+00 7.852E-02 1.901E+00 2.441E+00 4.421E+00 7.297E+00 5.067E+06 15.6801 1.00000
  2.512E+07 2.512E+07 2.890E+00 8.935E-02 2.148E+00 2.780E+00 5.018E+00 7.908E+00 5.427E+06 15.9103 1.00000
  2.818E+07 2.819E+07 2.904E+00 1.016E-01 2.425E+00 3.168E+00 5.695E+00 8.599E+00 5.799E+06 16.1406 1.00000
  3.162E+07 3.162E+07 2.918E+00 1.156E-01 2.737E+00 3.611E+00 6.464E+00 9.381E+00 6.182E+06 16.3708 1.00000
  3.548E+07 3.548E+07 2.931E+00 1.314E-01 3.088E+00 4.116E+00 7.336E+00 1.027E+01 6.576E+06 16.6011 1.00000
  3.981E+07 3.981E+07 2.945E+00 1.493E-01 3.483E+00 4.693E+00 8.325E+00 1.127E+01 6.979E+06 16.8313 1.00000
  4.467E+07 4.467E+07 2.958E+00 1.697E-01 3.927E+00 5.351E+00 9.447E+00 1.241E+01 7.390E+06 17.0616 1.00000
  5.012E+07 5.012E+07 2.972E+00 1.928E-01 4.425E+00 6.102E+00 1.072E+01 1.369E+01 7.809E+06 17.2918 1.00000
  5.623E+07 5.624E+07 2.985E+00 2.189E-01 4.986E+00 6.959E+00 1.216E+01 1.515E+01 8.234E+06 17.5221 1.00000
  6.310E+07 6.310E+07 2.999E+00 2.485E-01 5.616E+00 7.938E+00 1.380E+01 1.680E+01 8.665E+06 17.7523 1.00000
  7.079E+07 7.080E+07 3.012E+00 2.820E-01 6.324E+00 9.056E+00 1.566E+01 1.867E+01 9.100E+06 17.9826 1.00000
  7.943E+07 7.943E+07 3.026E+00 3.200E-01 7.119E+00 1.033E+01 1.777E+01 2.080E+01 9.539E+06 18.2128 1.00000
  8.913E+07 8.913E+07 3.040E+00 3.630E-01 8.012E+00 1.179E+01 2.016E+01 2.320E+01 9.981E+06 18.4431 1.00000
  1.000E+08 1.000E+08 3.053E+00 4.116E-01 9.015E+00 1.345E+01 2.288E+01 2.593E+01 1.042E+07 18.6733 1.00000
  1.122E+08 1.122E+08 3.067E+00 4.665E-01 1.014E+01 1.536E+01 2.596E+01 2.903E+01 1.087E+07 18.9036 1.00000
  1.259E+08 1.259E+08 3.080E+00 5.287E-01 1.141E+01 1.753E+01 2.946E+01 3.254E+01 1.132E+07 19.1338 1.00000
  1.413E+08 1.413E+08 3.094E+00 5.990E-01 1.283E+01 2.001E+01 3.343E+01 3.653E+01 1.176E+07 19.3641 1.00000
  1.585E+08 1.585E+08 3.108E+00 6.785E-01 1.442E+01 2.284E+01 3.794E+01 4.104E+01 1.221E+07 19.5944 1.00000
  1.778E+08 1.778E+08 3.122E+00 7.683E-01 1.621E+01 2.607E+01 4.305E+01 4.617E+01 1.265E+07 19.8246 1.00000
  1.995E+08 1.995E+08 3.135E+00 8.697E-01 1.822E+01 2.977E+01 4.886E+01 5.199E+01 1.310E+07 20.0549 1.00000
  2.239E+08 2.239E+08 3.149E+00 9.843E-01 2.048E+01 3.399E+01 5.545E+01 5.860E+01 1.354E+07 20.2851 1.00000
  2.512E+08 2.512E+08 3.163E+00 1.114E+00 2.301E+01 3.881E+01 6.294E+01 6.610E+01 1.398E+07 20.5154 1.00000
  2.818E+08 2.818E+08 3.177E+00 1.260E+00 2.585E+01 4.433E+01 7.144E+01 7.461E+01 1.442E+07 20.7456 1.00000
  3.162E+08 3.162E+08 3.191E+00 1.424E+00 2.904E+01 5.062E+01 8.109E+01 8.428E+01 1.485E+07 20.9759 1.00000
  3.548E+08 3.548E+08 3.206E+00 1.610E+00 3.262E+01 5.782E+01 9.205E+01 9.526E+01 1.528E+07 21.2062 1.00000
  3.981E+08 3.981E+08 3.220E+00 1.819E+00 3.664E+01 6.604E+01 1.045E+02 1.077E+02 1.571E+07 21.4364 1.00000
  4.467E+08 4.467E+08 3.234E+00 2.056E+00 4.115E+01 7.544E+01 1.186E+02 1.219E+02 1.613E+07 21.6667 1.00000
  5.012E+08 5.012E+08 3.248E+00 2.322E+00 4.621E+01 8.618E+01 1.347E+02 1.380E+02 1.656E+07 21.8969 1.00000
  5.623E+08 5.623E+08 3.263E+00 2.622E+00 5.189E+01 9.845E+01 1.530E+02 1.562E+02 1.697E+07 22.1272 1.00000
  6.310E+08 6.310E+08 3.277E+00 2.960E+00 5.827E+01 1.125E+02 1.737E+02 1.770E+02 1.739E+07 22.3574 1.00000
  7.079E+08 7.079E+08 3.292E+00 3.341E+00 6.542E+01 1.285E+02 1.973E+02 2.006E+02 1.780E+07 22.5877 1.00000
  7.943E+08 7.943E+08 3.306E+00 3.770E+00 7.345E+01 1.468E+02 2.241E+02 2.274E+02 1.820E+07 22.8180 1.00000
  8.913E+08 8.913E+08 3.321E+00 4.254E+00 8.246E+01 1.678E+02 2.545E+02 2.578E+02 1.860E+07 23.0482 1.00000
  1.000E+09 1.000E+09 3.336E+00 4.798E+00 9.257E+01 1.918E+02 2.891E+02 2.925E+02 1.900E+07 23.2785 1.00000
  1.122E+09 1.122E+09 3.351E+00 5.410E+00 1.039E+02 2.191E+02 3.285E+02 3.318E+02 1.939E+07 23.5087 1.00000
  1.259E+09 1.259E+09 3.366E+00 6.099E+00 1.166E+02 2.505E+02 3.732E+02 3.766E+02 1.978E+07 23.7390 1.00000
  1.413E+09 1.413E+09 3.381E+00 6.875E+00 1.309E+02 2.863E+02 4.241E+02 4.274E+02 2.016E+07 23.9692 1.00000
  1.585E+09 1.585E+09 3.396E+00 7.748E+00 1.470E+02 3.272E+02 4.819E+02 4.853E+02 2.054E+07 24.1995 1.00000
  1.778E+09 1.778E+09 3.411E+00 8.729E+00 1.649E+02 3.740E+02 5.477E+02 5.511E+02 2.092E+07 24.4298 1.00000
  1.995E+09 1.995E+09 3.426E+00 9.833E+00 1.851E+02 4.276E+02 6.225E+02 6.259E+02 2.129E+07 24.6600 1.00000
  2.239E+09 2.239E+09 3.441E+00 1.107E+01 2.078E+02 4.888E+02 7.076E+02 7.110E+02 2.165E+07 24.8903 1.00000
  2.512E+09 2.512E+09 3.457E+00 1.247E+01 2.332E+02 5.588E+02 8.044E+02 8.079E+02 2.201E+07 25.1205 1.00000
  2.818E+09 2.818E+09 3.472E+00 1.404E+01 2.617E+02 6.389E+02 9.146E+02 9.181E+02 2.237E+07 25.3508 1.00000
  3.162E+09 3.162E+09 3.488E+00 1.580E+01 2.936E+02 7.305E+02 1.040E+03 1.043E+03 2.272E+07 25.5811 1.00000
  3.548E+09 3.548E+09 3.504E+00 1.778E+01 3.295E+02 8.353E+02 1.183E+03 1.186E+03 2.307E+07 25.8113 1.00000
  3.981E+09 3.981E+09 3.519E+00 2.001E+01 3.698E+02 9.552E+02 1.345E+03 1.348E+03 2.341E+07 26.0416 1.00000
  4.467E+09 4.467E+09 3.535E+00 2.251E+01 4.150E+02 1.092E+03 1.530E+03 1.533E+03 2.375E+07 26.2718 1.00000
  5.012E+09 5.012E+09 3.551E+00 2.533E+01 4.657E+02 1.249E+03 1.740E+03 1.744E+03 2.409E+07 26.5021 1.00000
  5.623E+09 5.623E+09 3.567E+00 2.849E+01 5.226E+02 1.429E+03 1.980E+03 1.983E+03 2.442E+07 26.7323 1.00000
  6.310E+09 6.310E+09 3.583E+00 3.204E+01 5.864E+02 1.634E+03 2.252E+03 2.256E+03 2.474E+07 26.9626 1.00000
  7.079E+09 7.079E+09 3.600E+00 3.602E+01 6.580E+02 1.869E+03 2.563E+03 2.567E+03 2.506E+07 27.1929 1.00000
  7.943E+09 7.943E+09 3.616E+00 4.050E+01 7.383E+02 2.138E+03 2.917E+03 2.920E+03 2.538E+07 27.4231 1.00000
  8.913E+09 8.913E+09 3.632E+00 4.553E+01 8.285E+02 2.446E+03 3.320E+03 3.323E+03 2.569E+07 27.6534 1.00000
  1.000E+10 1.000E+10 3.649E+00 5.117E+01 9.296E+02 2.798E+03 3.779E+03 3.782E+03 2.600E+07 27.8836 1.00000
  1.122E+10 1.122E+10 3.665E+00 5.751E+01 1.043E+03 3.201E+03 4.301E+03 4.305E+03 2.630E+07 28.1139 1.00000
  1.259E+10 1.259E+10 3.682E+00 6.463E+01 1.170E+03 3.662E+03 4.897E+03 4.901E+03 2.660E+07 28.3442 1.00000
  1.413E+10 1.413E+10 3.699E+00 7.263E+01 1.313E+03 4.190E+03 5.576E+03 5.580E+03 2.689E+07 28.5744 1.00000
  1.585E+10 1.585E+10 3.716E+00 8.160E+01 1.474E+03 4.794E+03 6.350E+03 6.353E+03 2.718E+07 28.8047 1.00000
  1.778E+10 1.778E+10 3.733E+00 9.168E+01 1.653E+03 5.486E+03 7.231E+03 7.235E+03 2.747E+07 29.0349 1.00000
  1.995E+10 1.995E+10 3.750E+00 1.030E+02 1.855E+03 6.278E+03 8.236E+03 8.240E+03 2.775E+07 29.2652 1.00000
  2.239E+10 2.239E+10 3.767E+00 1.157E+02 2.082E+03 7.185E+03 9.382E+03 9.386E+03 2.803E+07 29.4955 1.00000
  2.512E+10 2.512E+10 3.784E+00 1.299E+02 2.336E+03 8.222E+03 1.069E+04 1.069E+04 2.830E+07 29.7257 1.00000
  2.818E+10 2.818E+10 3.802E+00 1.459E+02 2.621E+03 9.411E+03 1.218E+04 1.218E+04 2.857E+07 29.9560 1.00000
  3.162E+10 3.162E+10 3.819E+00 1.639E+02 2.941E+03 1.077E+04 1.388E+04 1.388E+04 2.884E+07 30.1862 1.00000
  3.548E+10 3.548E+10 3.837E+00 1.840E+02 3.299E+03 1.233E+04 1.581E+04 1.582E+04 2.910E+07 30.4165 1.00000
  3.981E+10 3.981E+10 3.854E+00 2.067E+02 3.702E+03 1.411E+04 1.802E+04 1.803E+04 2.935E+07 30.6467 1.00000
  4.467E+10 4.467E+10 3.872E+00 2.320E+02 4.154E+03 1.616E+04 2.054E+04 2.055E+04 2.961E+07 30.8770 1.00000
  5.012E+10 5.012E+10 3.890E+00 2.605E+02 4.661E+03 1.850E+04 2.342E+04 2.342E+04 2.986E+07 31.1073 1.00000
  5.623E+10 5.623E+10 3.908E+00 2.925E+02 5.229E+03 2.118E+04 2.670E+04 2.670E+04 3.010E+07 31.3375 1.00000
  6.310E+10 6.310E+10 3.926E+00 3.284E+02 5.867E+03 2.425E+04 3.044E+04 3.045E+04 3.034E+07 31.5678 1.00000
  7.079E+10 7.079E+10 3.944E+00 3.686E+02 6.583E+03 2.776E+04 3.471E+04 3.472E+04 3.058E+07 31.7980 1.00000
  7.943E+10 7.943E+10 3.962E+00 4.138E+02 7.386E+03 3.179E+04 3.959E+04 3.959E+04 3.081E+07 32.0283 1.00000
  8.913E+10 8.913E+10 3.980E+00 4.645E+02 8.287E+03 3.640E+04 4.515E+04 4.516E+04 3.104E+07 32.2586 1.00000
  1.000E+11 1.000E+11 3.999E+00 5.214E+02 9.298E+03 4.169E+04 5.151E+04 5.151E+04 3.127E+07 32.4888 1.00000
  1.122E+11 1.122E+11 4.018E+00 5.853E+02 1.043E+04 4.774E+04 5.876E+04 5.877E+04 3.149E+07 32.7191 1.00000
  1.259E+11 1.259E+11 4.036E+00 6.569E+02 1.171E+04 5.468E+04 6.704E+04 6.705E+04 3.171E+07 32.9493 1.00000
  1.413E+11 1.413E+11 4.055E+00 7.373E+02 1.313E+04 6.263E+04 7.650E+04 7.650E+04 3.192E+07 33.1796 1.00000
  1.585E+11 1.585E+11 4.074E+00 8.276E+02 1.474E+04 7.174E+04 8.730E+04 8.730E+04 3.214E+07 33.4098 1.00000
  1.778E+11 1.778E+11 4.093E+00 9.288E+02 1.653E+04 8.217E+04 9.963E+04 9.964E+04 3.234E+07 33.6401 1.00000
  1.995E+11 1.995E+11 4.112E+00 1.042E+03 1.855E+04 9.413E+04 1.137E+05 1.137E+05 3.255E+07 33.8704 1.00000
  2.239E+11 2.239E+11 4.131E+00 1.170E+03 2.081E+04 1.078E+05 1.298E+05 1.298E+05 3.275E+07 34.1006 1.00000
  2.512E+11 2.512E+11 4.150E+00 1.313E+03 2.335E+04 1.235E+05 1.482E+05 1.482E+05 3.295E+07 34.3309 1.00000
  2.818E+11 2.818E+11 4.170E+00 1.473E+03 2.620E+04 1.415E+05 1.692E+05 1.692E+05 3.314E+07 34.5611 1.00000
  3.162E+11 3.162E+11 4.189E+00 1.653E+03 2.940E+04 1.622E+05 1.932E+05 1.932E+05 3.333E+07 34.7914 1.00000
  3.548E+11 3.548E+11 4.209E+00 1.856E+03 3.298E+04 1.858E+05 2.207E+05 2.207E+05 3.352E+07 35.0217 1.00000
  3.981E+11 3.981E+11 4.229E+00 2.082E+03 3.701E+04 2.130E+05 2.520E+05 2.520E+05 3.370E+07 35.2519 1.00000
  4.467E+11 4.467E+11 4.249E+00 2.337E+03 4.152E+04 2.440E+05 2.879E+05 2.879E+05 3.388E+07 35.4822 1.00000
  5.012E+11 5.012E+11 4.269E+00 2.622E+03 4.658E+04 2.797E+05 3.289E+05 3.289E+05 3.406E+07 35.7124 1.00000
  5.623E+11 5.623E+11 4.289E+00 2.942E+03 5.227E+04 3.205E+05 3.757E+05 3.757E+05 3.423E+07 35.9427 1.00000
  6.310E+11 6.310E+11 4.309E+00 3.302E+03 5.864E+04 3.674E+05 4.293E+05 4.293E+05 3.440E+07 36.1729 1.00000
  7.079E+11 7.079E+11 4.329E+00 3.705E+03 6.580E+04 4.211E+05 4.906E+05 4.906E+05 3.457E+07 36.4032 1.00000
  7.943E+11 7.943E+11 4.350E+00 4.157E+03 7.382E+04 4.826E+05 5.606E+05 5.606E+05 3.474E+07 36.6335 1.00000
  8.913E+11 8.913E+11 4.370E+00 4.665E+03 8.283E+04 5.533E+05 6.408E+05 6.408E+05 3.490E+07 36.8637 1.00000
  1.000E+12 1.000E+12 4.391E+00 5.235E+03 9.293E+04 6.342E+05 7.324E+05 7.324E+05 3.506E+07 37.0940 1.00000
  1.122E+12 1.122E+12 4.411E+00 5.874E+03 1.043E+05 7.271E+05 8.372E+05 8.373E+05 3.522E+07 37.3242 1.00000
  1.259E+12 1.259E+12 4.432E+00 6.591E+03 1.170E+05 8.336E+05 9.572E+05 9.572E+05 3.537E+07 37.5545 1.00000
  1.413E+12 1.413E+12 4.453E+00 7.395E+03 1.313E+05 9.558E+05 1.094E+06 1.094E+06 3.552E+07 37.7848 1.00000
  1.585E+12 1.585E+12 4.474E+00 8.298E+03 1.473E+05 1.096E+06 1.251E+06 1.251E+06 3.567E+07 38.0150 1.00000
  1.778E+12 1.778E+12 4.496E+00 9.311E+03 1.652E+05 1.257E+06 1.431E+06 1.431E+06 3.581E+07 38.2453 1.00000
  1.995E+12 1.995E+12 4.517E+00 1.045E+04 1.854E+05 1.441E+06 1.637E+06 1.637E+06 3.595E+07 38.4755 1.00000
  2.239E+12 2.239E+12 4.538E+00 1.172E+04 2.080E+05 1.653E+06 1.872E+06 1.872E+06 3.609E+07 38.7058 1.00000
  2.512E+12 2.512E+12 4.560E+00 1.315E+04 2.334E+05 1.895E+06 2.142E+06 2.142E+06 3.623E+07 38.9360 1.00000
  2.818E+12 2.818E+12 4.582E+00 1.476E+04 2.618E+05 2.174E+06 2.450E+06 2.450E+06 3.636E+07 39.1663 1.00000
  3.162E+12 3.162E+12 4.604E+00 1.656E+04 2.938E+05 2.493E+06 2.803E+06 2.803E+06 3.650E+07 39.3966 1.00000
  3.548E+12 3.548E+12 4.625E+00 1.858E+04 3.296E+05 2.859E+06 3.208E+06 3.208E+06 3.662E+07 39.6268 1.00000
  3.981E+12 3.981E+12 4.648E+00 2.085E+04 3.698E+05 3.280E+06 3.671E+06 3.671E+06 3.675E+07 39.8571 1.00000
  4.467E+12 4.467E+12 4.670E+00 2.339E+04 4.149E+05 3.762E+06 4.201E+06 4.201E+06 3.687E+07 40.0873 1.00000
  5.012E+12 5.012E+12 4.692E+00 2.625E+04 4.655E+05 4.316E+06 4.808E+06 4.808E+06 3.700E+07 40.3176 1.00000
  5.623E+12 5.623E+12 4.714E+00 2.945E+04 5.223E+05 4.952E+06 5.503E+06 5.503E+06 3.712E+07 40.5479 1.00000
  6.310E+12 6.310E+12 4.737E+00 3.305E+04 5.860E+05 5.681E+06 6.300E+06 6.300E+06 3.723E+07 40.7781 1.00000
  7.079E+12 7.079E+12 4.760E+00 3.708E+04 6.574E+05 6.518E+06 7.213E+06 7.213E+06 3.735E+07 41.0084 1.00000
  7.943E+12 7.943E+12 4.782E+00 4.160E+04 7.376E+05 7.479E+06 8.258E+06 8.258E+06 3.746E+07 41.2386 1.00000
  8.913E+12 8.913E+12 4.805E+00 4.668E+04 8.276E+05 8.582E+06 9.456E+06 9.456E+06 3.757E+07 41.4689 1.00000
  1.000E+13 1.000E+13 4.828E+00 5.238E+04 9.285E+05 9.848E+06 1.083E+07 1.083E+07 3.768E+07 41.6992 1.00000
  1.122E+13 1.122E+13 4.852E+00 5.877E+04 1.042E+06 1.130E+07 1.240E+07 1.240E+07 3.778E+07 41.9294 1.00000
  1.259E+13 1.259E+13 4.875E+00 6.594E+04 1.169E+06 1.297E+07 1.420E+07 1.420E+07 3.789E+07 42.1597 1.00000
  1.413E+13 1.413E+13 4.898E+00 7.398E+04 1.311E+06 1.489E+07 1.627E+07 1.627E+07 3.799E+07 42.3899 1.00000
  1.585E+13 1.585E+13 4.922E+00 8.301E+04 1.471E+06 1.708E+07 1.864E+07 1.864E+07 3.809E+07 42.6202 1.00000
  1.778E+13 1.778E+13 4.945E+00 9.314E+04 1.651E+06 1.961E+07 2.135E+07 2.135E+07 3.818E+07 42.8504 1.00000
  1.995E+13 1.995E+13 4.969E+00 1.045E+05 1.852E+06 2.251E+07 2.447E+07 2.447E+07 3.828E+07 43.0807 1.00000
  2.239E+13 2.239E+13 4.993E+00 1.173E+05 2.078E+06 2.584E+07 2.803E+07 2.803E+07 3.837E+07 43.3110 1.00000
  2.512E+13 2.512E+13 5.017E+00 1.316E+05 2.331E+06 2.966E+07 3.212E+07 3.212E+07 3.846E+07 43.5412 1.00000
  2.818E+13 2.818E+13 5.041E+00 1.476E+05 2.616E+06 3.405E+07 3.681E+07 3.681E+07 3.855E+07 43.7715 1.00000
  3.162E+13 3.162E+13 5.066E+00 1.656E+05 2.935E+06 3.909E+07 4.219E+07 4.219E+07 3.864E+07 44.0017 1.00000
  3.548E+13 3.548E+13 5.090E+00 1.858E+05 3.293E+06 4.488E+07 4.836E+07 4.836E+07 3.873E+07 44.2320 1.00000
  3.981E+13 3.981E+13 5.115E+00 2.085E+05 3.694E+06 5.153E+07 5.544E+07 5.544E+07 3.881E+07 44.4623 1.00000
  4.467E+13 4.467E+13 5.140E+00 2.340E+05 4.145E+06 5.917E+07 6.355E+07 6.355E+07 3.889E+07 44.6925 1.00000
  5.012E+13 5.012E+13 5.164E+00 2.625E+05 4.650E+06 6.795E+07 7.286E+07 7.286E+07 3.897E+07 44.9228 1.00000
  5.623E+13 5.623E+13 5.189E+00 2.945E+05 5.217E+06 7.803E+07 8.354E+07 8.354E+07 3.905E+07 45.1530 1.00000
  6.310E+13 6.310E+13 5.214E+00 3.305E+05 5.853E+06 8.961E+07 9.579E+07 9.579E+07 3.913E+07 45.3833 1.00000
  7.079E+13 7.079E+13 5.240E+00 3.708E+05 6.567E+06 1.029E+08 1.098E+08 1.098E+08 3.920E+07 45.6135 1.00000
  7.943E+13 7.943E+13 5.265E+00 4.161E+05 7.368E+06 1.182E+08 1.260E+08 1.260E+08 3.928E+07 45.8438 1.00000
  8.913E+13 8.913E+13 5.291E+00 4.668E+05 8.267E+06 1.357E+08 1.445E+08 1.445E+08 3.935E+07 46.0741 1.00000
