 Incident particle is a Tau with M = 1776.82000 MeV
 Index = 0: LithiumHydride
      Absorber with <Z/A> = 0.50306
 Sternheimer coef:  a     k=m_s   x_0    x_1    I[eV]   Cbar  delta0
                 0.9057  2.5849  0.0988  1.4515   36.5  2.3580 0.00

 *** Table generated with PUMAS v1.00 ***

      T         p     Ionization  brems     pair     photonuc  Radloss    dE/dx   CSDA Range  delta   beta
    [MeV]    [MeV/c]  -----------------------[MeV cm^2/g]------------------------  [g/cm^2]
  1.000E+05 1.018E+05 2.246E+00 5.341E-05 8.485E-04 8.619E-03 9.521E-03 2.255E+00 2.217E+04  5.7376 0.99985
  1.122E+05 1.140E+05 2.264E+00 6.164E-05 1.037E-03 9.753E-03 1.085E-02 2.275E+00 2.756E+04  5.9641 0.99988
  1.259E+05 1.277E+05 2.282E+00 7.112E-05 1.260E-03 1.098E-02 1.231E-02 2.294E+00 3.355E+04  6.1910 0.99990
  1.413E+05 1.430E+05 2.300E+00 8.202E-05 1.523E-03 1.236E-02 1.397E-02 2.314E+00 4.022E+04  6.4183 0.99992
  1.585E+05 1.603E+05 2.318E+00 9.455E-05 1.835E-03 1.391E-02 1.584E-02 2.334E+00 4.763E+04  6.6459 0.99994
  1.778E+05 1.796E+05 2.336E+00 1.090E-04 2.201E-03 1.564E-02 1.795E-02 2.354E+00 5.588E+04  6.8738 0.99995
  1.995E+05 2.013E+05 2.355E+00 1.255E-04 2.632E-03 1.763E-02 2.038E-02 2.375E+00 6.506E+04  7.1019 0.99996
  2.239E+05 2.256E+05 2.373E+00 1.446E-04 3.137E-03 1.980E-02 2.308E-02 2.396E+00 7.527E+04  7.3302 0.99997
  2.512E+05 2.530E+05 2.391E+00 1.664E-04 3.729E-03 2.224E-02 2.613E-02 2.417E+00 8.662E+04  7.5588 0.99998
  2.818E+05 2.836E+05 2.409E+00 1.915E-04 4.419E-03 2.499E-02 2.960E-02 2.439E+00 9.924E+04  7.7875 0.99998
  3.162E+05 3.180E+05 2.428E+00 2.203E-04 5.225E-03 2.810E-02 3.355E-02 2.461E+00 1.133E+05  8.0164 0.99998
  3.548E+05 3.566E+05 2.446E+00 2.534E-04 6.162E-03 3.160E-02 3.802E-02 2.484E+00 1.289E+05  8.2455 0.99999
  3.981E+05 3.999E+05 2.464E+00 2.914E-04 7.252E-03 3.552E-02 4.306E-02 2.507E+00 1.462E+05  8.4747 0.99999
  4.467E+05 4.485E+05 2.483E+00 3.350E-04 8.516E-03 3.992E-02 4.877E-02 2.531E+00 1.655E+05  8.7040 0.99999
  5.012E+05 5.030E+05 2.501E+00 3.850E-04 9.981E-03 4.487E-02 5.524E-02 2.556E+00 1.869E+05  8.9334 0.99999
  5.623E+05 5.641E+05 2.519E+00 4.423E-04 1.168E-02 5.025E-02 6.237E-02 2.581E+00 2.107E+05  9.1629 1.00000
  6.310E+05 6.327E+05 2.537E+00 5.081E-04 1.364E-02 5.632E-02 7.047E-02 2.608E+00 2.372E+05  9.3924 1.00000
  7.079E+05 7.097E+05 2.555E+00 5.836E-04 1.590E-02 6.318E-02 7.967E-02 2.635E+00 2.666E+05  9.6221 1.00000
  7.943E+05 7.961E+05 2.573E+00 6.701E-04 1.851E-02 7.094E-02 9.012E-02 2.663E+00 2.992E+05  9.8518 1.00000
  8.913E+05 8.930E+05 2.591E+00 7.694E-04 2.151E-02 7.971E-02 1.020E-01 2.693E+00 3.354E+05 10.0816 1.00000
  1.000E+06 1.002E+06 2.609E+00 8.832E-04 2.496E-02 8.965E-02 1.155E-01 2.724E+00 3.755E+05 10.3114 1.00000
  1.122E+06 1.124E+06 2.627E+00 1.014E-03 2.893E-02 1.009E-01 1.308E-01 2.758E+00 4.200E+05 10.5413 1.00000
  1.259E+06 1.261E+06 2.644E+00 1.163E-03 3.348E-02 1.136E-01 1.483E-01 2.793E+00 4.694E+05 10.7712 1.00000
  1.413E+06 1.414E+06 2.662E+00 1.335E-03 3.870E-02 1.281E-01 1.681E-01 2.830E+00 5.240E+05 11.0011 1.00000
  1.585E+06 1.587E+06 2.679E+00 1.531E-03 4.468E-02 1.445E-01 1.907E-01 2.870E+00 5.845E+05 11.2311 1.00000
  1.778E+06 1.780E+06 2.697E+00 1.756E-03 5.152E-02 1.631E-01 2.164E-01 2.913E+00 6.514E+05 11.4611 1.00000
  1.995E+06 1.997E+06 2.714E+00 2.014E-03 5.934E-02 1.843E-01 2.456E-01 2.960E+00 7.253E+05 11.6912 1.00000
  2.239E+06 2.240E+06 2.731E+00 2.310E-03 6.826E-02 2.083E-01 2.789E-01 3.010E+00 8.068E+05 11.9213 1.00000
  2.512E+06 2.514E+06 2.748E+00 2.648E-03 7.845E-02 2.356E-01 3.167E-01 3.065E+00 8.968E+05 12.1513 1.00000
  2.818E+06 2.820E+06 2.765E+00 3.036E-03 9.005E-02 2.667E-01 3.598E-01 3.124E+00 9.958E+05 12.3814 1.00000
  3.162E+06 3.164E+06 2.781E+00 3.480E-03 1.033E-01 3.020E-01 4.088E-01 3.190E+00 1.105E+06 12.6116 1.00000
  3.548E+06 3.550E+06 2.798E+00 3.988E-03 1.183E-01 3.422E-01 4.645E-01 3.262E+00 1.224E+06 12.8417 1.00000
  3.981E+06 3.983E+06 2.814E+00 4.570E-03 1.354E-01 3.880E-01 5.279E-01 3.342E+00 1.356E+06 13.0719 1.00000
  4.467E+06 4.469E+06 2.830E+00 5.236E-03 1.549E-01 4.400E-01 6.001E-01 3.430E+00 1.499E+06 13.3020 1.00000
  5.012E+06 5.014E+06 2.846E+00 5.997E-03 1.769E-01 4.993E-01 6.822E-01 3.528E+00 1.656E+06 13.5322 1.00000
  5.623E+06 5.625E+06 2.862E+00 6.868E-03 2.020E-01 5.668E-01 7.756E-01 3.638E+00 1.826E+06 13.7624 1.00000
  6.310E+06 6.311E+06 2.878E+00 7.863E-03 2.303E-01 6.437E-01 8.819E-01 3.760E+00 2.012E+06 13.9926 1.00000
  7.079E+06 7.081E+06 2.893E+00 9.001E-03 2.625E-01 7.314E-01 1.003E+00 3.896E+00 2.213E+06 14.2228 1.00000
  7.943E+06 7.945E+06 2.908E+00 1.030E-02 2.989E-01 8.312E-01 1.140E+00 4.049E+00 2.431E+06 14.4530 1.00000
  8.913E+06 8.914E+06 2.924E+00 1.179E-02 3.401E-01 9.450E-01 1.297E+00 4.221E+00 2.665E+06 14.6832 1.00000
  1.000E+07 1.000E+07 2.939E+00 1.348E-02 3.867E-01 1.075E+00 1.475E+00 4.414E+00 2.917E+06 14.9134 1.00000
  1.122E+07 1.122E+07 2.954E+00 1.542E-02 4.394E-01 1.223E+00 1.678E+00 4.631E+00 3.187E+06 15.1436 1.00000
  1.259E+07 1.259E+07 2.968E+00 1.763E-02 4.990E-01 1.391E+00 1.908E+00 4.876E+00 3.475E+06 15.3738 1.00000
  1.413E+07 1.413E+07 2.983E+00 2.015E-02 5.662E-01 1.584E+00 2.170E+00 5.153E+00 3.782E+06 15.6041 1.00000
  1.585E+07 1.585E+07 2.998E+00 2.303E-02 6.422E-01 1.803E+00 2.468E+00 5.466E+00 4.107E+06 15.8343 1.00000
  1.778E+07 1.778E+07 3.012E+00 2.631E-02 7.278E-01 2.053E+00 2.807E+00 5.819E+00 4.450E+06 16.0645 1.00000
  1.995E+07 1.995E+07 3.026E+00 3.004E-02 8.245E-01 2.339E+00 3.193E+00 6.220E+00 4.811E+06 16.2948 1.00000
  2.239E+07 2.239E+07 3.041E+00 3.430E-02 9.334E-01 2.664E+00 3.632E+00 6.673E+00 5.189E+06 16.5250 1.00000
  2.512E+07 2.512E+07 3.055E+00 3.915E-02 1.056E+00 3.036E+00 4.131E+00 7.186E+00 5.584E+06 16.7552 1.00000
  2.818E+07 2.819E+07 3.069E+00 4.467E-02 1.195E+00 3.460E+00 4.699E+00 7.768E+00 5.994E+06 16.9855 1.00000
  3.162E+07 3.162E+07 3.083E+00 5.096E-02 1.350E+00 3.944E+00 5.345E+00 8.428E+00 6.420E+06 17.2157 1.00000
  3.548E+07 3.548E+07 3.097E+00 5.810E-02 1.526E+00 4.496E+00 6.080E+00 9.177E+00 6.859E+06 17.4460 1.00000
  3.981E+07 3.981E+07 3.111E+00 6.624E-02 1.723E+00 5.126E+00 6.916E+00 1.003E+01 7.311E+06 17.6762 1.00000
  4.467E+07 4.467E+07 3.125E+00 7.549E-02 1.946E+00 5.845E+00 7.867E+00 1.099E+01 7.774E+06 17.9065 1.00000
  5.012E+07 5.012E+07 3.139E+00 8.600E-02 2.196E+00 6.667E+00 8.948E+00 1.209E+01 8.247E+06 18.1367 1.00000
  5.623E+07 5.624E+07 3.153E+00 9.793E-02 2.477E+00 7.604E+00 1.018E+01 1.333E+01 8.729E+06 18.3670 1.00000
  6.310E+07 6.310E+07 3.167E+00 1.115E-01 2.793E+00 8.675E+00 1.158E+01 1.475E+01 9.219E+06 18.5972 1.00000
  7.079E+07 7.080E+07 3.181E+00 1.269E-01 3.149E+00 9.897E+00 1.317E+01 1.635E+01 9.716E+06 18.8275 1.00000
  7.943E+07 7.943E+07 3.195E+00 1.444E-01 3.549E+00 1.129E+01 1.499E+01 1.818E+01 1.022E+07 19.0577 1.00000
  8.913E+07 8.913E+07 3.209E+00 1.642E-01 3.998E+00 1.289E+01 1.705E+01 2.026E+01 1.072E+07 19.2880 1.00000
  1.000E+08 1.000E+08 3.223E+00 1.868E-01 4.503E+00 1.470E+01 1.939E+01 2.262E+01 1.123E+07 19.5182 1.00000
  1.122E+08 1.122E+08 3.237E+00 2.123E-01 5.070E+00 1.678E+01 2.207E+01 2.530E+01 1.174E+07 19.7485 1.00000
  1.259E+08 1.259E+08 3.251E+00 2.412E-01 5.707E+00 1.916E+01 2.511E+01 2.836E+01 1.225E+07 19.9787 1.00000
  1.413E+08 1.413E+08 3.265E+00 2.740E-01 6.423E+00 2.187E+01 2.856E+01 3.183E+01 1.277E+07 20.2090 1.00000
  1.585E+08 1.585E+08 3.280E+00 3.112E-01 7.227E+00 2.496E+01 3.250E+01 3.578E+01 1.328E+07 20.4393 1.00000
  1.778E+08 1.778E+08 3.294E+00 3.533E-01 8.130E+00 2.850E+01 3.698E+01 4.028E+01 1.379E+07 20.6695 1.00000
  1.995E+08 1.995E+08 3.308E+00 4.009E-01 9.143E+00 3.254E+01 4.209E+01 4.539E+01 1.430E+07 20.8998 1.00000
  2.239E+08 2.239E+08 3.322E+00 4.549E-01 1.028E+01 3.716E+01 4.789E+01 5.122E+01 1.480E+07 21.1300 1.00000
  2.512E+08 2.512E+08 3.337E+00 5.159E-01 1.156E+01 4.243E+01 5.451E+01 5.784E+01 1.531E+07 21.3603 1.00000
  2.818E+08 2.818E+08 3.351E+00 5.849E-01 1.299E+01 4.846E+01 6.204E+01 6.539E+01 1.581E+07 21.5905 1.00000
  3.162E+08 3.162E+08 3.366E+00 6.630E-01 1.460E+01 5.534E+01 7.061E+01 7.397E+01 1.630E+07 21.8208 1.00000
  3.548E+08 3.548E+08 3.380E+00 7.513E-01 1.641E+01 6.321E+01 8.037E+01 8.375E+01 1.679E+07 22.0511 1.00000
  3.981E+08 3.981E+08 3.395E+00 8.510E-01 1.844E+01 7.220E+01 9.149E+01 9.489E+01 1.728E+07 22.2813 1.00000
  4.467E+08 4.467E+08 3.410E+00 9.637E-01 2.072E+01 8.247E+01 1.042E+02 1.076E+02 1.776E+07 22.5116 1.00000
  5.012E+08 5.012E+08 3.425E+00 1.091E+00 2.327E+01 9.422E+01 1.186E+02 1.220E+02 1.824E+07 22.7418 1.00000
  5.623E+08 5.623E+08 3.439E+00 1.235E+00 2.614E+01 1.076E+02 1.350E+02 1.385E+02 1.871E+07 22.9721 1.00000
  6.310E+08 6.310E+08 3.454E+00 1.397E+00 2.936E+01 1.230E+02 1.537E+02 1.572E+02 1.917E+07 23.2023 1.00000
  7.079E+08 7.079E+08 3.469E+00 1.580E+00 3.297E+01 1.405E+02 1.751E+02 1.785E+02 1.964E+07 23.4326 1.00000
  7.943E+08 7.943E+08 3.485E+00 1.787E+00 3.703E+01 1.605E+02 1.994E+02 2.028E+02 2.009E+07 23.6629 1.00000
  8.913E+08 8.913E+08 3.500E+00 2.020E+00 4.158E+01 1.835E+02 2.271E+02 2.306E+02 2.054E+07 23.8931 1.00000
  1.000E+09 1.000E+09 3.515E+00 2.283E+00 4.668E+01 2.097E+02 2.586E+02 2.621E+02 2.098E+07 24.1234 1.00000
  1.122E+09 1.122E+09 3.530E+00 2.579E+00 5.241E+01 2.396E+02 2.946E+02 2.981E+02 2.142E+07 24.3536 1.00000
  1.259E+09 1.259E+09 3.546E+00 2.914E+00 5.884E+01 2.738E+02 3.356E+02 3.391E+02 2.185E+07 24.5839 1.00000
  1.413E+09 1.413E+09 3.561E+00 3.290E+00 6.606E+01 3.130E+02 3.823E+02 3.859E+02 2.228E+07 24.8141 1.00000
  1.585E+09 1.585E+09 3.577E+00 3.715E+00 7.415E+01 3.577E+02 4.356E+02 4.392E+02 2.270E+07 25.0444 1.00000
  1.778E+09 1.778E+09 3.592E+00 4.193E+00 8.324E+01 4.089E+02 4.964E+02 4.999E+02 2.311E+07 25.2747 1.00000
  1.995E+09 1.995E+09 3.608E+00 4.731E+00 9.343E+01 4.675E+02 5.656E+02 5.692E+02 2.352E+07 25.5049 1.00000
  2.239E+09 2.239E+09 3.624E+00 5.338E+00 1.049E+02 5.344E+02 6.446E+02 6.482E+02 2.392E+07 25.7352 1.00000
  2.512E+09 2.512E+09 3.640E+00 6.020E+00 1.177E+02 6.110E+02 7.347E+02 7.383E+02 2.431E+07 25.9654 1.00000
  2.818E+09 2.818E+09 3.656E+00 6.788E+00 1.321E+02 6.985E+02 8.374E+02 8.411E+02 2.470E+07 26.1957 1.00000
  3.162E+09 3.162E+09 3.672E+00 7.653E+00 1.483E+02 7.987E+02 9.546E+02 9.583E+02 2.509E+07 26.4260 1.00000
  3.548E+09 3.548E+09 3.688E+00 8.625E+00 1.664E+02 9.133E+02 1.088E+03 1.092E+03 2.547E+07 26.6562 1.00000
  3.981E+09 3.981E+09 3.705E+00 9.720E+00 1.867E+02 1.044E+03 1.241E+03 1.244E+03 2.584E+07 26.8865 1.00000
  4.467E+09 4.467E+09 3.721E+00 1.095E+01 2.096E+02 1.194E+03 1.415E+03 1.418E+03 2.620E+07 27.1167 1.00000
  5.012E+09 5.012E+09 3.737E+00 1.233E+01 2.352E+02 1.366E+03 1.613E+03 1.617E+03 2.657E+07 27.3470 1.00000
  5.623E+09 5.623E+09 3.754E+00 1.389E+01 2.639E+02 1.562E+03 1.840E+03 1.844E+03 2.692E+07 27.5772 1.00000
  6.310E+09 6.310E+09 3.771E+00 1.564E+01 2.962E+02 1.787E+03 2.098E+03 2.102E+03 2.727E+07 27.8075 1.00000
  7.079E+09 7.079E+09 3.787E+00 1.761E+01 3.323E+02 2.043E+03 2.393E+03 2.397E+03 2.761E+07 28.0378 1.00000
  7.943E+09 7.943E+09 3.804E+00 1.982E+01 3.729E+02 2.337E+03 2.730E+03 2.734E+03 2.795E+07 28.2680 1.00000
  8.913E+09 8.913E+09 3.821E+00 2.230E+01 4.185E+02 2.674E+03 3.115E+03 3.119E+03 2.828E+07 28.4983 1.00000
  1.000E+10 1.000E+10 3.838E+00 2.509E+01 4.696E+02 3.059E+03 3.554E+03 3.557E+03 2.861E+07 28.7285 1.00000
  1.122E+10 1.122E+10 3.855E+00 2.823E+01 5.269E+02 3.500E+03 4.055E+03 4.059E+03 2.893E+07 28.9588 1.00000
  1.259E+10 1.259E+10 3.873E+00 3.176E+01 5.913E+02 4.004E+03 4.627E+03 4.631E+03 2.925E+07 29.1891 1.00000
  1.413E+10 1.413E+10 3.890E+00 3.571E+01 6.634E+02 4.581E+03 5.280E+03 5.284E+03 2.956E+07 29.4193 1.00000
  1.585E+10 1.585E+10 3.907E+00 4.016E+01 7.444E+02 5.242E+03 6.026E+03 6.030E+03 2.987E+07 29.6496 1.00000
  1.778E+10 1.778E+10 3.925E+00 4.516E+01 8.353E+02 5.998E+03 6.879E+03 6.883E+03 3.017E+07 29.8798 1.00000
  1.995E+10 1.995E+10 3.942E+00 5.077E+01 9.373E+02 6.864E+03 7.852E+03 7.856E+03 3.046E+07 30.1101 1.00000
  2.239E+10 2.239E+10 3.960E+00 5.706E+01 1.052E+03 7.855E+03 8.964E+03 8.968E+03 3.075E+07 30.3404 1.00000
  2.512E+10 2.512E+10 3.978E+00 6.414E+01 1.180E+03 8.990E+03 1.023E+04 1.024E+04 3.104E+07 30.5706 1.00000
  2.818E+10 2.818E+10 3.996E+00 7.208E+01 1.324E+03 1.029E+04 1.169E+04 1.169E+04 3.132E+07 30.8009 1.00000
  3.162E+10 3.162E+10 4.014E+00 8.100E+01 1.486E+03 1.178E+04 1.334E+04 1.335E+04 3.160E+07 31.0311 1.00000
  3.548E+10 3.548E+10 4.032E+00 9.101E+01 1.667E+03 1.348E+04 1.524E+04 1.524E+04 3.187E+07 31.2614 1.00000
  3.981E+10 3.981E+10 4.050E+00 1.022E+02 1.870E+03 1.543E+04 1.740E+04 1.741E+04 3.213E+07 31.4916 1.00000
  4.467E+10 4.467E+10 4.068E+00 1.149E+02 2.099E+03 1.767E+04 1.988E+04 1.988E+04 3.240E+07 31.7219 1.00000
  5.012E+10 5.012E+10 4.087E+00 1.290E+02 2.355E+03 2.022E+04 2.271E+04 2.271E+04 3.265E+07 31.9522 1.00000
  5.623E+10 5.623E+10 4.105E+00 1.449E+02 2.642E+03 2.315E+04 2.594E+04 2.594E+04 3.291E+07 32.1824 1.00000
  6.310E+10 6.310E+10 4.124E+00 1.628E+02 2.964E+03 2.651E+04 2.964E+04 2.964E+04 3.315E+07 32.4127 1.00000
  7.079E+10 7.079E+10 4.143E+00 1.828E+02 3.326E+03 3.035E+04 3.386E+04 3.387E+04 3.340E+07 32.6429 1.00000
  7.943E+10 7.943E+10 4.162E+00 2.053E+02 3.732E+03 3.476E+04 3.869E+04 3.870E+04 3.364E+07 32.8732 1.00000
  8.913E+10 8.913E+10 4.181E+00 2.305E+02 4.187E+03 3.980E+04 4.422E+04 4.422E+04 3.387E+07 33.1035 1.00000
  1.000E+11 1.000E+11 4.200E+00 2.588E+02 4.698E+03 4.558E+04 5.054E+04 5.054E+04 3.410E+07 33.3337 1.00000
  1.122E+11 1.122E+11 4.219E+00 2.906E+02 5.271E+03 5.220E+04 5.776E+04 5.777E+04 3.433E+07 33.5640 1.00000
  1.259E+11 1.259E+11 4.238E+00 3.263E+02 5.914E+03 5.978E+04 6.603E+04 6.603E+04 3.455E+07 33.7942 1.00000
  1.413E+11 1.413E+11 4.258E+00 3.663E+02 6.636E+03 6.848E+04 7.548E+04 7.548E+04 3.477E+07 34.0245 1.00000
  1.585E+11 1.585E+11 4.277E+00 4.112E+02 7.445E+03 7.843E+04 8.629E+04 8.629E+04 3.498E+07 34.2547 1.00000
  1.778E+11 1.778E+11 4.297E+00 4.616E+02 8.353E+03 8.984E+04 9.866E+04 9.866E+04 3.519E+07 34.4850 1.00000
  1.995E+11 1.995E+11 4.316E+00 5.182E+02 9.372E+03 1.029E+05 1.128E+05 1.128E+05 3.540E+07 34.7153 1.00000
  2.239E+11 2.239E+11 4.336E+00 5.816E+02 1.052E+04 1.179E+05 1.290E+05 1.290E+05 3.560E+07 34.9455 1.00000
  2.512E+11 2.512E+11 4.356E+00 6.528E+02 1.180E+04 1.351E+05 1.475E+05 1.475E+05 3.580E+07 35.1758 1.00000
  2.818E+11 2.818E+11 4.376E+00 7.328E+02 1.324E+04 1.548E+05 1.687E+05 1.687E+05 3.599E+07 35.4060 1.00000
  3.162E+11 3.162E+11 4.396E+00 8.224E+02 1.485E+04 1.773E+05 1.930E+05 1.930E+05 3.618E+07 35.6363 1.00000
  3.548E+11 3.548E+11 4.417E+00 9.231E+02 1.666E+04 2.032E+05 2.208E+05 2.208E+05 3.637E+07 35.8666 1.00000
  3.981E+11 3.981E+11 4.437E+00 1.036E+03 1.870E+04 2.328E+05 2.526E+05 2.526E+05 3.656E+07 36.0968 1.00000
  4.467E+11 4.467E+11 4.457E+00 1.163E+03 2.098E+04 2.668E+05 2.890E+05 2.890E+05 3.674E+07 36.3271 1.00000
  5.012E+11 5.012E+11 4.478E+00 1.305E+03 2.354E+04 3.058E+05 3.306E+05 3.306E+05 3.691E+07 36.5573 1.00000
  5.623E+11 5.623E+11 4.499E+00 1.464E+03 2.641E+04 3.504E+05 3.783E+05 3.783E+05 3.709E+07 36.7876 1.00000
  6.310E+11 6.310E+11 4.520E+00 1.643E+03 2.963E+04 4.016E+05 4.329E+05 4.329E+05 3.726E+07 37.0178 1.00000
  7.079E+11 7.079E+11 4.541E+00 1.844E+03 3.324E+04 4.604E+05 4.955E+05 4.955E+05 3.742E+07 37.2481 1.00000
  7.943E+11 7.943E+11 4.562E+00 2.070E+03 3.730E+04 5.277E+05 5.671E+05 5.671E+05 3.759E+07 37.4784 1.00000
  8.913E+11 8.913E+11 4.583E+00 2.322E+03 4.185E+04 6.049E+05 6.491E+05 6.491E+05 3.775E+07 37.7086 1.00000
  1.000E+12 1.000E+12 4.604E+00 2.606E+03 4.695E+04 6.934E+05 7.430E+05 7.430E+05 3.790E+07 37.9389 1.00000
  1.122E+12 1.122E+12 4.626E+00 2.924E+03 5.268E+04 7.950E+05 8.506E+05 8.506E+05 3.806E+07 38.1691 1.00000
  1.259E+12 1.259E+12 4.647E+00 3.282E+03 5.911E+04 9.114E+05 9.738E+05 9.738E+05 3.821E+07 38.3994 1.00000
  1.413E+12 1.413E+12 4.669E+00 3.682E+03 6.632E+04 1.045E+06 1.115E+06 1.115E+06 3.836E+07 38.6297 1.00000
  1.585E+12 1.585E+12 4.691E+00 4.132E+03 7.441E+04 1.198E+06 1.277E+06 1.277E+06 3.850E+07 38.8599 1.00000
  1.778E+12 1.778E+12 4.713E+00 4.637E+03 8.348E+04 1.374E+06 1.462E+06 1.462E+06 3.864E+07 39.0902 1.00000
  1.995E+12 1.995E+12 4.735E+00 5.203E+03 9.366E+04 1.576E+06 1.674E+06 1.674E+06 3.878E+07 39.3204 1.00000
  2.239E+12 2.239E+12 4.757E+00 5.838E+03 1.051E+05 1.807E+06 1.918E+06 1.918E+06 3.892E+07 39.5507 1.00000
  2.512E+12 2.512E+12 4.779E+00 6.551E+03 1.179E+05 2.072E+06 2.197E+06 2.197E+06 3.905E+07 39.7809 1.00000
  2.818E+12 2.818E+12 4.801E+00 7.351E+03 1.323E+05 2.376E+06 2.516E+06 2.516E+06 3.918E+07 40.0112 1.00000
  3.162E+12 3.162E+12 4.824E+00 8.248E+03 1.484E+05 2.726E+06 2.882E+06 2.882E+06 3.931E+07 40.2415 1.00000
  3.548E+12 3.548E+12 4.847E+00 9.255E+03 1.665E+05 3.126E+06 3.302E+06 3.302E+06 3.943E+07 40.4717 1.00000
  3.981E+12 3.981E+12 4.869E+00 1.038E+04 1.868E+05 3.586E+06 3.783E+06 3.783E+06 3.956E+07 40.7020 1.00000
  4.467E+12 4.467E+12 4.892E+00 1.165E+04 2.096E+05 4.114E+06 4.335E+06 4.335E+06 3.968E+07 40.9322 1.00000
  5.012E+12 5.012E+12 4.915E+00 1.307E+04 2.352E+05 4.719E+06 4.967E+06 4.967E+06 3.980E+07 41.1625 1.00000
  5.623E+12 5.623E+12 4.938E+00 1.467E+04 2.639E+05 5.414E+06 5.693E+06 5.693E+06 3.991E+07 41.3928 1.00000
  6.310E+12 6.310E+12 4.962E+00 1.646E+04 2.961E+05 6.211E+06 6.524E+06 6.524E+06 4.002E+07 41.6230 1.00000
  7.079E+12 7.079E+12 4.985E+00 1.847E+04 3.322E+05 7.127E+06 7.477E+06 7.477E+06 4.013E+07 41.8533 1.00000
  7.943E+12 7.943E+12 5.009E+00 2.072E+04 3.727E+05 8.177E+06 8.571E+06 8.571E+06 4.024E+07 42.0835 1.00000
  8.913E+12 8.913E+12 5.032E+00 2.325E+04 4.181E+05 9.383E+06 9.824E+06 9.824E+06 4.035E+07 42.3138 1.00000
  1.000E+13 1.000E+13 5.056E+00 2.609E+04 4.691E+05 1.077E+07 1.126E+07 1.126E+07 4.045E+07 42.5441 1.00000
  1.122E+13 1.122E+13 5.080E+00 2.927E+04 5.264E+05 1.236E+07 1.291E+07 1.291E+07 4.055E+07 42.7743 1.00000
  1.259E+13 1.259E+13 5.104E+00 3.285E+04 5.905E+05 1.418E+07 1.480E+07 1.480E+07 4.065E+07 43.0046 1.00000
  1.413E+13 1.413E+13 5.128E+00 3.685E+04 6.626E+05 1.627E+07 1.697E+07 1.697E+07 4.075E+07 43.2348 1.00000
  1.585E+13 1.585E+13 5.153E+00 4.135E+04 7.434E+05 1.868E+07 1.946E+07 1.946E+07 4.084E+07 43.4651 1.00000
  1.778E+13 1.778E+13 5.177E+00 4.640E+04 8.340E+05 2.144E+07 2.232E+07 2.232E+07 4.094E+07 43.6953 1.00000
  1.995E+13 1.995E+13 5.202E+00 5.206E+04 9.358E+05 2.461E+07 2.560E+07 2.560E+07 4.103E+07 43.9256 1.00000
  2.239E+13 2.239E+13 5.226E+00 5.841E+04 1.050E+06 2.825E+07 2.936E+07 2.936E+07 4.112E+07 44.1559 1.00000
  2.512E+13 2.512E+13 5.251E+00 6.554E+04 1.178E+06 3.243E+07 3.367E+07 3.367E+07 4.120E+07 44.3861 1.00000
  2.818E+13 2.818E+13 5.276E+00 7.354E+04 1.322E+06 3.723E+07 3.862E+07 3.862E+07 4.129E+07 44.6164 1.00000
  3.162E+13 3.162E+13 5.301E+00 8.251E+04 1.483E+06 4.274E+07 4.431E+07 4.431E+07 4.137E+07 44.8466 1.00000
  3.548E+13 3.548E+13 5.327E+00 9.258E+04 1.664E+06 4.907E+07 5.083E+07 5.083E+07 4.145E+07 45.0769 1.00000
  3.981E+13 3.981E+13 5.352E+00 1.039E+05 1.866E+06 5.635E+07 5.832E+07 5.832E+07 4.153E+07 45.3072 1.00000
  4.467E+13 4.467E+13 5.377E+00 1.166E+05 2.094E+06 6.470E+07 6.691E+07 6.691E+07 4.161E+07 45.5374 1.00000
  5.012E+13 5.012E+13 5.403E+00 1.308E+05 2.349E+06 7.429E+07 7.677E+07 7.677E+07 4.169E+07 45.7677 1.00000
  5.623E+13 5.623E+13 5.429E+00 1.467E+05 2.636E+06 8.531E+07 8.809E+07 8.809E+07 4.176E+07 45.9979 1.00000
  6.310E+13 6.310E+13 5.455E+00 1.646E+05 2.957E+06 9.797E+07 1.011E+08 1.011E+08 4.184E+07 46.2282 1.00000
  7.079E+13 7.079E+13 5.481E+00 1.847E+05 3.318E+06 1.125E+08 1.160E+08 1.160E+08 4.191E+07 46.4584 1.00000
  7.943E+13 7.943E+13 5.507E+00 2.073E+05 3.723E+06 1.292E+08 1.332E+08 1.332E+08 4.198E+07 46.6887 1.00000
  8.913E+13 8.913E+13 5.533E+00 2.326E+05 4.177E+06 1.484E+08 1.528E+08 1.528E+08 4.204E+07 46.9190 1.00000
