 Incident particle is a Tau with M = 1776.82000 MeV
 Index = 0: Lithium
      Absorber with <Z/A> = 0.43215
 Sternheimer coef:  a     k=m_s   x_0    x_1    I[eV]   Cbar  delta0
                 0.9514  2.4993  0.1304  1.6397   40.0  3.1221 0.14

 *** Table generated with PUMAS v1.00 ***

      T         p     Ionization  brems     pair     photonuc  Radloss    dE/dx   CSDA Range  delta   beta
    [MeV]    [MeV/c]  -----------------------[MeV cm^2/g]------------------------  [g/cm^2]
  1.000E+05 1.018E+05 1.968E+00 5.424E-05 8.551E-04 8.534E-03 9.444E-03 1.977E+00 2.529E+04  4.9735 0.99985
  1.122E+05 1.140E+05 1.983E+00 6.261E-05 1.042E-03 9.652E-03 1.076E-02 1.994E+00 3.143E+04  5.2000 0.99988
  1.259E+05 1.277E+05 1.999E+00 7.225E-05 1.263E-03 1.086E-02 1.219E-02 2.011E+00 3.827E+04  5.4269 0.99990
  1.413E+05 1.430E+05 2.014E+00 8.333E-05 1.524E-03 1.222E-02 1.382E-02 2.028E+00 4.588E+04  5.6542 0.99992
  1.585E+05 1.603E+05 2.030E+00 9.608E-05 1.832E-03 1.374E-02 1.567E-02 2.046E+00 5.434E+04  5.8818 0.99994
  1.778E+05 1.796E+05 2.046E+00 1.107E-04 2.194E-03 1.544E-02 1.775E-02 2.063E+00 6.375E+04  6.1097 0.99995
  1.995E+05 2.013E+05 2.061E+00 1.276E-04 2.619E-03 1.739E-02 2.014E-02 2.081E+00 7.422E+04  6.3378 0.99996
  2.239E+05 2.256E+05 2.077E+00 1.469E-04 3.118E-03 1.952E-02 2.278E-02 2.100E+00 8.587E+04  6.5661 0.99997
  2.512E+05 2.530E+05 2.093E+00 1.691E-04 3.701E-03 2.191E-02 2.578E-02 2.118E+00 9.882E+04  6.7947 0.99998
  2.818E+05 2.836E+05 2.108E+00 1.946E-04 4.382E-03 2.461E-02 2.918E-02 2.138E+00 1.132E+05  7.0234 0.99998
  3.162E+05 3.180E+05 2.124E+00 2.239E-04 5.175E-03 2.766E-02 3.306E-02 2.157E+00 1.292E+05  7.2523 0.99998
  3.548E+05 3.566E+05 2.140E+00 2.575E-04 6.098E-03 3.109E-02 3.744E-02 2.177E+00 1.470E+05  7.4814 0.99999
  3.981E+05 3.999E+05 2.156E+00 2.961E-04 7.170E-03 3.492E-02 4.239E-02 2.198E+00 1.668E+05  7.7106 0.99999
  4.467E+05 4.485E+05 2.171E+00 3.403E-04 8.414E-03 3.922E-02 4.797E-02 2.219E+00 1.888E+05  7.9399 0.99999
  5.012E+05 5.030E+05 2.187E+00 3.911E-04 9.854E-03 4.407E-02 5.431E-02 2.241E+00 2.133E+05  8.1693 0.99999
  5.623E+05 5.641E+05 2.202E+00 4.492E-04 1.152E-02 4.933E-02 6.130E-02 2.264E+00 2.404E+05  8.3988 1.00000
  6.310E+05 6.327E+05 2.218E+00 5.159E-04 1.344E-02 5.526E-02 6.922E-02 2.287E+00 2.706E+05  8.6283 1.00000
  7.079E+05 7.097E+05 2.234E+00 5.924E-04 1.566E-02 6.196E-02 7.822E-02 2.312E+00 3.041E+05  8.8580 1.00000
  7.943E+05 7.961E+05 2.249E+00 6.800E-04 1.822E-02 6.953E-02 8.843E-02 2.337E+00 3.412E+05  9.0877 1.00000
  8.913E+05 8.930E+05 2.264E+00 7.805E-04 2.117E-02 7.810E-02 1.000E-01 2.365E+00 3.824E+05  9.3175 1.00000
  1.000E+06 1.002E+06 2.280E+00 8.956E-04 2.455E-02 8.779E-02 1.132E-01 2.393E+00 4.282E+05  9.5473 1.00000
  1.122E+06 1.124E+06 2.295E+00 1.027E-03 2.844E-02 9.877E-02 1.282E-01 2.423E+00 4.788E+05  9.7772 1.00000
  1.259E+06 1.261E+06 2.310E+00 1.179E-03 3.290E-02 1.112E-01 1.453E-01 2.456E+00 5.350E+05 10.0071 1.00000
  1.413E+06 1.414E+06 2.325E+00 1.352E-03 3.800E-02 1.253E-01 1.647E-01 2.490E+00 5.971E+05 10.2370 1.00000
  1.585E+06 1.587E+06 2.340E+00 1.550E-03 4.385E-02 1.413E-01 1.867E-01 2.527E+00 6.658E+05 10.4670 1.00000
  1.778E+06 1.780E+06 2.355E+00 1.777E-03 5.054E-02 1.595E-01 2.118E-01 2.567E+00 7.417E+05 10.6970 1.00000
  1.995E+06 1.997E+06 2.370E+00 2.037E-03 5.818E-02 1.801E-01 2.403E-01 2.610E+00 8.256E+05 10.9271 1.00000
  2.239E+06 2.240E+06 2.385E+00 2.334E-03 6.690E-02 2.035E-01 2.728E-01 2.657E+00 9.180E+05 11.1572 1.00000
  2.512E+06 2.514E+06 2.399E+00 2.675E-03 7.685E-02 2.301E-01 3.097E-01 2.709E+00 1.020E+06 11.3872 1.00000
  2.818E+06 2.820E+06 2.414E+00 3.064E-03 8.818E-02 2.604E-01 3.516E-01 2.765E+00 1.132E+06 11.6173 1.00000
  3.162E+06 3.164E+06 2.428E+00 3.510E-03 1.011E-01 2.948E-01 3.994E-01 2.827E+00 1.255E+06 11.8475 1.00000
  3.548E+06 3.550E+06 2.442E+00 4.020E-03 1.158E-01 3.340E-01 4.538E-01 2.896E+00 1.390E+06 12.0776 1.00000
  3.981E+06 3.983E+06 2.456E+00 4.603E-03 1.324E-01 3.786E-01 5.156E-01 2.972E+00 1.537E+06 12.3078 1.00000
  4.467E+06 4.469E+06 2.470E+00 5.270E-03 1.514E-01 4.293E-01 5.859E-01 3.056E+00 1.699E+06 12.5379 1.00000
  5.012E+06 5.014E+06 2.484E+00 6.032E-03 1.729E-01 4.870E-01 6.659E-01 3.149E+00 1.874E+06 12.7681 1.00000
  5.623E+06 5.625E+06 2.497E+00 6.903E-03 1.973E-01 5.528E-01 7.570E-01 3.254E+00 2.065E+06 12.9983 1.00000
  6.310E+06 6.311E+06 2.511E+00 7.898E-03 2.249E-01 6.277E-01 8.605E-01 3.371E+00 2.272E+06 13.2285 1.00000
  7.079E+06 7.081E+06 2.524E+00 9.034E-03 2.562E-01 7.131E-01 9.783E-01 3.502E+00 2.497E+06 13.4587 1.00000
  7.943E+06 7.945E+06 2.537E+00 1.033E-02 2.916E-01 8.103E-01 1.112E+00 3.649E+00 2.738E+06 13.6889 1.00000
  8.913E+06 8.914E+06 2.550E+00 1.181E-02 3.317E-01 9.212E-01 1.265E+00 3.815E+00 2.998E+06 13.9191 1.00000
  1.000E+07 1.000E+07 2.563E+00 1.350E-02 3.771E-01 1.048E+00 1.438E+00 4.001E+00 3.277E+06 14.1493 1.00000
  1.122E+07 1.122E+07 2.576E+00 1.543E-02 4.283E-01 1.192E+00 1.635E+00 4.211E+00 3.574E+06 14.3795 1.00000
  1.259E+07 1.259E+07 2.589E+00 1.763E-02 4.862E-01 1.356E+00 1.860E+00 4.448E+00 3.890E+06 14.6097 1.00000
  1.413E+07 1.413E+07 2.601E+00 2.013E-02 5.516E-01 1.543E+00 2.115E+00 4.716E+00 4.226E+06 14.8400 1.00000
  1.585E+07 1.585E+07 2.614E+00 2.299E-02 6.254E-01 1.757E+00 2.405E+00 5.019E+00 4.580E+06 15.0702 1.00000
  1.778E+07 1.778E+07 2.626E+00 2.624E-02 7.086E-01 2.000E+00 2.735E+00 5.361E+00 4.953E+06 15.3004 1.00000
  1.995E+07 1.995E+07 2.638E+00 2.995E-02 8.025E-01 2.278E+00 3.111E+00 5.749E+00 5.344E+06 15.5307 1.00000
  2.239E+07 2.239E+07 2.651E+00 3.417E-02 9.084E-01 2.596E+00 3.538E+00 6.189E+00 5.753E+06 15.7609 1.00000
  2.512E+07 2.512E+07 2.663E+00 3.897E-02 1.028E+00 2.957E+00 4.024E+00 6.687E+00 6.178E+06 15.9911 1.00000
  2.818E+07 2.819E+07 2.675E+00 4.444E-02 1.162E+00 3.370E+00 4.577E+00 7.252E+00 6.618E+06 16.2214 1.00000
  3.162E+07 3.162E+07 2.687E+00 5.066E-02 1.313E+00 3.841E+00 5.205E+00 7.893E+00 7.073E+06 16.4516 1.00000
  3.548E+07 3.548E+07 2.699E+00 5.772E-02 1.484E+00 4.379E+00 5.921E+00 8.620E+00 7.541E+06 16.6819 1.00000
  3.981E+07 3.981E+07 2.711E+00 6.576E-02 1.676E+00 4.993E+00 6.734E+00 9.445E+00 8.022E+06 16.9121 1.00000
  4.467E+07 4.467E+07 2.723E+00 7.490E-02 1.892E+00 5.693E+00 7.660E+00 1.038E+01 8.513E+06 17.1424 1.00000
  5.012E+07 5.012E+07 2.735E+00 8.527E-02 2.134E+00 6.493E+00 8.713E+00 1.145E+01 9.013E+06 17.3726 1.00000
  5.623E+07 5.624E+07 2.747E+00 9.704E-02 2.407E+00 7.406E+00 9.910E+00 1.266E+01 9.522E+06 17.6029 1.00000
  6.310E+07 6.310E+07 2.759E+00 1.104E-01 2.715E+00 8.448E+00 1.127E+01 1.403E+01 1.004E+07 17.8331 1.00000
  7.079E+07 7.080E+07 2.771E+00 1.256E-01 3.060E+00 9.638E+00 1.282E+01 1.559E+01 1.056E+07 18.0634 1.00000
  7.943E+07 7.943E+07 2.783E+00 1.428E-01 3.448E+00 1.100E+01 1.459E+01 1.737E+01 1.108E+07 18.2936 1.00000
  8.913E+07 8.913E+07 2.795E+00 1.624E-01 3.884E+00 1.255E+01 1.659E+01 1.939E+01 1.161E+07 18.5239 1.00000
  1.000E+08 1.000E+08 2.807E+00 1.845E-01 4.374E+00 1.432E+01 1.888E+01 2.169E+01 1.214E+07 18.7541 1.00000
  1.122E+08 1.122E+08 2.819E+00 2.096E-01 4.925E+00 1.634E+01 2.148E+01 2.430E+01 1.268E+07 18.9844 1.00000
  1.259E+08 1.259E+08 2.832E+00 2.380E-01 5.543E+00 1.865E+01 2.444E+01 2.727E+01 1.321E+07 19.2146 1.00000
  1.413E+08 1.413E+08 2.844E+00 2.703E-01 6.238E+00 2.129E+01 2.780E+01 3.065E+01 1.374E+07 19.4449 1.00000
  1.585E+08 1.585E+08 2.856E+00 3.068E-01 7.018E+00 2.431E+01 3.163E+01 3.449E+01 1.427E+07 19.6752 1.00000
  1.778E+08 1.778E+08 2.868E+00 3.481E-01 7.894E+00 2.775E+01 3.600E+01 3.886E+01 1.480E+07 19.9054 1.00000
  1.995E+08 1.995E+08 2.880E+00 3.948E-01 8.877E+00 3.169E+01 4.096E+01 4.384E+01 1.533E+07 20.1357 1.00000
  2.239E+08 2.239E+08 2.893E+00 4.477E-01 9.982E+00 3.618E+01 4.661E+01 4.951E+01 1.585E+07 20.3659 1.00000
  2.512E+08 2.512E+08 2.905E+00 5.076E-01 1.122E+01 4.132E+01 5.305E+01 5.595E+01 1.637E+07 20.5962 1.00000
  2.818E+08 2.818E+08 2.917E+00 5.752E-01 1.261E+01 4.719E+01 6.037E+01 6.329E+01 1.689E+07 20.8264 1.00000
  3.162E+08 3.162E+08 2.930E+00 6.517E-01 1.418E+01 5.389E+01 6.872E+01 7.165E+01 1.740E+07 21.0567 1.00000
  3.548E+08 3.548E+08 2.942E+00 7.381E-01 1.593E+01 6.155E+01 7.822E+01 8.116E+01 1.791E+07 21.2870 1.00000
  3.981E+08 3.981E+08 2.955E+00 8.357E-01 1.790E+01 7.031E+01 8.904E+01 9.199E+01 1.841E+07 21.5172 1.00000
  4.467E+08 4.467E+08 2.968E+00 9.460E-01 2.011E+01 8.031E+01 1.014E+02 1.043E+02 1.891E+07 21.7475 1.00000
  5.012E+08 5.012E+08 2.980E+00 1.070E+00 2.259E+01 9.174E+01 1.154E+02 1.184E+02 1.940E+07 21.9777 1.00000
  5.623E+08 5.623E+08 2.993E+00 1.211E+00 2.537E+01 1.048E+02 1.314E+02 1.344E+02 1.988E+07 22.2080 1.00000
  6.310E+08 6.310E+08 3.006E+00 1.370E+00 2.849E+01 1.197E+02 1.496E+02 1.526E+02 2.036E+07 22.4382 1.00000
  7.079E+08 7.079E+08 3.019E+00 1.549E+00 3.200E+01 1.368E+02 1.704E+02 1.734E+02 2.084E+07 22.6685 1.00000
  7.943E+08 7.943E+08 3.032E+00 1.750E+00 3.593E+01 1.563E+02 1.940E+02 1.970E+02 2.131E+07 22.8988 1.00000
  8.913E+08 8.913E+08 3.045E+00 1.978E+00 4.035E+01 1.786E+02 2.210E+02 2.240E+02 2.177E+07 23.1290 1.00000
  1.000E+09 1.000E+09 3.058E+00 2.235E+00 4.530E+01 2.041E+02 2.517E+02 2.547E+02 2.222E+07 23.3593 1.00000
  1.122E+09 1.122E+09 3.071E+00 2.524E+00 5.086E+01 2.333E+02 2.867E+02 2.898E+02 2.267E+07 23.5895 1.00000
  1.259E+09 1.259E+09 3.084E+00 2.850E+00 5.710E+01 2.666E+02 3.266E+02 3.297E+02 2.312E+07 23.8198 1.00000
  1.413E+09 1.413E+09 3.098E+00 3.218E+00 6.410E+01 3.048E+02 3.721E+02 3.752E+02 2.356E+07 24.0500 1.00000
  1.585E+09 1.585E+09 3.111E+00 3.632E+00 7.195E+01 3.483E+02 4.239E+02 4.270E+02 2.399E+07 24.2803 1.00000
  1.778E+09 1.778E+09 3.125E+00 4.098E+00 8.077E+01 3.982E+02 4.830E+02 4.862E+02 2.441E+07 24.5106 1.00000
  1.995E+09 1.995E+09 3.138E+00 4.622E+00 9.066E+01 4.552E+02 5.505E+02 5.536E+02 2.483E+07 24.7408 1.00000
  2.239E+09 2.239E+09 3.152E+00 5.213E+00 1.018E+02 5.204E+02 6.273E+02 6.305E+02 2.524E+07 24.9711 1.00000
  2.512E+09 2.512E+09 3.165E+00 5.878E+00 1.142E+02 5.949E+02 7.150E+02 7.182E+02 2.565E+07 25.2013 1.00000
  2.818E+09 2.818E+09 3.179E+00 6.626E+00 1.282E+02 6.802E+02 8.150E+02 8.182E+02 2.605E+07 25.4316 1.00000
  3.162E+09 3.162E+09 3.193E+00 7.468E+00 1.439E+02 7.777E+02 9.290E+02 9.322E+02 2.645E+07 25.6619 1.00000
  3.548E+09 3.548E+09 3.207E+00 8.415E+00 1.614E+02 8.893E+02 1.059E+03 1.062E+03 2.684E+07 25.8921 1.00000
  3.981E+09 3.981E+09 3.221E+00 9.481E+00 1.812E+02 1.017E+03 1.208E+03 1.211E+03 2.722E+07 26.1224 1.00000
  4.467E+09 4.467E+09 3.235E+00 1.068E+01 2.033E+02 1.163E+03 1.377E+03 1.380E+03 2.759E+07 26.3526 1.00000
  5.012E+09 5.012E+09 3.249E+00 1.203E+01 2.282E+02 1.330E+03 1.570E+03 1.573E+03 2.797E+07 26.5829 1.00000
  5.623E+09 5.623E+09 3.263E+00 1.354E+01 2.561E+02 1.521E+03 1.791E+03 1.794E+03 2.833E+07 26.8131 1.00000
  6.310E+09 6.310E+09 3.278E+00 1.524E+01 2.873E+02 1.740E+03 2.042E+03 2.045E+03 2.869E+07 27.0434 1.00000
  7.079E+09 7.079E+09 3.292E+00 1.716E+01 3.224E+02 1.990E+03 2.329E+03 2.333E+03 2.904E+07 27.2737 1.00000
  7.943E+09 7.943E+09 3.307E+00 1.931E+01 3.618E+02 2.276E+03 2.657E+03 2.661E+03 2.939E+07 27.5039 1.00000
  8.913E+09 8.913E+09 3.321E+00 2.172E+01 4.060E+02 2.604E+03 3.031E+03 3.035E+03 2.973E+07 27.7342 1.00000
  1.000E+10 1.000E+10 3.336E+00 2.444E+01 4.556E+02 2.979E+03 3.459E+03 3.462E+03 3.007E+07 27.9644 1.00000
  1.122E+10 1.122E+10 3.350E+00 2.749E+01 5.112E+02 3.408E+03 3.946E+03 3.950E+03 3.040E+07 28.1947 1.00000
  1.259E+10 1.259E+10 3.365E+00 3.092E+01 5.736E+02 3.899E+03 4.503E+03 4.507E+03 3.072E+07 28.4250 1.00000
  1.413E+10 1.413E+10 3.380E+00 3.477E+01 6.437E+02 4.461E+03 5.139E+03 5.143E+03 3.104E+07 28.6552 1.00000
  1.585E+10 1.585E+10 3.395E+00 3.909E+01 7.222E+02 5.104E+03 5.865E+03 5.869E+03 3.136E+07 28.8855 1.00000
  1.778E+10 1.778E+10 3.410E+00 4.394E+01 8.104E+02 5.841E+03 6.695E+03 6.698E+03 3.167E+07 29.1157 1.00000
  1.995E+10 1.995E+10 3.425E+00 4.940E+01 9.093E+02 6.684E+03 7.642E+03 7.646E+03 3.197E+07 29.3460 1.00000
  2.239E+10 2.239E+10 3.440E+00 5.552E+01 1.020E+03 7.649E+03 8.725E+03 8.728E+03 3.227E+07 29.5763 1.00000
  2.512E+10 2.512E+10 3.456E+00 6.239E+01 1.145E+03 8.754E+03 9.961E+03 9.965E+03 3.256E+07 29.8065 1.00000
  2.818E+10 2.818E+10 3.471E+00 7.011E+01 1.285E+03 1.002E+04 1.137E+04 1.138E+04 3.285E+07 30.0368 1.00000
  3.162E+10 3.162E+10 3.487E+00 7.878E+01 1.441E+03 1.147E+04 1.299E+04 1.299E+04 3.314E+07 30.2670 1.00000
  3.548E+10 3.548E+10 3.502E+00 8.851E+01 1.617E+03 1.313E+04 1.483E+04 1.484E+04 3.341E+07 30.4973 1.00000
  3.981E+10 3.981E+10 3.518E+00 9.943E+01 1.815E+03 1.503E+04 1.694E+04 1.694E+04 3.369E+07 30.7275 1.00000
  4.467E+10 4.467E+10 3.534E+00 1.117E+02 2.036E+03 1.720E+04 1.935E+04 1.935E+04 3.396E+07 30.9578 1.00000
  5.012E+10 5.012E+10 3.549E+00 1.255E+02 2.284E+03 1.969E+04 2.210E+04 2.211E+04 3.422E+07 31.1881 1.00000
  5.623E+10 5.623E+10 3.565E+00 1.409E+02 2.563E+03 2.255E+04 2.525E+04 2.525E+04 3.448E+07 31.4183 1.00000
  6.310E+10 6.310E+10 3.581E+00 1.582E+02 2.876E+03 2.581E+04 2.885E+04 2.885E+04 3.473E+07 31.6486 1.00000
  7.079E+10 7.079E+10 3.597E+00 1.777E+02 3.227E+03 2.956E+04 3.296E+04 3.296E+04 3.498E+07 31.8788 1.00000
  7.943E+10 7.943E+10 3.614E+00 1.995E+02 3.620E+03 3.384E+04 3.766E+04 3.767E+04 3.523E+07 32.1091 1.00000
  8.913E+10 8.913E+10 3.630E+00 2.241E+02 4.062E+03 3.876E+04 4.304E+04 4.305E+04 3.547E+07 32.3394 1.00000
  1.000E+11 1.000E+11 3.646E+00 2.516E+02 4.558E+03 4.438E+04 4.919E+04 4.920E+04 3.571E+07 32.5696 1.00000
  1.122E+11 1.122E+11 3.663E+00 2.824E+02 5.114E+03 5.083E+04 5.622E+04 5.623E+04 3.594E+07 32.7999 1.00000
  1.259E+11 1.259E+11 3.679E+00 3.171E+02 5.738E+03 5.821E+04 6.427E+04 6.427E+04 3.617E+07 33.0301 1.00000
  1.413E+11 1.413E+11 3.696E+00 3.560E+02 6.438E+03 6.668E+04 7.347E+04 7.347E+04 3.639E+07 33.2604 1.00000
  1.585E+11 1.585E+11 3.713E+00 3.996E+02 7.223E+03 7.637E+04 8.400E+04 8.400E+04 3.661E+07 33.4906 1.00000
  1.778E+11 1.778E+11 3.730E+00 4.486E+02 8.104E+03 8.748E+04 9.604E+04 9.604E+04 3.683E+07 33.7209 1.00000
  1.995E+11 1.995E+11 3.746E+00 5.035E+02 9.093E+03 1.002E+05 1.098E+05 1.098E+05 3.704E+07 33.9512 1.00000
  2.239E+11 2.239E+11 3.764E+00 5.652E+02 1.020E+04 1.148E+05 1.256E+05 1.256E+05 3.725E+07 34.1814 1.00000
  2.512E+11 2.512E+11 3.781E+00 6.344E+02 1.145E+04 1.315E+05 1.436E+05 1.436E+05 3.745E+07 34.4117 1.00000
  2.818E+11 2.818E+11 3.798E+00 7.120E+02 1.284E+04 1.507E+05 1.643E+05 1.643E+05 3.765E+07 34.6419 1.00000
  3.162E+11 3.162E+11 3.815E+00 7.991E+02 1.441E+04 1.727E+05 1.879E+05 1.879E+05 3.785E+07 34.8722 1.00000
  3.548E+11 3.548E+11 3.833E+00 8.969E+02 1.617E+04 1.978E+05 2.149E+05 2.149E+05 3.804E+07 35.1025 1.00000
  3.981E+11 3.981E+11 3.850E+00 1.007E+03 1.814E+04 2.267E+05 2.459E+05 2.459E+05 3.823E+07 35.3327 1.00000
  4.467E+11 4.467E+11 3.868E+00 1.130E+03 2.035E+04 2.598E+05 2.813E+05 2.813E+05 3.841E+07 35.5630 1.00000
  5.012E+11 5.012E+11 3.885E+00 1.268E+03 2.283E+04 2.977E+05 3.218E+05 3.218E+05 3.860E+07 35.7932 1.00000
  5.623E+11 5.623E+11 3.903E+00 1.423E+03 2.562E+04 3.412E+05 3.683E+05 3.683E+05 3.877E+07 36.0235 1.00000
  6.310E+11 6.310E+11 3.921E+00 1.597E+03 2.875E+04 3.911E+05 4.214E+05 4.214E+05 3.895E+07 36.2537 1.00000
  7.079E+11 7.079E+11 3.939E+00 1.792E+03 3.225E+04 4.483E+05 4.823E+05 4.823E+05 3.912E+07 36.4840 1.00000
  7.943E+11 7.943E+11 3.957E+00 2.011E+03 3.619E+04 5.138E+05 5.520E+05 5.520E+05 3.929E+07 36.7143 1.00000
  8.913E+11 8.913E+11 3.975E+00 2.256E+03 4.060E+04 5.890E+05 6.319E+05 6.319E+05 3.945E+07 36.9445 1.00000
  1.000E+12 1.000E+12 3.994E+00 2.532E+03 4.555E+04 6.752E+05 7.233E+05 7.233E+05 3.961E+07 37.1748 1.00000
  1.122E+12 1.122E+12 4.012E+00 2.841E+03 5.111E+04 7.741E+05 8.281E+05 8.281E+05 3.977E+07 37.4050 1.00000
  1.259E+12 1.259E+12 4.031E+00 3.188E+03 5.734E+04 8.875E+05 9.480E+05 9.480E+05 3.993E+07 37.6353 1.00000
  1.413E+12 1.413E+12 4.049E+00 3.578E+03 6.434E+04 1.018E+06 1.085E+06 1.085E+06 4.008E+07 37.8656 1.00000
  1.585E+12 1.585E+12 4.068E+00 4.014E+03 7.218E+04 1.167E+06 1.243E+06 1.243E+06 4.023E+07 38.0958 1.00000
  1.778E+12 1.778E+12 4.087E+00 4.505E+03 8.099E+04 1.338E+06 1.423E+06 1.423E+06 4.037E+07 38.3261 1.00000
  1.995E+12 1.995E+12 4.106E+00 5.055E+03 9.087E+04 1.534E+06 1.630E+06 1.630E+06 4.052E+07 38.5563 1.00000
  2.239E+12 2.239E+12 4.125E+00 5.672E+03 1.020E+05 1.759E+06 1.867E+06 1.867E+06 4.066E+07 38.7866 1.00000
  2.512E+12 2.512E+12 4.144E+00 6.364E+03 1.144E+05 2.018E+06 2.138E+06 2.138E+06 4.079E+07 39.0168 1.00000
  2.818E+12 2.818E+12 4.163E+00 7.141E+03 1.283E+05 2.314E+06 2.449E+06 2.449E+06 4.093E+07 39.2471 1.00000
  3.162E+12 3.162E+12 4.183E+00 8.013E+03 1.440E+05 2.654E+06 2.806E+06 2.806E+06 4.106E+07 39.4774 1.00000
  3.548E+12 3.548E+12 4.202E+00 8.991E+03 1.616E+05 3.044E+06 3.215E+06 3.215E+06 4.119E+07 39.7076 1.00000
  3.981E+12 3.981E+12 4.222E+00 1.009E+04 1.813E+05 3.492E+06 3.683E+06 3.683E+06 4.131E+07 39.9379 1.00000
  4.467E+12 4.467E+12 4.241E+00 1.132E+04 2.034E+05 4.006E+06 4.220E+06 4.220E+06 4.144E+07 40.1681 1.00000
  5.012E+12 5.012E+12 4.261E+00 1.270E+04 2.282E+05 4.595E+06 4.836E+06 4.836E+06 4.156E+07 40.3984 1.00000
  5.623E+12 5.623E+12 4.281E+00 1.425E+04 2.560E+05 5.272E+06 5.542E+06 5.542E+06 4.168E+07 40.6287 1.00000
  6.310E+12 6.310E+12 4.301E+00 1.599E+04 2.872E+05 6.048E+06 6.352E+06 6.352E+06 4.179E+07 40.8589 1.00000
  7.079E+12 7.079E+12 4.321E+00 1.794E+04 3.223E+05 6.940E+06 7.280E+06 7.280E+06 4.191E+07 41.0892 1.00000
  7.943E+12 7.943E+12 4.341E+00 2.013E+04 3.616E+05 7.962E+06 8.344E+06 8.344E+06 4.202E+07 41.3194 1.00000
  8.913E+12 8.913E+12 4.362E+00 2.259E+04 4.057E+05 9.137E+06 9.565E+06 9.565E+06 4.213E+07 41.5497 1.00000
  1.000E+13 1.000E+13 4.382E+00 2.534E+04 4.551E+05 1.048E+07 1.096E+07 1.096E+07 4.223E+07 41.7800 1.00000
  1.122E+13 1.122E+13 4.403E+00 2.844E+04 5.106E+05 1.203E+07 1.257E+07 1.257E+07 4.234E+07 42.0102 1.00000
  1.259E+13 1.259E+13 4.423E+00 3.191E+04 5.729E+05 1.381E+07 1.441E+07 1.441E+07 4.244E+07 42.2405 1.00000
  1.413E+13 1.413E+13 4.444E+00 3.580E+04 6.428E+05 1.585E+07 1.653E+07 1.653E+07 4.254E+07 42.4707 1.00000
  1.585E+13 1.585E+13 4.465E+00 4.017E+04 7.212E+05 1.819E+07 1.895E+07 1.895E+07 4.263E+07 42.7010 1.00000
  1.778E+13 1.778E+13 4.486E+00 4.507E+04 8.091E+05 2.088E+07 2.173E+07 2.173E+07 4.273E+07 42.9312 1.00000
  1.995E+13 1.995E+13 4.507E+00 5.057E+04 9.078E+05 2.396E+07 2.492E+07 2.492E+07 4.282E+07 43.1615 1.00000
  2.239E+13 2.239E+13 4.528E+00 5.674E+04 1.019E+06 2.751E+07 2.858E+07 2.858E+07 4.292E+07 43.3918 1.00000
  2.512E+13 2.512E+13 4.550E+00 6.367E+04 1.143E+06 3.158E+07 3.278E+07 3.278E+07 4.300E+07 43.6220 1.00000
  2.818E+13 2.818E+13 4.571E+00 7.144E+04 1.282E+06 3.625E+07 3.761E+07 3.761E+07 4.309E+07 43.8523 1.00000
  3.162E+13 3.162E+13 4.593E+00 8.015E+04 1.439E+06 4.162E+07 4.314E+07 4.314E+07 4.318E+07 44.0825 1.00000
  3.548E+13 3.548E+13 4.614E+00 8.994E+04 1.614E+06 4.778E+07 4.949E+07 4.949E+07 4.326E+07 44.3128 1.00000
  3.981E+13 3.981E+13 4.636E+00 1.009E+05 1.811E+06 5.487E+07 5.678E+07 5.678E+07 4.334E+07 44.5431 1.00000
  4.467E+13 4.467E+13 4.658E+00 1.132E+05 2.032E+06 6.300E+07 6.514E+07 6.514E+07 4.342E+07 44.7733 1.00000
  5.012E+13 5.012E+13 4.680E+00 1.270E+05 2.279E+06 7.234E+07 7.475E+07 7.475E+07 4.350E+07 45.0036 1.00000
  5.623E+13 5.623E+13 4.702E+00 1.425E+05 2.557E+06 8.307E+07 8.577E+07 8.577E+07 4.358E+07 45.2338 1.00000
  6.310E+13 6.310E+13 4.724E+00 1.599E+05 2.869E+06 9.540E+07 9.843E+07 9.843E+07 4.365E+07 45.4641 1.00000
  7.079E+13 7.079E+13 4.747E+00 1.794E+05 3.219E+06 1.096E+08 1.130E+08 1.130E+08 4.373E+07 45.6943 1.00000
  7.943E+13 7.943E+13 4.769E+00 2.013E+05 3.612E+06 1.258E+08 1.296E+08 1.296E+08 4.380E+07 45.9246 1.00000
  8.913E+13 8.913E+13 4.792E+00 2.259E+05 4.052E+06 1.445E+08 1.488E+08 1.488E+08 4.387E+07 46.1549 1.00000
