 Incident particle is a Tau with M = 1776.82000 MeV
 Index = 0: Livermorium
      Absorber with <Z/A> = 0.39563
 Sternheimer coef:  a     k=m_s   x_0    x_1    I[eV]   Cbar  delta0
                 0.2913  3.0000  0.7064  3.0000 1213.0  6.7681 0.00

 *** Table generated with PUMAS v1.00 ***

      T         p     Ionization  brems     pair     photonuc  Radloss    dE/dx   CSDA Range  delta   beta
    [MeV]    [MeV/c]  -----------------------[MeV cm^2/g]------------------------  [g/cm^2]
  1.000E+05 1.018E+05 1.574E+00 1.433E-03 2.613E-02 7.458E-03 3.502E-02 1.609E+00 3.107E+04  1.8857 0.99985
  1.122E+05 1.140E+05 1.592E+00 1.663E-03 3.127E-02 8.363E-03 4.130E-02 1.634E+00 3.859E+04  2.0485 0.99988
  1.259E+05 1.277E+05 1.610E+00 1.929E-03 3.731E-02 9.329E-03 4.857E-02 1.659E+00 4.691E+04  2.2166 0.99990
  1.413E+05 1.430E+05 1.628E+00 2.236E-03 4.439E-02 1.041E-02 5.704E-02 1.685E+00 5.610E+04  2.3899 0.99992
  1.585E+05 1.603E+05 1.645E+00 2.590E-03 5.268E-02 1.161E-02 6.688E-02 1.712E+00 6.624E+04  2.5681 0.99994
  1.778E+05 1.796E+05 1.662E+00 2.999E-03 6.237E-02 1.294E-02 7.831E-02 1.741E+00 7.745E+04  2.7509 0.99995
  1.995E+05 2.013E+05 1.679E+00 3.469E-03 7.366E-02 1.445E-02 9.158E-02 1.771E+00 8.981E+04  2.9383 0.99996
  2.239E+05 2.256E+05 1.696E+00 4.011E-03 8.681E-02 1.609E-02 1.069E-01 1.803E+00 1.034E+05  3.1298 0.99997
  2.512E+05 2.530E+05 1.712E+00 4.636E-03 1.021E-01 1.791E-02 1.246E-01 1.837E+00 1.184E+05  3.3255 0.99998
  2.818E+05 2.836E+05 1.728E+00 5.354E-03 1.197E-01 1.995E-02 1.451E-01 1.873E+00 1.350E+05  3.5249 0.99998
  3.162E+05 3.180E+05 1.744E+00 6.179E-03 1.402E-01 2.224E-02 1.686E-01 1.913E+00 1.531E+05  3.7279 0.99998
  3.548E+05 3.566E+05 1.760E+00 7.128E-03 1.638E-01 2.480E-02 1.958E-01 1.956E+00 1.731E+05  3.9342 0.99999
  3.981E+05 3.999E+05 1.776E+00 8.218E-03 1.911E-01 2.764E-02 2.270E-01 2.002E+00 1.950E+05  4.1437 0.99999
  4.467E+05 4.485E+05 1.791E+00 9.470E-03 2.225E-01 3.081E-02 2.628E-01 2.054E+00 2.189E+05  4.3561 0.99999
  5.012E+05 5.030E+05 1.806E+00 1.091E-02 2.585E-01 3.436E-02 3.038E-01 2.110E+00 2.451E+05  4.5712 0.99999
  5.623E+05 5.641E+05 1.821E+00 1.255E-02 3.000E-01 3.818E-02 3.507E-01 2.172E+00 2.737E+05  4.7888 1.00000
  6.310E+05 6.327E+05 1.836E+00 1.444E-02 3.475E-01 4.247E-02 4.044E-01 2.240E+00 3.048E+05  5.0086 1.00000
  7.079E+05 7.097E+05 1.851E+00 1.660E-02 4.018E-01 4.729E-02 4.657E-01 2.316E+00 3.386E+05  5.2304 1.00000
  7.943E+05 7.961E+05 1.865E+00 1.908E-02 4.640E-01 5.271E-02 5.358E-01 2.401E+00 3.752E+05  5.4541 1.00000
  8.913E+05 8.930E+05 1.880E+00 2.192E-02 5.351E-01 5.882E-02 6.158E-01 2.495E+00 4.148E+05  5.6793 1.00000
  1.000E+06 1.002E+06 1.894E+00 2.516E-02 6.162E-01 6.571E-02 7.070E-01 2.601E+00 4.575E+05  5.9058 1.00000
  1.122E+06 1.124E+06 1.908E+00 2.887E-02 7.086E-01 7.348E-02 8.109E-01 2.719E+00 5.034E+05  6.1335 1.00000
  1.259E+06 1.261E+06 1.922E+00 3.312E-02 8.138E-01 8.226E-02 9.292E-01 2.851E+00 5.526E+05  6.3621 1.00000
  1.413E+06 1.414E+06 1.936E+00 3.797E-02 9.334E-01 9.220E-02 1.064E+00 2.999E+00 6.052E+05  6.5913 1.00000
  1.585E+06 1.587E+06 1.949E+00 4.351E-02 1.069E+00 1.034E-01 1.216E+00 3.166E+00 6.611E+05  6.8211 1.00000
  1.778E+06 1.780E+06 1.963E+00 4.983E-02 1.224E+00 1.162E-01 1.390E+00 3.353E+00 7.205E+05  7.0510 1.00000
  1.995E+06 1.997E+06 1.977E+00 5.706E-02 1.399E+00 1.306E-01 1.587E+00 3.563E+00 7.833E+05  7.2811 1.00000
  2.239E+06 2.240E+06 1.990E+00 6.530E-02 1.598E+00 1.469E-01 1.810E+00 3.800E+00 8.495E+05  7.5112 1.00000
  2.512E+06 2.514E+06 2.003E+00 7.470E-02 1.823E+00 1.655E-01 2.063E+00 4.066E+00 9.190E+05  7.7412 1.00000
  2.818E+06 2.820E+06 2.016E+00 8.542E-02 2.077E+00 1.866E-01 2.349E+00 4.366E+00 9.918E+05  7.9713 1.00000
  3.162E+06 3.164E+06 2.030E+00 9.764E-02 2.365E+00 2.105E-01 2.673E+00 4.703E+00 1.068E+06  8.2015 1.00000
  3.548E+06 3.550E+06 2.042E+00 1.116E-01 2.691E+00 2.377E-01 3.040E+00 5.082E+00 1.147E+06  8.4316 1.00000
  3.981E+06 3.983E+06 2.055E+00 1.274E-01 3.058E+00 2.686E-01 3.454E+00 5.510E+00 1.229E+06  8.6618 1.00000
  4.467E+06 4.469E+06 2.068E+00 1.455E-01 3.474E+00 3.038E-01 3.923E+00 5.991E+00 1.313E+06  8.8919 1.00000
  5.012E+06 5.014E+06 2.081E+00 1.660E-01 3.942E+00 3.437E-01 4.452E+00 6.533E+00 1.400E+06  9.1221 1.00000
  5.623E+06 5.625E+06 2.093E+00 1.894E-01 4.471E+00 3.892E-01 5.050E+00 7.143E+00 1.490E+06  9.3523 1.00000
  6.310E+06 6.311E+06 2.105E+00 2.160E-01 5.067E+00 4.410E-01 5.724E+00 7.829E+00 1.582E+06  9.5825 1.00000
  7.079E+06 7.081E+06 2.118E+00 2.462E-01 5.739E+00 5.000E-01 6.485E+00 8.603E+00 1.676E+06  9.8127 1.00000
  7.943E+06 7.945E+06 2.130E+00 2.806E-01 6.496E+00 5.672E-01 7.344E+00 9.473E+00 1.772E+06 10.0429 1.00000
  8.913E+06 8.914E+06 2.142E+00 3.196E-01 7.348E+00 6.437E-01 8.312E+00 1.045E+01 1.869E+06 10.2731 1.00000
  1.000E+07 1.000E+07 2.153E+00 3.639E-01 8.308E+00 7.309E-01 9.403E+00 1.156E+01 1.968E+06 10.5033 1.00000
  1.122E+07 1.122E+07 2.165E+00 4.143E-01 9.389E+00 8.302E-01 1.063E+01 1.280E+01 2.069E+06 10.7335 1.00000
  1.259E+07 1.259E+07 2.177E+00 4.714E-01 1.060E+01 9.435E-01 1.202E+01 1.420E+01 2.170E+06 10.9637 1.00000
  1.413E+07 1.413E+07 2.188E+00 5.362E-01 1.197E+01 1.073E+00 1.358E+01 1.577E+01 2.273E+06 11.1940 1.00000
  1.585E+07 1.585E+07 2.200E+00 6.098E-01 1.351E+01 1.220E+00 1.534E+01 1.754E+01 2.377E+06 11.4242 1.00000
  1.778E+07 1.778E+07 2.211E+00 6.931E-01 1.524E+01 1.388E+00 1.732E+01 1.953E+01 2.482E+06 11.6544 1.00000
  1.995E+07 1.995E+07 2.222E+00 7.876E-01 1.718E+01 1.579E+00 1.955E+01 2.177E+01 2.587E+06 11.8847 1.00000
  2.239E+07 2.239E+07 2.234E+00 8.947E-01 1.937E+01 1.798E+00 2.206E+01 2.430E+01 2.693E+06 12.1149 1.00000
  2.512E+07 2.512E+07 2.245E+00 1.016E+00 2.183E+01 2.047E+00 2.489E+01 2.713E+01 2.800E+06 12.3451 1.00000
  2.818E+07 2.819E+07 2.256E+00 1.153E+00 2.459E+01 2.331E+00 2.807E+01 3.033E+01 2.907E+06 12.5754 1.00000
  3.162E+07 3.162E+07 2.267E+00 1.309E+00 2.769E+01 2.655E+00 3.165E+01 3.392E+01 3.014E+06 12.8056 1.00000
  3.548E+07 3.548E+07 2.278E+00 1.485E+00 3.117E+01 3.025E+00 3.568E+01 3.796E+01 3.122E+06 13.0359 1.00000
  3.981E+07 3.981E+07 2.289E+00 1.683E+00 3.508E+01 3.448E+00 4.021E+01 4.250E+01 3.230E+06 13.2661 1.00000
  4.467E+07 4.467E+07 2.300E+00 1.908E+00 3.948E+01 3.930E+00 4.532E+01 4.762E+01 3.338E+06 13.4964 1.00000
  5.012E+07 5.012E+07 2.311E+00 2.163E+00 4.441E+01 4.480E+00 5.106E+01 5.337E+01 3.446E+06 13.7266 1.00000
  5.623E+07 5.624E+07 2.322E+00 2.450E+00 4.996E+01 5.108E+00 5.751E+01 5.984E+01 3.555E+06 13.9569 1.00000
  6.310E+07 6.310E+07 2.333E+00 2.775E+00 5.618E+01 5.825E+00 6.478E+01 6.711E+01 3.663E+06 14.1871 1.00000
  7.079E+07 7.080E+07 2.344E+00 3.142E+00 6.317E+01 6.644E+00 7.295E+01 7.530E+01 3.771E+06 14.4174 1.00000
  7.943E+07 7.943E+07 2.355E+00 3.556E+00 7.101E+01 7.579E+00 8.215E+01 8.450E+01 3.880E+06 14.6476 1.00000
  8.913E+07 8.913E+07 2.366E+00 4.023E+00 7.982E+01 8.646E+00 9.249E+01 9.485E+01 3.988E+06 14.8779 1.00000
  1.000E+08 1.000E+08 2.377E+00 4.550E+00 8.970E+01 9.865E+00 1.041E+02 1.065E+02 4.097E+06 15.1081 1.00000
  1.122E+08 1.122E+08 2.388E+00 5.145E+00 1.008E+02 1.126E+01 1.172E+02 1.196E+02 4.205E+06 15.3384 1.00000
  1.259E+08 1.259E+08 2.399E+00 5.816E+00 1.133E+02 1.285E+01 1.319E+02 1.343E+02 4.313E+06 15.5686 1.00000
  1.413E+08 1.413E+08 2.410E+00 6.572E+00 1.272E+02 1.466E+01 1.485E+02 1.509E+02 4.421E+06 15.7989 1.00000
  1.585E+08 1.585E+08 2.421E+00 7.425E+00 1.429E+02 1.674E+01 1.671E+02 1.695E+02 4.529E+06 16.0292 1.00000
  1.778E+08 1.778E+08 2.433E+00 8.386E+00 1.605E+02 1.911E+01 1.880E+02 1.905E+02 4.637E+06 16.2594 1.00000
  1.995E+08 1.995E+08 2.444E+00 9.468E+00 1.803E+02 2.181E+01 2.116E+02 2.140E+02 4.745E+06 16.4897 1.00000
  2.239E+08 2.239E+08 2.455E+00 1.069E+01 2.025E+02 2.490E+01 2.381E+02 2.405E+02 4.852E+06 16.7199 1.00000
  2.512E+08 2.512E+08 2.466E+00 1.206E+01 2.274E+02 2.844E+01 2.679E+02 2.704E+02 4.960E+06 16.9502 1.00000
  2.818E+08 2.818E+08 2.478E+00 1.361E+01 2.553E+02 3.247E+01 3.014E+02 3.039E+02 5.067E+06 17.1804 1.00000
  3.162E+08 3.162E+08 2.489E+00 1.535E+01 2.867E+02 3.708E+01 3.391E+02 3.416E+02 5.174E+06 17.4107 1.00000
  3.548E+08 3.548E+08 2.501E+00 1.730E+01 3.219E+02 4.235E+01 3.815E+02 3.840E+02 5.280E+06 17.6410 1.00000
  3.981E+08 3.981E+08 2.512E+00 1.951E+01 3.613E+02 4.837E+01 4.292E+02 4.317E+02 5.387E+06 17.8712 1.00000
  4.467E+08 4.467E+08 2.524E+00 2.198E+01 4.057E+02 5.525E+01 4.829E+02 4.854E+02 5.493E+06 18.1015 1.00000
  5.012E+08 5.012E+08 2.535E+00 2.477E+01 4.554E+02 6.312E+01 5.433E+02 5.458E+02 5.599E+06 18.3317 1.00000
  5.623E+08 5.623E+08 2.547E+00 2.791E+01 5.112E+02 7.211E+01 6.112E+02 6.137E+02 5.705E+06 18.5620 1.00000
  6.310E+08 6.310E+08 2.559E+00 3.143E+01 5.738E+02 8.238E+01 6.876E+02 6.901E+02 5.811E+06 18.7922 1.00000
  7.079E+08 7.079E+08 2.571E+00 3.539E+01 6.440E+02 9.412E+01 7.735E+02 7.761E+02 5.916E+06 19.0225 1.00000
  7.943E+08 7.943E+08 2.583E+00 3.984E+01 7.228E+02 1.075E+02 8.702E+02 8.728E+02 6.021E+06 19.2528 1.00000
  8.913E+08 8.913E+08 2.595E+00 4.485E+01 8.113E+02 1.229E+02 9.790E+02 9.816E+02 6.126E+06 19.4830 1.00000
  1.000E+09 1.000E+09 2.607E+00 5.047E+01 9.105E+02 1.404E+02 1.101E+03 1.104E+03 6.231E+06 19.7133 1.00000
  1.122E+09 1.122E+09 2.619E+00 5.679E+01 1.022E+03 1.605E+02 1.239E+03 1.242E+03 6.335E+06 19.9435 1.00000
  1.259E+09 1.259E+09 2.631E+00 6.389E+01 1.147E+03 1.834E+02 1.394E+03 1.397E+03 6.439E+06 20.1738 1.00000
  1.413E+09 1.413E+09 2.643E+00 7.186E+01 1.287E+03 2.096E+02 1.568E+03 1.571E+03 6.543E+06 20.4040 1.00000
  1.585E+09 1.585E+09 2.655E+00 8.082E+01 1.444E+03 2.396E+02 1.765E+03 1.767E+03 6.647E+06 20.6343 1.00000
  1.778E+09 1.778E+09 2.668E+00 9.088E+01 1.621E+03 2.739E+02 1.986E+03 1.988E+03 6.750E+06 20.8646 1.00000
  1.995E+09 1.995E+09 2.680E+00 1.022E+02 1.819E+03 3.131E+02 2.234E+03 2.237E+03 6.853E+06 21.0948 1.00000
  2.239E+09 2.239E+09 2.692E+00 1.149E+02 2.041E+03 3.579E+02 2.514E+03 2.517E+03 6.956E+06 21.3251 1.00000
  2.512E+09 2.512E+09 2.705E+00 1.291E+02 2.290E+03 4.092E+02 2.829E+03 2.831E+03 7.058E+06 21.5553 1.00000
  2.818E+09 2.818E+09 2.717E+00 1.451E+02 2.570E+03 4.678E+02 3.183E+03 3.186E+03 7.161E+06 21.7856 1.00000
  3.162E+09 3.162E+09 2.730E+00 1.631E+02 2.884E+03 5.349E+02 3.582E+03 3.585E+03 7.263E+06 22.0159 1.00000
  3.548E+09 3.548E+09 2.743E+00 1.832E+02 3.236E+03 6.116E+02 4.031E+03 4.034E+03 7.364E+06 22.2461 1.00000
  3.981E+09 3.981E+09 2.756E+00 2.059E+02 3.631E+03 6.994E+02 4.537E+03 4.539E+03 7.466E+06 22.4764 1.00000
  4.467E+09 4.467E+09 2.769E+00 2.313E+02 4.075E+03 7.998E+02 5.106E+03 5.109E+03 7.567E+06 22.7066 1.00000
  5.012E+09 5.012E+09 2.782E+00 2.598E+02 4.572E+03 9.147E+02 5.747E+03 5.749E+03 7.667E+06 22.9369 1.00000
  5.623E+09 5.623E+09 2.795E+00 2.918E+02 5.130E+03 1.046E+03 6.468E+03 6.471E+03 7.768E+06 23.1671 1.00000
  6.310E+09 6.310E+09 2.808E+00 3.278E+02 5.757E+03 1.196E+03 7.281E+03 7.284E+03 7.868E+06 23.3974 1.00000
  7.079E+09 7.079E+09 2.821E+00 3.681E+02 6.459E+03 1.369E+03 8.196E+03 8.199E+03 7.968E+06 23.6277 1.00000
  7.943E+09 7.943E+09 2.834E+00 4.134E+02 7.248E+03 1.565E+03 9.227E+03 9.229E+03 8.067E+06 23.8579 1.00000
  8.913E+09 8.913E+09 2.847E+00 4.642E+02 8.132E+03 1.791E+03 1.039E+04 1.039E+04 8.166E+06 24.0882 1.00000
  1.000E+10 1.000E+10 2.861E+00 5.212E+02 9.125E+03 2.049E+03 1.169E+04 1.170E+04 8.265E+06 24.3184 1.00000
  1.122E+10 1.122E+10 2.874E+00 5.852E+02 1.024E+04 2.344E+03 1.317E+04 1.317E+04 8.364E+06 24.5487 1.00000
  1.259E+10 1.259E+10 2.888E+00 6.570E+02 1.149E+04 2.681E+03 1.483E+04 1.483E+04 8.462E+06 24.7790 1.00000
  1.413E+10 1.413E+10 2.901E+00 7.376E+02 1.289E+04 3.068E+03 1.670E+04 1.670E+04 8.560E+06 25.0092 1.00000
  1.585E+10 1.585E+10 2.915E+00 8.281E+02 1.446E+04 3.510E+03 1.880E+04 1.880E+04 8.657E+06 25.2395 1.00000
  1.778E+10 1.778E+10 2.929E+00 9.296E+02 1.623E+04 4.017E+03 2.117E+04 2.118E+04 8.754E+06 25.4697 1.00000
  1.995E+10 1.995E+10 2.943E+00 1.043E+03 1.821E+04 4.597E+03 2.385E+04 2.385E+04 8.851E+06 25.7000 1.00000
  2.239E+10 2.239E+10 2.957E+00 1.171E+03 2.043E+04 5.261E+03 2.686E+04 2.686E+04 8.947E+06 25.9303 1.00000
  2.512E+10 2.512E+10 2.971E+00 1.315E+03 2.292E+04 6.020E+03 3.026E+04 3.026E+04 9.043E+06 26.1605 1.00000
  2.818E+10 2.818E+10 2.985E+00 1.476E+03 2.572E+04 6.891E+03 3.408E+04 3.409E+04 9.139E+06 26.3908 1.00000
  3.162E+10 3.162E+10 2.999E+00 1.656E+03 2.886E+04 7.887E+03 3.840E+04 3.840E+04 9.234E+06 26.6210 1.00000
  3.548E+10 3.548E+10 3.013E+00 1.859E+03 3.238E+04 9.028E+03 4.326E+04 4.327E+04 9.329E+06 26.8513 1.00000
  3.981E+10 3.981E+10 3.027E+00 2.086E+03 3.633E+04 1.033E+04 4.875E+04 4.875E+04 9.423E+06 27.0815 1.00000
  4.467E+10 4.467E+10 3.042E+00 2.341E+03 4.076E+04 1.183E+04 5.493E+04 5.493E+04 9.517E+06 27.3118 1.00000
  5.012E+10 5.012E+10 3.056E+00 2.628E+03 4.573E+04 1.354E+04 6.190E+04 6.191E+04 9.611E+06 27.5421 1.00000
  5.623E+10 5.623E+10 3.071E+00 2.949E+03 5.131E+04 1.551E+04 6.977E+04 6.977E+04 9.704E+06 27.7723 1.00000
  6.310E+10 6.310E+10 3.086E+00 3.309E+03 5.757E+04 1.775E+04 7.863E+04 7.864E+04 9.797E+06 28.0026 1.00000
  7.079E+10 7.079E+10 3.100E+00 3.714E+03 6.460E+04 2.033E+04 8.864E+04 8.864E+04 9.889E+06 28.2328 1.00000
  7.943E+10 7.943E+10 3.115E+00 4.168E+03 7.248E+04 2.328E+04 9.992E+04 9.992E+04 9.981E+06 28.4631 1.00000
  8.913E+10 8.913E+10 3.130E+00 4.677E+03 8.132E+04 2.665E+04 1.126E+05 1.127E+05 1.007E+07 28.6934 1.00000
  1.000E+11 1.000E+11 3.145E+00 5.248E+03 9.124E+04 3.052E+04 1.270E+05 1.270E+05 1.016E+07 28.9236 1.00000
  1.122E+11 1.122E+11 3.160E+00 5.889E+03 1.024E+05 3.496E+04 1.432E+05 1.432E+05 1.025E+07 29.1539 1.00000
  1.259E+11 1.259E+11 3.175E+00 6.608E+03 1.149E+05 4.004E+04 1.615E+05 1.615E+05 1.034E+07 29.3841 1.00000
  1.413E+11 1.413E+11 3.191E+00 7.415E+03 1.289E+05 4.586E+04 1.821E+05 1.821E+05 1.043E+07 29.6144 1.00000
  1.585E+11 1.585E+11 3.206E+00 8.321E+03 1.446E+05 5.253E+04 2.054E+05 2.054E+05 1.052E+07 29.8446 1.00000
  1.778E+11 1.778E+11 3.221E+00 9.337E+03 1.622E+05 6.017E+04 2.317E+05 2.317E+05 1.061E+07 30.0749 1.00000
  1.995E+11 1.995E+11 3.237E+00 1.048E+04 1.820E+05 6.892E+04 2.614E+05 2.614E+05 1.070E+07 30.3052 1.00000
  2.239E+11 2.239E+11 3.252E+00 1.176E+04 2.042E+05 7.896E+04 2.949E+05 2.949E+05 1.079E+07 30.5354 1.00000
  2.512E+11 2.512E+11 3.268E+00 1.319E+04 2.291E+05 9.046E+04 3.328E+05 3.328E+05 1.088E+07 30.7657 1.00000
  2.818E+11 2.818E+11 3.284E+00 1.480E+04 2.571E+05 1.036E+05 3.755E+05 3.755E+05 1.096E+07 30.9959 1.00000
  3.162E+11 3.162E+11 3.300E+00 1.661E+04 2.884E+05 1.188E+05 4.238E+05 4.238E+05 1.105E+07 31.2262 1.00000
  3.548E+11 3.548E+11 3.316E+00 1.864E+04 3.236E+05 1.361E+05 4.783E+05 4.783E+05 1.113E+07 31.4565 1.00000
  3.981E+11 3.981E+11 3.332E+00 2.091E+04 3.631E+05 1.559E+05 5.399E+05 5.399E+05 1.122E+07 31.6867 1.00000
  4.467E+11 4.467E+11 3.348E+00 2.346E+04 4.074E+05 1.787E+05 6.095E+05 6.095E+05 1.131E+07 31.9170 1.00000
  5.012E+11 5.012E+11 3.364E+00 2.633E+04 4.571E+05 2.048E+05 6.882E+05 6.882E+05 1.139E+07 32.1472 1.00000
  5.623E+11 5.623E+11 3.380E+00 2.954E+04 5.128E+05 2.347E+05 7.771E+05 7.771E+05 1.147E+07 32.3775 1.00000
  6.310E+11 6.310E+11 3.397E+00 3.315E+04 5.754E+05 2.690E+05 8.775E+05 8.775E+05 1.156E+07 32.6077 1.00000
  7.079E+11 7.079E+11 3.413E+00 3.719E+04 6.456E+05 3.083E+05 9.911E+05 9.911E+05 1.164E+07 32.8380 1.00000
  7.943E+11 7.943E+11 3.430E+00 4.173E+04 7.243E+05 3.534E+05 1.119E+06 1.119E+06 1.172E+07 33.0683 1.00000
  8.913E+11 8.913E+11 3.446E+00 4.682E+04 8.127E+05 4.051E+05 1.265E+06 1.265E+06 1.180E+07 33.2985 1.00000
  1.000E+12 1.000E+12 3.463E+00 5.254E+04 9.118E+05 4.644E+05 1.429E+06 1.429E+06 1.188E+07 33.5288 1.00000
  1.122E+12 1.122E+12 3.480E+00 5.895E+04 1.023E+06 5.324E+05 1.614E+06 1.614E+06 1.196E+07 33.7590 1.00000
  1.259E+12 1.259E+12 3.497E+00 6.614E+04 1.148E+06 6.104E+05 1.824E+06 1.824E+06 1.204E+07 33.9893 1.00000
  1.413E+12 1.413E+12 3.514E+00 7.421E+04 1.288E+06 6.998E+05 2.062E+06 2.062E+06 1.212E+07 34.2196 1.00000
  1.585E+12 1.585E+12 3.531E+00 8.327E+04 1.445E+06 8.024E+05 2.331E+06 2.331E+06 1.220E+07 34.4498 1.00000
  1.778E+12 1.778E+12 3.548E+00 9.343E+04 1.621E+06 9.201E+05 2.635E+06 2.635E+06 1.228E+07 34.6801 1.00000
  1.995E+12 1.995E+12 3.566E+00 1.048E+05 1.819E+06 1.055E+06 2.979E+06 2.979E+06 1.236E+07 34.9103 1.00000
  2.239E+12 2.239E+12 3.583E+00 1.176E+05 2.041E+06 1.210E+06 3.368E+06 3.368E+06 1.244E+07 35.1406 1.00000
  2.512E+12 2.512E+12 3.601E+00 1.320E+05 2.290E+06 1.388E+06 3.809E+06 3.809E+06 1.251E+07 35.3708 1.00000
  2.818E+12 2.818E+12 3.618E+00 1.481E+05 2.569E+06 1.591E+06 4.308E+06 4.308E+06 1.259E+07 35.6011 1.00000
  3.162E+12 3.162E+12 3.636E+00 1.661E+05 2.882E+06 1.825E+06 4.874E+06 4.874E+06 1.266E+07 35.8314 1.00000
  3.548E+12 3.548E+12 3.654E+00 1.864E+05 3.234E+06 2.094E+06 5.514E+06 5.514E+06 1.274E+07 36.0616 1.00000
  3.981E+12 3.981E+12 3.672E+00 2.092E+05 3.628E+06 2.402E+06 6.239E+06 6.239E+06 1.281E+07 36.2919 1.00000
  4.467E+12 4.467E+12 3.690E+00 2.347E+05 4.071E+06 2.755E+06 7.060E+06 7.060E+06 1.288E+07 36.5221 1.00000
  5.012E+12 5.012E+12 3.708E+00 2.633E+05 4.567E+06 3.160E+06 7.991E+06 7.991E+06 1.296E+07 36.7524 1.00000
  5.623E+12 5.623E+12 3.726E+00 2.955E+05 5.124E+06 3.626E+06 9.045E+06 9.045E+06 1.303E+07 36.9827 1.00000
  6.310E+12 6.310E+12 3.744E+00 3.315E+05 5.749E+06 4.160E+06 1.024E+07 1.024E+07 1.310E+07 37.2129 1.00000
  7.079E+12 7.079E+12 3.763E+00 3.720E+05 6.451E+06 4.773E+06 1.160E+07 1.160E+07 1.317E+07 37.4432 1.00000
  7.943E+12 7.943E+12 3.781E+00 4.174E+05 7.237E+06 5.476E+06 1.313E+07 1.313E+07 1.324E+07 37.6734 1.00000
  8.913E+12 8.913E+12 3.800E+00 4.683E+05 8.120E+06 6.284E+06 1.487E+07 1.487E+07 1.331E+07 37.9037 1.00000
  1.000E+13 1.000E+13 3.819E+00 5.254E+05 9.110E+06 7.211E+06 1.685E+07 1.685E+07 1.338E+07 38.1340 1.00000
  1.122E+13 1.122E+13 3.837E+00 5.895E+05 1.022E+07 8.275E+06 1.909E+07 1.909E+07 1.345E+07 38.3642 1.00000
  1.259E+13 1.259E+13 3.856E+00 6.615E+05 1.147E+07 9.496E+06 2.163E+07 2.163E+07 1.352E+07 38.5945 1.00000
  1.413E+13 1.413E+13 3.875E+00 7.422E+05 1.287E+07 1.090E+07 2.451E+07 2.451E+07 1.358E+07 38.8247 1.00000
  1.585E+13 1.585E+13 3.894E+00 8.327E+05 1.444E+07 1.251E+07 2.778E+07 2.778E+07 1.365E+07 39.0550 1.00000
  1.778E+13 1.778E+13 3.914E+00 9.344E+05 1.620E+07 1.436E+07 3.149E+07 3.149E+07 1.371E+07 39.2852 1.00000
  1.995E+13 1.995E+13 3.933E+00 1.048E+06 1.817E+07 1.648E+07 3.570E+07 3.570E+07 1.378E+07 39.5155 1.00000
  2.239E+13 2.239E+13 3.952E+00 1.176E+06 2.039E+07 1.892E+07 4.048E+07 4.048E+07 1.384E+07 39.7458 1.00000
  2.512E+13 2.512E+13 3.972E+00 1.320E+06 2.287E+07 2.172E+07 4.591E+07 4.591E+07 1.391E+07 39.9760 1.00000
  2.818E+13 2.818E+13 3.992E+00 1.481E+06 2.566E+07 2.493E+07 5.208E+07 5.208E+07 1.397E+07 40.2063 1.00000
  3.162E+13 3.162E+13 4.011E+00 1.662E+06 2.879E+07 2.862E+07 5.908E+07 5.908E+07 1.403E+07 40.4365 1.00000
  3.548E+13 3.548E+13 4.031E+00 1.864E+06 3.231E+07 3.286E+07 6.703E+07 6.703E+07 1.409E+07 40.6668 1.00000
  3.981E+13 3.981E+13 4.051E+00 2.092E+06 3.625E+07 3.773E+07 7.607E+07 7.607E+07 1.415E+07 40.8971 1.00000
  4.467E+13 4.467E+13 4.071E+00 2.347E+06 4.067E+07 4.333E+07 8.634E+07 8.634E+07 1.421E+07 41.1273 1.00000
  5.012E+13 5.012E+13 4.091E+00 2.633E+06 4.563E+07 4.975E+07 9.801E+07 9.801E+07 1.427E+07 41.3576 1.00000
  5.623E+13 5.623E+13 4.112E+00 2.955E+06 5.119E+07 5.713E+07 1.113E+08 1.113E+08 1.433E+07 41.5878 1.00000
  6.310E+13 6.310E+13 4.132E+00 3.315E+06 5.743E+07 6.561E+07 1.264E+08 1.264E+08 1.439E+07 41.8181 1.00000
  7.079E+13 7.079E+13 4.153E+00 3.720E+06 6.444E+07 7.535E+07 1.435E+08 1.435E+08 1.445E+07 42.0483 1.00000
  7.943E+13 7.943E+13 4.173E+00 4.174E+06 7.230E+07 8.654E+07 1.630E+08 1.630E+08 1.450E+07 42.2786 1.00000
  8.913E+13 8.913E+13 4.194E+00 4.683E+06 8.111E+07 9.940E+07 1.852E+08 1.852E+08 1.456E+07 42.5089 1.00000
