 Incident particle is a Tau with M = 1776.82000 MeV
 Index = 0: Lung
      Absorber with <Z/A> = 0.54957
 Sternheimer coef:  a     k=m_s   x_0    x_1    I[eV]   Cbar  delta0
                 0.0859  3.5353  0.2261  2.8001   75.3  3.4708 0.00

 *** Table generated with PUMAS v1.00 ***

      T         p     Ionization  brems     pair     photonuc  Radloss    dE/dx   CSDA Range  delta   beta
    [MeV]    [MeV/c]  -----------------------[MeV cm^2/g]------------------------  [g/cm^2]
  1.000E+05 1.018E+05 2.417E+00 1.431E-04 2.231E-03 8.373E-03 1.075E-02 2.427E+00 2.060E+04  4.7242 0.99985
  1.122E+05 1.140E+05 2.438E+00 1.653E-04 2.694E-03 9.459E-03 1.232E-02 2.450E+00 2.560E+04  4.9351 0.99988
  1.259E+05 1.277E+05 2.459E+00 1.909E-04 3.241E-03 1.063E-02 1.406E-02 2.473E+00 3.116E+04  5.1482 0.99990
  1.413E+05 1.430E+05 2.479E+00 2.203E-04 3.885E-03 1.195E-02 1.605E-02 2.495E+00 3.735E+04  5.3634 0.99992
  1.585E+05 1.603E+05 2.500E+00 2.541E-04 4.642E-03 1.342E-02 1.832E-02 2.518E+00 4.422E+04  5.5804 0.99994
  1.778E+05 1.796E+05 2.521E+00 2.930E-04 5.530E-03 1.507E-02 2.089E-02 2.542E+00 5.187E+04  5.7992 0.99995
  1.995E+05 2.013E+05 2.541E+00 3.377E-04 6.571E-03 1.695E-02 2.386E-02 2.565E+00 6.036E+04  6.0196 0.99996
  2.239E+05 2.256E+05 2.562E+00 3.890E-04 7.788E-03 1.900E-02 2.718E-02 2.589E+00 6.981E+04  6.2413 0.99997
  2.512E+05 2.530E+05 2.582E+00 4.480E-04 9.208E-03 2.131E-02 3.096E-02 2.613E+00 8.031E+04  6.4644 0.99998
  2.818E+05 2.836E+05 2.603E+00 5.156E-04 1.086E-02 2.390E-02 3.528E-02 2.638E+00 9.198E+04  6.6886 0.99998
  3.162E+05 3.180E+05 2.623E+00 5.932E-04 1.278E-02 2.684E-02 4.021E-02 2.663E+00 1.050E+05  6.9138 0.99998
  3.548E+05 3.566E+05 2.643E+00 6.823E-04 1.502E-02 3.013E-02 4.583E-02 2.689E+00 1.194E+05  7.1400 0.99999
  3.981E+05 3.999E+05 2.663E+00 7.843E-04 1.760E-02 3.382E-02 5.220E-02 2.716E+00 1.354E+05  7.3669 0.99999
  4.467E+05 4.485E+05 2.684E+00 9.013E-04 2.059E-02 3.794E-02 5.944E-02 2.743E+00 1.532E+05  7.5945 0.99999
  5.012E+05 5.030E+05 2.704E+00 1.035E-03 2.405E-02 4.259E-02 6.768E-02 2.771E+00 1.730E+05  7.8226 0.99999
  5.623E+05 5.641E+05 2.724E+00 1.189E-03 2.805E-02 4.763E-02 7.687E-02 2.800E+00 1.949E+05  8.0513 1.00000
  6.310E+05 6.327E+05 2.743E+00 1.365E-03 3.265E-02 5.331E-02 8.733E-02 2.831E+00 2.193E+05  8.2803 1.00000
  7.079E+05 7.097E+05 2.763E+00 1.566E-03 3.795E-02 5.973E-02 9.924E-02 2.862E+00 2.463E+05  8.5096 1.00000
  7.943E+05 7.961E+05 2.783E+00 1.797E-03 4.404E-02 6.697E-02 1.128E-01 2.896E+00 2.763E+05  8.7391 1.00000
  8.913E+05 8.930E+05 2.802E+00 2.060E-03 5.103E-02 7.516E-02 1.283E-01 2.931E+00 3.096E+05  8.9688 1.00000
  1.000E+06 1.002E+06 2.822E+00 2.362E-03 5.906E-02 8.442E-02 1.458E-01 2.968E+00 3.465E+05  9.1986 1.00000
  1.122E+06 1.124E+06 2.841E+00 2.707E-03 6.826E-02 9.491E-02 1.659E-01 3.007E+00 3.873E+05  9.4285 1.00000
  1.259E+06 1.261E+06 2.861E+00 3.102E-03 7.878E-02 1.068E-01 1.887E-01 3.049E+00 4.325E+05  9.6584 1.00000
  1.413E+06 1.414E+06 2.880E+00 3.553E-03 9.082E-02 1.202E-01 2.146E-01 3.094E+00 4.826E+05  9.8883 1.00000
  1.585E+06 1.587E+06 2.899E+00 4.069E-03 1.046E-01 1.355E-01 2.442E-01 3.143E+00 5.378E+05 10.1183 1.00000
  1.778E+06 1.780E+06 2.918E+00 4.658E-03 1.203E-01 1.528E-01 2.778E-01 3.196E+00 5.988E+05 10.3483 1.00000
  1.995E+06 1.997E+06 2.937E+00 5.331E-03 1.382E-01 1.725E-01 3.160E-01 3.253E+00 6.662E+05 10.5784 1.00000
  2.239E+06 2.240E+06 2.955E+00 6.100E-03 1.585E-01 1.949E-01 3.595E-01 3.315E+00 7.403E+05 10.8085 1.00000
  2.512E+06 2.514E+06 2.974E+00 6.978E-03 1.817E-01 2.202E-01 4.089E-01 3.383E+00 8.219E+05 11.0385 1.00000
  2.818E+06 2.820E+06 2.992E+00 7.980E-03 2.081E-01 2.491E-01 4.652E-01 3.457E+00 9.115E+05 11.2686 1.00000
  3.162E+06 3.164E+06 3.010E+00 9.124E-03 2.381E-01 2.819E-01 5.291E-01 3.539E+00 1.010E+06 11.4988 1.00000
  3.548E+06 3.550E+06 3.028E+00 1.043E-02 2.721E-01 3.192E-01 6.017E-01 3.630E+00 1.118E+06 11.7289 1.00000
  3.981E+06 3.983E+06 3.046E+00 1.192E-02 3.107E-01 3.617E-01 6.843E-01 3.730E+00 1.235E+06 11.9591 1.00000
  4.467E+06 4.469E+06 3.064E+00 1.362E-02 3.544E-01 4.100E-01 7.780E-01 3.842E+00 1.364E+06 12.1892 1.00000
  5.012E+06 5.014E+06 3.081E+00 1.555E-02 4.039E-01 4.650E-01 8.845E-01 3.966E+00 1.503E+06 12.4194 1.00000
  5.623E+06 5.625E+06 3.098E+00 1.776E-02 4.600E-01 5.277E-01 1.005E+00 4.104E+00 1.655E+06 12.6496 1.00000
  6.310E+06 6.311E+06 3.115E+00 2.027E-02 5.235E-01 5.991E-01 1.143E+00 4.258E+00 1.819E+06 12.8798 1.00000
  7.079E+06 7.081E+06 3.132E+00 2.314E-02 5.952E-01 6.804E-01 1.299E+00 4.431E+00 1.996E+06 13.1100 1.00000
  7.943E+06 7.945E+06 3.149E+00 2.640E-02 6.763E-01 7.730E-01 1.476E+00 4.625E+00 2.187E+06 13.3402 1.00000
  8.913E+06 8.914E+06 3.166E+00 3.012E-02 7.679E-01 8.786E-01 1.677E+00 4.842E+00 2.392E+06 13.5704 1.00000
  1.000E+07 1.000E+07 3.182E+00 3.435E-02 8.713E-01 9.989E-01 1.905E+00 5.087E+00 2.611E+06 13.8006 1.00000
  1.122E+07 1.122E+07 3.198E+00 3.916E-02 9.880E-01 1.136E+00 2.163E+00 5.362E+00 2.845E+06 14.0308 1.00000
  1.259E+07 1.259E+07 3.215E+00 4.464E-02 1.120E+00 1.293E+00 2.457E+00 5.671E+00 3.093E+06 14.2610 1.00000
  1.413E+07 1.413E+07 3.231E+00 5.086E-02 1.268E+00 1.471E+00 2.790E+00 6.020E+00 3.356E+06 14.4913 1.00000
  1.585E+07 1.585E+07 3.246E+00 5.794E-02 1.435E+00 1.674E+00 3.167E+00 6.414E+00 3.634E+06 14.7215 1.00000
  1.778E+07 1.778E+07 3.262E+00 6.599E-02 1.624E+00 1.906E+00 3.596E+00 6.858E+00 3.926E+06 14.9517 1.00000
  1.995E+07 1.995E+07 3.278E+00 7.513E-02 1.836E+00 2.171E+00 4.082E+00 7.360E+00 4.231E+06 15.1820 1.00000
  2.239E+07 2.239E+07 3.294E+00 8.552E-02 2.075E+00 2.473E+00 4.633E+00 7.927E+00 4.550E+06 15.4122 1.00000
  2.512E+07 2.512E+07 3.309E+00 9.731E-02 2.344E+00 2.817E+00 5.258E+00 8.567E+00 4.882E+06 15.6424 1.00000
  2.818E+07 2.819E+07 3.324E+00 1.107E-01 2.646E+00 3.210E+00 5.967E+00 9.292E+00 5.226E+06 15.8727 1.00000
  3.162E+07 3.162E+07 3.340E+00 1.259E-01 2.987E+00 3.659E+00 6.772E+00 1.011E+01 5.581E+06 16.1029 1.00000
  3.548E+07 3.548E+07 3.355E+00 1.431E-01 3.369E+00 4.171E+00 7.684E+00 1.104E+01 5.946E+06 16.3332 1.00000
  3.981E+07 3.981E+07 3.371E+00 1.627E-01 3.800E+00 4.755E+00 8.718E+00 1.209E+01 6.321E+06 16.5634 1.00000
  4.467E+07 4.467E+07 3.386E+00 1.849E-01 4.284E+00 5.422E+00 9.891E+00 1.328E+01 6.705E+06 16.7937 1.00000
  5.012E+07 5.012E+07 3.401E+00 2.100E-01 4.828E+00 6.184E+00 1.122E+01 1.462E+01 7.097E+06 17.0239 1.00000
  5.623E+07 5.624E+07 3.416E+00 2.385E-01 5.439E+00 7.053E+00 1.273E+01 1.615E+01 7.495E+06 17.2542 1.00000
  6.310E+07 6.310E+07 3.432E+00 2.708E-01 6.126E+00 8.045E+00 1.444E+01 1.787E+01 7.900E+06 17.4844 1.00000
  7.079E+07 7.080E+07 3.447E+00 3.073E-01 6.898E+00 9.178E+00 1.638E+01 1.983E+01 8.309E+06 17.7147 1.00000
  7.943E+07 7.943E+07 3.462E+00 3.487E-01 7.765E+00 1.047E+01 1.859E+01 2.205E+01 8.723E+06 17.9449 1.00000
  8.913E+07 8.913E+07 3.477E+00 3.956E-01 8.739E+00 1.195E+01 2.108E+01 2.456E+01 9.140E+06 18.1752 1.00000
  1.000E+08 1.000E+08 3.493E+00 4.486E-01 9.833E+00 1.364E+01 2.392E+01 2.741E+01 9.560E+06 18.4054 1.00000
  1.122E+08 1.122E+08 3.508E+00 5.085E-01 1.106E+01 1.556E+01 2.713E+01 3.064E+01 9.982E+06 18.6357 1.00000
  1.259E+08 1.259E+08 3.524E+00 5.763E-01 1.244E+01 1.776E+01 3.078E+01 3.430E+01 1.040E+07 18.8659 1.00000
  1.413E+08 1.413E+08 3.539E+00 6.530E-01 1.399E+01 2.027E+01 3.492E+01 3.846E+01 1.083E+07 19.0962 1.00000
  1.585E+08 1.585E+08 3.555E+00 7.396E-01 1.573E+01 2.315E+01 3.961E+01 4.317E+01 1.125E+07 19.3265 1.00000
  1.778E+08 1.778E+08 3.570E+00 8.376E-01 1.768E+01 2.642E+01 4.494E+01 4.851E+01 1.168E+07 19.5567 1.00000
  1.995E+08 1.995E+08 3.586E+00 9.482E-01 1.987E+01 3.017E+01 5.099E+01 5.458E+01 1.210E+07 19.7870 1.00000
  2.239E+08 2.239E+08 3.601E+00 1.073E+00 2.233E+01 3.445E+01 5.786E+01 6.146E+01 1.252E+07 20.0172 1.00000
  2.512E+08 2.512E+08 3.617E+00 1.214E+00 2.510E+01 3.934E+01 6.565E+01 6.926E+01 1.294E+07 20.2475 1.00000
  2.818E+08 2.818E+08 3.633E+00 1.373E+00 2.820E+01 4.492E+01 7.449E+01 7.812E+01 1.336E+07 20.4777 1.00000
  3.162E+08 3.162E+08 3.649E+00 1.553E+00 3.167E+01 5.131E+01 8.453E+01 8.818E+01 1.377E+07 20.7080 1.00000
  3.548E+08 3.548E+08 3.665E+00 1.755E+00 3.558E+01 5.860E+01 9.593E+01 9.960E+01 1.418E+07 20.9383 1.00000
  3.981E+08 3.981E+08 3.681E+00 1.984E+00 3.996E+01 6.693E+01 1.089E+02 1.126E+02 1.459E+07 21.1685 1.00000
  4.467E+08 4.467E+08 3.697E+00 2.242E+00 4.488E+01 7.646E+01 1.236E+02 1.273E+02 1.500E+07 21.3988 1.00000
  5.012E+08 5.012E+08 3.713E+00 2.532E+00 5.040E+01 8.734E+01 1.403E+02 1.440E+02 1.540E+07 21.6290 1.00000
  5.623E+08 5.623E+08 3.729E+00 2.859E+00 5.660E+01 9.978E+01 1.592E+02 1.630E+02 1.580E+07 21.8593 1.00000
  6.310E+08 6.310E+08 3.746E+00 3.228E+00 6.355E+01 1.140E+02 1.808E+02 1.845E+02 1.620E+07 22.0895 1.00000
  7.079E+08 7.079E+08 3.762E+00 3.644E+00 7.135E+01 1.303E+02 2.052E+02 2.090E+02 1.659E+07 22.3198 1.00000
  7.943E+08 7.943E+08 3.778E+00 4.112E+00 8.011E+01 1.488E+02 2.330E+02 2.368E+02 1.698E+07 22.5501 1.00000
  8.913E+08 8.913E+08 3.795E+00 4.639E+00 8.993E+01 1.701E+02 2.646E+02 2.684E+02 1.737E+07 22.7803 1.00000
  1.000E+09 1.000E+09 3.812E+00 5.232E+00 1.010E+02 1.943E+02 3.005E+02 3.043E+02 1.775E+07 23.0106 1.00000
  1.122E+09 1.122E+09 3.828E+00 5.900E+00 1.133E+02 2.221E+02 3.413E+02 3.452E+02 1.812E+07 23.2408 1.00000
  1.259E+09 1.259E+09 3.845E+00 6.652E+00 1.272E+02 2.538E+02 3.877E+02 3.915E+02 1.850E+07 23.4711 1.00000
  1.413E+09 1.413E+09 3.862E+00 7.498E+00 1.428E+02 2.901E+02 4.404E+02 4.443E+02 1.887E+07 23.7013 1.00000
  1.585E+09 1.585E+09 3.879E+00 8.450E+00 1.603E+02 3.316E+02 5.003E+02 5.042E+02 1.923E+07 23.9316 1.00000
  1.778E+09 1.778E+09 3.896E+00 9.520E+00 1.799E+02 3.791E+02 5.685E+02 5.724E+02 1.959E+07 24.1619 1.00000
  1.995E+09 1.995E+09 3.914E+00 1.072E+01 2.019E+02 4.333E+02 6.459E+02 6.498E+02 1.995E+07 24.3921 1.00000
  2.239E+09 2.239E+09 3.931E+00 1.208E+01 2.266E+02 4.954E+02 7.340E+02 7.380E+02 2.030E+07 24.6224 1.00000
  2.512E+09 2.512E+09 3.948E+00 1.360E+01 2.543E+02 5.664E+02 8.342E+02 8.382E+02 2.065E+07 24.8526 1.00000
  2.818E+09 2.818E+09 3.966E+00 1.531E+01 2.854E+02 6.475E+02 9.482E+02 9.522E+02 2.099E+07 25.0829 1.00000
  3.162E+09 3.162E+09 3.983E+00 1.724E+01 3.202E+02 7.404E+02 1.078E+03 1.082E+03 2.133E+07 25.3132 1.00000
  3.548E+09 3.548E+09 4.001E+00 1.940E+01 3.594E+02 8.466E+02 1.225E+03 1.229E+03 2.167E+07 25.5434 1.00000
  3.981E+09 3.981E+09 4.019E+00 2.183E+01 4.033E+02 9.681E+02 1.393E+03 1.397E+03 2.200E+07 25.7737 1.00000
  4.467E+09 4.467E+09 4.037E+00 2.456E+01 4.526E+02 1.107E+03 1.584E+03 1.588E+03 2.233E+07 26.0039 1.00000
  5.012E+09 5.012E+09 4.055E+00 2.763E+01 5.079E+02 1.266E+03 1.802E+03 1.806E+03 2.265E+07 26.2342 1.00000
  5.623E+09 5.623E+09 4.073E+00 3.107E+01 5.699E+02 1.448E+03 2.049E+03 2.053E+03 2.297E+07 26.4644 1.00000
  6.310E+09 6.310E+09 4.091E+00 3.494E+01 6.395E+02 1.656E+03 2.331E+03 2.335E+03 2.328E+07 26.6947 1.00000
  7.079E+09 7.079E+09 4.109E+00 3.929E+01 7.176E+02 1.894E+03 2.651E+03 2.655E+03 2.359E+07 26.9250 1.00000
  7.943E+09 7.943E+09 4.128E+00 4.418E+01 8.052E+02 2.167E+03 3.016E+03 3.020E+03 2.390E+07 27.1552 1.00000
  8.913E+09 8.913E+09 4.146E+00 4.966E+01 9.035E+02 2.479E+03 3.432E+03 3.436E+03 2.420E+07 27.3855 1.00000
  1.000E+10 1.000E+10 4.165E+00 5.582E+01 1.014E+03 2.836E+03 3.905E+03 3.909E+03 2.449E+07 27.6157 1.00000
  1.122E+10 1.122E+10 4.183E+00 6.274E+01 1.138E+03 3.244E+03 4.444E+03 4.449E+03 2.479E+07 27.8460 1.00000
  1.259E+10 1.259E+10 4.202E+00 7.050E+01 1.276E+03 3.712E+03 5.058E+03 5.063E+03 2.508E+07 28.0763 1.00000
  1.413E+10 1.413E+10 4.221E+00 7.922E+01 1.432E+03 4.247E+03 5.758E+03 5.762E+03 2.536E+07 28.3065 1.00000
  1.585E+10 1.585E+10 4.240E+00 8.901E+01 1.607E+03 4.859E+03 6.555E+03 6.559E+03 2.564E+07 28.5368 1.00000
  1.778E+10 1.778E+10 4.259E+00 1.000E+02 1.803E+03 5.560E+03 7.463E+03 7.468E+03 2.592E+07 28.7670 1.00000
  1.995E+10 1.995E+10 4.279E+00 1.123E+02 2.023E+03 6.363E+03 8.498E+03 8.503E+03 2.619E+07 28.9973 1.00000
  2.239E+10 2.239E+10 4.298E+00 1.262E+02 2.270E+03 7.282E+03 9.678E+03 9.682E+03 2.646E+07 29.2276 1.00000
  2.512E+10 2.512E+10 4.317E+00 1.417E+02 2.547E+03 8.334E+03 1.102E+04 1.103E+04 2.673E+07 29.4578 1.00000
  2.818E+10 2.818E+10 4.337E+00 1.592E+02 2.858E+03 9.538E+03 1.256E+04 1.256E+04 2.699E+07 29.6881 1.00000
  3.162E+10 3.162E+10 4.357E+00 1.788E+02 3.207E+03 1.092E+04 1.430E+04 1.431E+04 2.724E+07 29.9183 1.00000
  3.548E+10 3.548E+10 4.376E+00 2.008E+02 3.598E+03 1.250E+04 1.630E+04 1.630E+04 2.750E+07 30.1486 1.00000
  3.981E+10 3.981E+10 4.396E+00 2.254E+02 4.037E+03 1.430E+04 1.857E+04 1.857E+04 2.775E+07 30.3788 1.00000
  4.467E+10 4.467E+10 4.416E+00 2.531E+02 4.530E+03 1.638E+04 2.116E+04 2.116E+04 2.799E+07 30.6091 1.00000
  5.012E+10 5.012E+10 4.436E+00 2.842E+02 5.083E+03 1.875E+04 2.411E+04 2.412E+04 2.823E+07 30.8394 1.00000
  5.623E+10 5.623E+10 4.457E+00 3.191E+02 5.703E+03 2.146E+04 2.748E+04 2.749E+04 2.847E+07 31.0696 1.00000
  6.310E+10 6.310E+10 4.477E+00 3.582E+02 6.399E+03 2.457E+04 3.133E+04 3.134E+04 2.871E+07 31.2999 1.00000
  7.079E+10 7.079E+10 4.498E+00 4.021E+02 7.179E+03 2.814E+04 3.572E+04 3.572E+04 2.894E+07 31.5301 1.00000
  7.943E+10 7.943E+10 4.518E+00 4.514E+02 8.055E+03 3.222E+04 4.073E+04 4.073E+04 2.916E+07 31.7604 1.00000
  8.913E+10 8.913E+10 4.539E+00 5.067E+02 9.038E+03 3.689E+04 4.644E+04 4.644E+04 2.939E+07 31.9907 1.00000
  1.000E+11 1.000E+11 4.560E+00 5.688E+02 1.014E+04 4.225E+04 5.296E+04 5.297E+04 2.961E+07 32.2209 1.00000
  1.122E+11 1.122E+11 4.581E+00 6.385E+02 1.138E+04 4.839E+04 6.040E+04 6.041E+04 2.982E+07 32.4512 1.00000
  1.259E+11 1.259E+11 4.602E+00 7.166E+02 1.277E+04 5.542E+04 6.890E+04 6.891E+04 3.004E+07 32.6814 1.00000
  1.413E+11 1.413E+11 4.623E+00 8.043E+02 1.432E+04 6.347E+04 7.860E+04 7.861E+04 3.025E+07 32.9117 1.00000
  1.585E+11 1.585E+11 4.644E+00 9.028E+02 1.607E+04 7.271E+04 8.968E+04 8.968E+04 3.045E+07 33.1419 1.00000
  1.778E+11 1.778E+11 4.666E+00 1.013E+03 1.803E+04 8.328E+04 1.023E+05 1.023E+05 3.065E+07 33.3722 1.00000
  1.995E+11 1.995E+11 4.687E+00 1.137E+03 2.023E+04 9.540E+04 1.168E+05 1.168E+05 3.085E+07 33.6025 1.00000
  2.239E+11 2.239E+11 4.709E+00 1.276E+03 2.270E+04 1.093E+05 1.333E+05 1.333E+05 3.105E+07 33.8327 1.00000
  2.512E+11 2.512E+11 4.731E+00 1.432E+03 2.547E+04 1.252E+05 1.521E+05 1.521E+05 3.124E+07 34.0630 1.00000
  2.818E+11 2.818E+11 4.752E+00 1.607E+03 2.857E+04 1.435E+05 1.736E+05 1.736E+05 3.143E+07 34.2932 1.00000
  3.162E+11 3.162E+11 4.774E+00 1.804E+03 3.206E+04 1.644E+05 1.982E+05 1.982E+05 3.162E+07 34.5235 1.00000
  3.548E+11 3.548E+11 4.797E+00 2.024E+03 3.597E+04 1.883E+05 2.263E+05 2.263E+05 3.180E+07 34.7538 1.00000
  3.981E+11 3.981E+11 4.819E+00 2.271E+03 4.036E+04 2.158E+05 2.585E+05 2.585E+05 3.198E+07 34.9840 1.00000
  4.467E+11 4.467E+11 4.841E+00 2.549E+03 4.528E+04 2.473E+05 2.952E+05 2.952E+05 3.215E+07 35.2143 1.00000
  5.012E+11 5.012E+11 4.864E+00 2.860E+03 5.080E+04 2.834E+05 3.371E+05 3.371E+05 3.233E+07 35.4445 1.00000
  5.623E+11 5.623E+11 4.886E+00 3.210E+03 5.700E+04 3.248E+05 3.851E+05 3.851E+05 3.250E+07 35.6748 1.00000
  6.310E+11 6.310E+11 4.909E+00 3.602E+03 6.395E+04 3.723E+05 4.399E+05 4.399E+05 3.266E+07 35.9050 1.00000
  7.079E+11 7.079E+11 4.932E+00 4.042E+03 7.176E+04 4.268E+05 5.025E+05 5.026E+05 3.283E+07 36.1353 1.00000
  7.943E+11 7.943E+11 4.955E+00 4.535E+03 8.051E+04 4.892E+05 5.742E+05 5.742E+05 3.299E+07 36.3656 1.00000
  8.913E+11 8.913E+11 4.978E+00 5.089E+03 9.033E+04 5.607E+05 6.562E+05 6.562E+05 3.315E+07 36.5958 1.00000
  1.000E+12 1.000E+12 5.002E+00 5.710E+03 1.013E+05 6.428E+05 7.499E+05 7.499E+05 3.330E+07 36.8261 1.00000
  1.122E+12 1.122E+12 5.025E+00 6.407E+03 1.137E+05 7.369E+05 8.571E+05 8.571E+05 3.346E+07 37.0563 1.00000
  1.259E+12 1.259E+12 5.049E+00 7.190E+03 1.276E+05 8.449E+05 9.797E+05 9.797E+05 3.360E+07 37.2866 1.00000
  1.413E+12 1.413E+12 5.072E+00 8.067E+03 1.431E+05 9.687E+05 1.120E+06 1.120E+06 3.375E+07 37.5169 1.00000
  1.585E+12 1.585E+12 5.096E+00 9.052E+03 1.606E+05 1.111E+06 1.280E+06 1.280E+06 3.390E+07 37.7471 1.00000
  1.778E+12 1.778E+12 5.120E+00 1.016E+04 1.802E+05 1.274E+06 1.464E+06 1.464E+06 3.404E+07 37.9774 1.00000
  1.995E+12 1.995E+12 5.144E+00 1.140E+04 2.022E+05 1.460E+06 1.674E+06 1.674E+06 3.418E+07 38.2076 1.00000
  2.239E+12 2.239E+12 5.168E+00 1.279E+04 2.268E+05 1.675E+06 1.914E+06 1.914E+06 3.431E+07 38.4379 1.00000
  2.512E+12 2.512E+12 5.193E+00 1.435E+04 2.545E+05 1.921E+06 2.190E+06 2.190E+06 3.445E+07 38.6681 1.00000
  2.818E+12 2.818E+12 5.217E+00 1.610E+04 2.855E+05 2.203E+06 2.505E+06 2.505E+06 3.458E+07 38.8984 1.00000
  3.162E+12 3.162E+12 5.242E+00 1.806E+04 3.204E+05 2.527E+06 2.865E+06 2.865E+06 3.471E+07 39.1287 1.00000
  3.548E+12 3.548E+12 5.266E+00 2.027E+04 3.594E+05 2.898E+06 3.278E+06 3.278E+06 3.483E+07 39.3589 1.00000
  3.981E+12 3.981E+12 5.291E+00 2.274E+04 4.033E+05 3.324E+06 3.750E+06 3.750E+06 3.496E+07 39.5892 1.00000
  4.467E+12 4.467E+12 5.316E+00 2.552E+04 4.525E+05 3.813E+06 4.291E+06 4.291E+06 3.508E+07 39.8194 1.00000
  5.012E+12 5.012E+12 5.342E+00 2.863E+04 5.076E+05 4.375E+06 4.911E+06 4.911E+06 3.520E+07 40.0497 1.00000
  5.623E+12 5.623E+12 5.367E+00 3.213E+04 5.696E+05 5.019E+06 5.620E+06 5.620E+06 3.531E+07 40.2800 1.00000
  6.310E+12 6.310E+12 5.392E+00 3.605E+04 6.390E+05 5.758E+06 6.433E+06 6.433E+06 3.543E+07 40.5102 1.00000
  7.079E+12 7.079E+12 5.418E+00 4.045E+04 7.170E+05 6.606E+06 7.364E+06 7.364E+06 3.554E+07 40.7405 1.00000
  7.943E+12 7.943E+12 5.444E+00 4.538E+04 8.044E+05 7.580E+06 8.430E+06 8.430E+06 3.565E+07 40.9707 1.00000
  8.913E+12 8.913E+12 5.469E+00 5.092E+04 9.025E+05 8.698E+06 9.651E+06 9.651E+06 3.576E+07 41.2010 1.00000
  1.000E+13 1.000E+13 5.495E+00 5.713E+04 1.013E+06 9.981E+06 1.105E+07 1.105E+07 3.586E+07 41.4313 1.00000
  1.122E+13 1.122E+13 5.521E+00 6.411E+04 1.136E+06 1.145E+07 1.265E+07 1.265E+07 3.597E+07 41.6615 1.00000
  1.259E+13 1.259E+13 5.548E+00 7.193E+04 1.275E+06 1.314E+07 1.449E+07 1.449E+07 3.607E+07 41.8918 1.00000
  1.413E+13 1.413E+13 5.574E+00 8.071E+04 1.430E+06 1.509E+07 1.660E+07 1.660E+07 3.617E+07 42.1220 1.00000
  1.585E+13 1.585E+13 5.601E+00 9.055E+04 1.605E+06 1.732E+07 1.901E+07 1.901E+07 3.626E+07 42.3523 1.00000
  1.778E+13 1.778E+13 5.627E+00 1.016E+05 1.800E+06 1.987E+07 2.178E+07 2.178E+07 3.636E+07 42.5825 1.00000
  1.995E+13 1.995E+13 5.654E+00 1.140E+05 2.020E+06 2.281E+07 2.495E+07 2.495E+07 3.645E+07 42.8128 1.00000
  2.239E+13 2.239E+13 5.681E+00 1.279E+05 2.266E+06 2.619E+07 2.858E+07 2.858E+07 3.654E+07 43.0431 1.00000
  2.512E+13 2.512E+13 5.708E+00 1.435E+05 2.543E+06 3.006E+07 3.275E+07 3.275E+07 3.663E+07 43.2733 1.00000
  2.818E+13 2.818E+13 5.736E+00 1.610E+05 2.853E+06 3.451E+07 3.752E+07 3.752E+07 3.672E+07 43.5036 1.00000
  3.162E+13 3.162E+13 5.763E+00 1.807E+05 3.200E+06 3.962E+07 4.300E+07 4.300E+07 3.681E+07 43.7338 1.00000
  3.548E+13 3.548E+13 5.791E+00 2.027E+05 3.591E+06 4.549E+07 4.928E+07 4.928E+07 3.689E+07 43.9641 1.00000
  3.981E+13 3.981E+13 5.818E+00 2.275E+05 4.029E+06 5.223E+07 5.649E+07 5.649E+07 3.697E+07 44.1944 1.00000
  4.467E+13 4.467E+13 5.846E+00 2.552E+05 4.520E+06 5.997E+07 6.475E+07 6.475E+07 3.705E+07 44.4246 1.00000
  5.012E+13 5.012E+13 5.874E+00 2.864E+05 5.071E+06 6.887E+07 7.422E+07 7.422E+07 3.713E+07 44.6549 1.00000
  5.623E+13 5.623E+13 5.902E+00 3.213E+05 5.690E+06 7.908E+07 8.509E+07 8.509E+07 3.721E+07 44.8851 1.00000
  6.310E+13 6.310E+13 5.931E+00 3.605E+05 6.384E+06 9.082E+07 9.756E+07 9.756E+07 3.729E+07 45.1154 1.00000
  7.079E+13 7.079E+13 5.959E+00 4.045E+05 7.162E+06 1.043E+08 1.119E+08 1.119E+08 3.736E+07 45.3456 1.00000
  7.943E+13 7.943E+13 5.988E+00 4.539E+05 8.036E+06 1.198E+08 1.283E+08 1.283E+08 3.743E+07 45.5759 1.00000
  8.913E+13 8.913E+13 6.017E+00 5.092E+05 9.016E+06 1.376E+08 1.471E+08 1.471E+08 3.750E+07 45.8062 1.00000
