 Incident particle is a Tau with M = 1776.82000 MeV
 Index = 0: LutetiumSiliconOxide
      Absorber with <Z/A> = 0.42793
 Sternheimer coef:  a     k=m_s   x_0    x_1    I[eV]   Cbar  delta0
                 0.2062  3.0000  0.2732  3.0000  472.0  5.4394 0.00

 *** Table generated with PUMAS v1.00 ***

      T         p     Ionization  brems     pair     photonuc  Radloss    dE/dx   CSDA Range  delta   beta
    [MeV]    [MeV/c]  -----------------------[MeV cm^2/g]------------------------  [g/cm^2]
  1.000E+05 1.018E+05 1.750E+00 7.612E-04 1.333E-02 7.741E-03 2.183E-02 1.772E+00 2.821E+04  3.0513 0.99985
  1.122E+05 1.140E+05 1.769E+00 8.824E-04 1.596E-02 8.702E-03 2.555E-02 1.794E+00 3.505E+04  3.2327 0.99988
  1.259E+05 1.277E+05 1.787E+00 1.022E-03 1.906E-02 9.730E-03 2.982E-02 1.817E+00 4.264E+04  3.4180 0.99990
  1.413E+05 1.430E+05 1.805E+00 1.184E-03 2.270E-02 1.088E-02 3.477E-02 1.840E+00 5.104E+04  3.6071 0.99992
  1.585E+05 1.603E+05 1.823E+00 1.370E-03 2.696E-02 1.217E-02 4.050E-02 1.863E+00 6.035E+04  3.7997 0.99994
  1.778E+05 1.796E+05 1.840E+00 1.584E-03 3.195E-02 1.360E-02 4.713E-02 1.887E+00 7.066E+04  3.9957 0.99995
  1.995E+05 2.013E+05 1.858E+00 1.831E-03 3.776E-02 1.522E-02 5.481E-02 1.912E+00 8.209E+04  4.1950 0.99996
  2.239E+05 2.256E+05 1.875E+00 2.116E-03 4.453E-02 1.698E-02 6.363E-02 1.938E+00 9.473E+04  4.3973 0.99997
  2.512E+05 2.530E+05 1.892E+00 2.443E-03 5.240E-02 1.895E-02 7.380E-02 1.966E+00 1.087E+05  4.6025 0.99998
  2.818E+05 2.836E+05 1.909E+00 2.819E-03 6.153E-02 2.116E-02 8.551E-02 1.994E+00 1.242E+05  4.8105 0.99998
  3.162E+05 3.180E+05 1.926E+00 3.251E-03 7.211E-02 2.365E-02 9.901E-02 2.025E+00 1.413E+05  5.0211 0.99998
  3.548E+05 3.566E+05 1.942E+00 3.747E-03 8.433E-02 2.643E-02 1.145E-01 2.057E+00 1.602E+05  5.2341 0.99999
  3.981E+05 3.999E+05 1.959E+00 4.317E-03 9.844E-02 2.953E-02 1.323E-01 2.091E+00 1.811E+05  5.4493 0.99999
  4.467E+05 4.485E+05 1.975E+00 4.970E-03 1.147E-01 3.299E-02 1.527E-01 2.128E+00 2.041E+05  5.6667 0.99999
  5.012E+05 5.030E+05 1.991E+00 5.720E-03 1.334E-01 3.687E-02 1.760E-01 2.167E+00 2.295E+05  5.8859 0.99999
  5.623E+05 5.641E+05 2.007E+00 6.579E-03 1.549E-01 4.106E-02 2.026E-01 2.210E+00 2.575E+05  6.1070 1.00000
  6.310E+05 6.327E+05 2.023E+00 7.564E-03 1.796E-01 4.577E-02 2.330E-01 2.256E+00 2.882E+05  6.3296 1.00000
  7.079E+05 7.097E+05 2.039E+00 8.692E-03 2.079E-01 5.107E-02 2.677E-01 2.307E+00 3.219E+05  6.5537 1.00000
  7.943E+05 7.961E+05 2.054E+00 9.983E-03 2.404E-01 5.704E-02 3.074E-01 2.362E+00 3.590E+05  6.7791 1.00000
  8.913E+05 8.930E+05 2.070E+00 1.146E-02 2.774E-01 6.378E-02 3.527E-01 2.423E+00 3.995E+05  7.0057 1.00000
  1.000E+06 1.002E+06 2.085E+00 1.315E-02 3.198E-01 7.139E-02 4.043E-01 2.490E+00 4.438E+05  7.2332 1.00000
  1.122E+06 1.124E+06 2.100E+00 1.508E-02 3.681E-01 7.998E-02 4.631E-01 2.564E+00 4.921E+05  7.4615 1.00000
  1.259E+06 1.261E+06 2.116E+00 1.729E-02 4.231E-01 8.970E-02 5.301E-01 2.646E+00 5.446E+05  7.6905 1.00000
  1.413E+06 1.414E+06 2.131E+00 1.982E-02 4.858E-01 1.007E-01 6.063E-01 2.737E+00 6.017E+05  7.9199 1.00000
  1.585E+06 1.587E+06 2.145E+00 2.270E-02 5.572E-01 1.132E-01 6.930E-01 2.838E+00 6.636E+05  8.1498 1.00000
  1.778E+06 1.780E+06 2.160E+00 2.599E-02 6.382E-01 1.273E-01 7.915E-01 2.952E+00 7.304E+05  8.3797 1.00000
  1.995E+06 1.997E+06 2.175E+00 2.975E-02 7.303E-01 1.433E-01 9.033E-01 3.078E+00 8.024E+05  8.6098 1.00000
  2.239E+06 2.240E+06 2.189E+00 3.404E-02 8.347E-01 1.614E-01 1.030E+00 3.219E+00 8.798E+05  8.8399 1.00000
  2.512E+06 2.514E+06 2.204E+00 3.893E-02 9.531E-01 1.821E-01 1.174E+00 3.378E+00 9.626E+05  9.0699 1.00000
  2.818E+06 2.820E+06 2.218E+00 4.451E-02 1.087E+00 2.055E-01 1.337E+00 3.555E+00 1.051E+06  9.3000 1.00000
  3.162E+06 3.164E+06 2.232E+00 5.086E-02 1.239E+00 2.321E-01 1.522E+00 3.754E+00 1.145E+06  9.5302 1.00000
  3.548E+06 3.550E+06 2.246E+00 5.810E-02 1.411E+00 2.623E-01 1.731E+00 3.977E+00 1.245E+06  9.7603 1.00000
  3.981E+06 3.983E+06 2.260E+00 6.635E-02 1.605E+00 2.967E-01 1.968E+00 4.228E+00 1.351E+06  9.9905 1.00000
  4.467E+06 4.469E+06 2.274E+00 7.574E-02 1.824E+00 3.358E-01 2.236E+00 4.510E+00 1.462E+06 10.2206 1.00000
  5.012E+06 5.014E+06 2.287E+00 8.643E-02 2.072E+00 3.803E-01 2.539E+00 4.826E+00 1.579E+06 10.4508 1.00000
  5.623E+06 5.625E+06 2.301E+00 9.859E-02 2.352E+00 4.310E-01 2.881E+00 5.182E+00 1.701E+06 10.6810 1.00000
  6.310E+06 6.311E+06 2.314E+00 1.124E-01 2.667E+00 4.887E-01 3.268E+00 5.582E+00 1.829E+06 10.9112 1.00000
  7.079E+06 7.081E+06 2.327E+00 1.282E-01 3.023E+00 5.544E-01 3.706E+00 6.033E+00 1.962E+06 11.1414 1.00000
  7.943E+06 7.945E+06 2.340E+00 1.460E-01 3.424E+00 6.292E-01 4.199E+00 6.540E+00 2.099E+06 11.3716 1.00000
  8.913E+06 8.914E+06 2.353E+00 1.664E-01 3.876E+00 7.145E-01 4.757E+00 7.110E+00 2.242E+06 11.6018 1.00000
  1.000E+07 1.000E+07 2.366E+00 1.894E-01 4.385E+00 8.117E-01 5.386E+00 7.752E+00 2.388E+06 11.8320 1.00000
  1.122E+07 1.122E+07 2.379E+00 2.157E-01 4.958E+00 9.224E-01 6.096E+00 8.475E+00 2.539E+06 12.0622 1.00000
  1.259E+07 1.259E+07 2.391E+00 2.454E-01 5.604E+00 1.049E+00 6.898E+00 9.289E+00 2.693E+06 12.2924 1.00000
  1.413E+07 1.413E+07 2.404E+00 2.792E-01 6.330E+00 1.193E+00 7.801E+00 1.021E+01 2.851E+06 12.5227 1.00000
  1.585E+07 1.585E+07 2.416E+00 3.175E-01 7.146E+00 1.357E+00 8.821E+00 1.124E+01 3.013E+06 12.7529 1.00000
  1.778E+07 1.778E+07 2.428E+00 3.610E-01 8.065E+00 1.544E+00 9.970E+00 1.240E+01 3.177E+06 12.9831 1.00000
  1.995E+07 1.995E+07 2.441E+00 4.102E-01 9.099E+00 1.757E+00 1.127E+01 1.371E+01 3.343E+06 13.2134 1.00000
  2.239E+07 2.239E+07 2.453E+00 4.661E-01 1.026E+01 2.001E+00 1.273E+01 1.518E+01 3.512E+06 13.4436 1.00000
  2.512E+07 2.512E+07 2.465E+00 5.293E-01 1.157E+01 2.279E+00 1.437E+01 1.684E+01 3.683E+06 13.6738 1.00000
  2.818E+07 2.819E+07 2.477E+00 6.010E-01 1.303E+01 2.596E+00 1.623E+01 1.871E+01 3.856E+06 13.9041 1.00000
  3.162E+07 3.162E+07 2.489E+00 6.821E-01 1.468E+01 2.958E+00 1.832E+01 2.081E+01 4.031E+06 14.1343 1.00000
  3.548E+07 3.548E+07 2.501E+00 7.740E-01 1.654E+01 3.370E+00 2.068E+01 2.318E+01 4.207E+06 14.3646 1.00000
  3.981E+07 3.981E+07 2.513E+00 8.779E-01 1.862E+01 3.841E+00 2.334E+01 2.585E+01 4.384E+06 14.5948 1.00000
  4.467E+07 4.467E+07 2.525E+00 9.955E-01 2.096E+01 4.379E+00 2.633E+01 2.886E+01 4.562E+06 14.8251 1.00000
  5.012E+07 5.012E+07 2.536E+00 1.128E+00 2.358E+01 4.993E+00 2.971E+01 3.224E+01 4.741E+06 15.0553 1.00000
  5.623E+07 5.624E+07 2.548E+00 1.279E+00 2.653E+01 5.694E+00 3.351E+01 3.605E+01 4.921E+06 15.2856 1.00000
  6.310E+07 6.310E+07 2.560E+00 1.449E+00 2.985E+01 6.494E+00 3.779E+01 4.035E+01 5.101E+06 15.5158 1.00000
  7.079E+07 7.080E+07 2.572E+00 1.641E+00 3.357E+01 7.407E+00 4.261E+01 4.519E+01 5.281E+06 15.7461 1.00000
  7.943E+07 7.943E+07 2.584E+00 1.857E+00 3.774E+01 8.450E+00 4.805E+01 5.063E+01 5.462E+06 15.9763 1.00000
  8.913E+07 8.913E+07 2.596E+00 2.102E+00 4.243E+01 9.641E+00 5.418E+01 5.677E+01 5.643E+06 16.2066 1.00000
  1.000E+08 1.000E+08 2.608E+00 2.378E+00 4.770E+01 1.100E+01 6.108E+01 6.368E+01 5.824E+06 16.4368 1.00000
  1.122E+08 1.122E+08 2.620E+00 2.690E+00 5.361E+01 1.255E+01 6.885E+01 7.147E+01 6.006E+06 16.6671 1.00000
  1.259E+08 1.259E+08 2.632E+00 3.042E+00 6.024E+01 1.433E+01 7.761E+01 8.024E+01 6.187E+06 16.8973 1.00000
  1.413E+08 1.413E+08 2.644E+00 3.439E+00 6.769E+01 1.635E+01 8.748E+01 9.012E+01 6.368E+06 17.1276 1.00000
  1.585E+08 1.585E+08 2.656E+00 3.886E+00 7.605E+01 1.867E+01 9.860E+01 1.013E+02 6.548E+06 17.3579 1.00000
  1.778E+08 1.778E+08 2.668E+00 4.391E+00 8.543E+01 2.131E+01 1.111E+02 1.138E+02 6.729E+06 17.5881 1.00000
  1.995E+08 1.995E+08 2.680E+00 4.959E+00 9.596E+01 2.433E+01 1.252E+02 1.279E+02 6.909E+06 17.8184 1.00000
  2.239E+08 2.239E+08 2.692E+00 5.600E+00 1.078E+02 2.778E+01 1.412E+02 1.438E+02 7.089E+06 18.0486 1.00000
  2.512E+08 2.512E+08 2.705E+00 6.322E+00 1.210E+02 3.172E+01 1.591E+02 1.618E+02 7.268E+06 18.2789 1.00000
  2.818E+08 2.818E+08 2.717E+00 7.134E+00 1.359E+02 3.622E+01 1.793E+02 1.820E+02 7.447E+06 18.5091 1.00000
  3.162E+08 3.162E+08 2.729E+00 8.050E+00 1.526E+02 4.136E+01 2.020E+02 2.048E+02 7.626E+06 18.7394 1.00000
  3.548E+08 3.548E+08 2.742E+00 9.080E+00 1.714E+02 4.724E+01 2.277E+02 2.304E+02 7.803E+06 18.9697 1.00000
  3.981E+08 3.981E+08 2.754E+00 1.024E+01 1.924E+02 5.396E+01 2.566E+02 2.594E+02 7.981E+06 19.1999 1.00000
  4.467E+08 4.467E+08 2.767E+00 1.154E+01 2.160E+02 6.164E+01 2.892E+02 2.920E+02 8.158E+06 19.4302 1.00000
  5.012E+08 5.012E+08 2.779E+00 1.301E+01 2.425E+02 7.041E+01 3.259E+02 3.287E+02 8.334E+06 19.6604 1.00000
  5.623E+08 5.623E+08 2.792E+00 1.466E+01 2.722E+02 8.044E+01 3.673E+02 3.701E+02 8.510E+06 19.8907 1.00000
  6.310E+08 6.310E+08 2.805E+00 1.652E+01 3.056E+02 9.190E+01 4.140E+02 4.168E+02 8.685E+06 20.1209 1.00000
  7.079E+08 7.079E+08 2.817E+00 1.861E+01 3.430E+02 1.050E+02 4.666E+02 4.694E+02 8.859E+06 20.3512 1.00000
  7.943E+08 7.943E+08 2.830E+00 2.096E+01 3.850E+02 1.200E+02 5.259E+02 5.288E+02 9.033E+06 20.5815 1.00000
  8.913E+08 8.913E+08 2.843E+00 2.360E+01 4.321E+02 1.371E+02 5.928E+02 5.957E+02 9.206E+06 20.8117 1.00000
  1.000E+09 1.000E+09 2.856E+00 2.656E+01 4.850E+02 1.567E+02 6.682E+02 6.711E+02 9.378E+06 21.0420 1.00000
  1.122E+09 1.122E+09 2.869E+00 2.990E+01 5.444E+02 1.790E+02 7.533E+02 7.562E+02 9.550E+06 21.2722 1.00000
  1.259E+09 1.259E+09 2.882E+00 3.365E+01 6.109E+02 2.046E+02 8.492E+02 8.521E+02 9.720E+06 21.5025 1.00000
  1.413E+09 1.413E+09 2.895E+00 3.786E+01 6.856E+02 2.339E+02 9.574E+02 9.603E+02 9.891E+06 21.7327 1.00000
  1.585E+09 1.585E+09 2.909E+00 4.259E+01 7.695E+02 2.673E+02 1.079E+03 1.082E+03 1.006E+07 21.9630 1.00000
  1.778E+09 1.778E+09 2.922E+00 4.790E+01 8.635E+02 3.055E+02 1.217E+03 1.220E+03 1.023E+07 22.1933 1.00000
  1.995E+09 1.995E+09 2.935E+00 5.387E+01 9.691E+02 3.493E+02 1.372E+03 1.375E+03 1.040E+07 22.4235 1.00000
  2.239E+09 2.239E+09 2.949E+00 6.057E+01 1.087E+03 3.993E+02 1.547E+03 1.550E+03 1.056E+07 22.6538 1.00000
  2.512E+09 2.512E+09 2.962E+00 6.810E+01 1.220E+03 4.565E+02 1.745E+03 1.748E+03 1.073E+07 22.8840 1.00000
  2.818E+09 2.818E+09 2.976E+00 7.656E+01 1.369E+03 5.219E+02 1.968E+03 1.971E+03 1.090E+07 23.1143 1.00000
  3.162E+09 3.162E+09 2.990E+00 8.605E+01 1.537E+03 5.967E+02 2.219E+03 2.222E+03 1.106E+07 23.3446 1.00000
  3.548E+09 3.548E+09 3.004E+00 9.671E+01 1.724E+03 6.823E+02 2.503E+03 2.506E+03 1.122E+07 23.5748 1.00000
  3.981E+09 3.981E+09 3.017E+00 1.087E+02 1.935E+03 7.803E+02 2.824E+03 2.827E+03 1.139E+07 23.8051 1.00000
  4.467E+09 4.467E+09 3.031E+00 1.221E+02 2.171E+03 8.923E+02 3.186E+03 3.189E+03 1.155E+07 24.0353 1.00000
  5.012E+09 5.012E+09 3.045E+00 1.372E+02 2.436E+03 1.020E+03 3.594E+03 3.597E+03 1.171E+07 24.2656 1.00000
  5.623E+09 5.623E+09 3.059E+00 1.541E+02 2.734E+03 1.167E+03 4.055E+03 4.058E+03 1.187E+07 24.4958 1.00000
  6.310E+09 6.310E+09 3.074E+00 1.731E+02 3.068E+03 1.335E+03 4.575E+03 4.579E+03 1.203E+07 24.7261 1.00000
  7.079E+09 7.079E+09 3.088E+00 1.945E+02 3.442E+03 1.527E+03 5.163E+03 5.166E+03 1.219E+07 24.9564 1.00000
  7.943E+09 7.943E+09 3.102E+00 2.184E+02 3.862E+03 1.746E+03 5.827E+03 5.830E+03 1.235E+07 25.1866 1.00000
  8.913E+09 8.913E+09 3.117E+00 2.453E+02 4.334E+03 1.998E+03 6.577E+03 6.580E+03 1.250E+07 25.4169 1.00000
  1.000E+10 1.000E+10 3.131E+00 2.755E+02 4.862E+03 2.285E+03 7.423E+03 7.426E+03 1.266E+07 25.6471 1.00000
  1.122E+10 1.122E+10 3.146E+00 3.094E+02 5.456E+03 2.615E+03 8.380E+03 8.383E+03 1.281E+07 25.8774 1.00000
  1.259E+10 1.259E+10 3.160E+00 3.474E+02 6.122E+03 2.991E+03 9.460E+03 9.464E+03 1.297E+07 26.1077 1.00000
  1.413E+10 1.413E+10 3.175E+00 3.900E+02 6.869E+03 3.423E+03 1.068E+04 1.068E+04 1.312E+07 26.3379 1.00000
  1.585E+10 1.585E+10 3.190E+00 4.379E+02 7.707E+03 3.916E+03 1.206E+04 1.206E+04 1.327E+07 26.5682 1.00000
  1.778E+10 1.778E+10 3.205E+00 4.916E+02 8.647E+03 4.481E+03 1.362E+04 1.362E+04 1.342E+07 26.7984 1.00000
  1.995E+10 1.995E+10 3.220E+00 5.519E+02 9.703E+03 5.128E+03 1.538E+04 1.539E+04 1.357E+07 27.0287 1.00000
  2.239E+10 2.239E+10 3.235E+00 6.195E+02 1.089E+04 5.869E+03 1.738E+04 1.738E+04 1.372E+07 27.2590 1.00000
  2.512E+10 2.512E+10 3.250E+00 6.954E+02 1.221E+04 6.717E+03 1.963E+04 1.963E+04 1.387E+07 27.4892 1.00000
  2.818E+10 2.818E+10 3.265E+00 7.806E+02 1.371E+04 7.687E+03 2.217E+04 2.218E+04 1.402E+07 27.7195 1.00000
  3.162E+10 3.162E+10 3.281E+00 8.762E+02 1.538E+04 8.799E+03 2.505E+04 2.506E+04 1.416E+07 27.9497 1.00000
  3.548E+10 3.548E+10 3.296E+00 9.835E+02 1.725E+04 1.007E+04 2.831E+04 2.831E+04 1.431E+07 28.1800 1.00000
  3.981E+10 3.981E+10 3.311E+00 1.104E+03 1.936E+04 1.153E+04 3.199E+04 3.200E+04 1.445E+07 28.4102 1.00000
  4.467E+10 4.467E+10 3.327E+00 1.239E+03 2.172E+04 1.320E+04 3.616E+04 3.616E+04 1.460E+07 28.6405 1.00000
  5.012E+10 5.012E+10 3.343E+00 1.390E+03 2.437E+04 1.511E+04 4.087E+04 4.087E+04 1.474E+07 28.8708 1.00000
  5.623E+10 5.623E+10 3.358E+00 1.561E+03 2.734E+04 1.730E+04 4.620E+04 4.621E+04 1.488E+07 29.1010 1.00000
  6.310E+10 6.310E+10 3.374E+00 1.751E+03 3.068E+04 1.981E+04 5.224E+04 5.224E+04 1.502E+07 29.3313 1.00000
  7.079E+10 7.079E+10 3.390E+00 1.965E+03 3.442E+04 2.268E+04 5.907E+04 5.907E+04 1.516E+07 29.5615 1.00000
  7.943E+10 7.943E+10 3.406E+00 2.206E+03 3.862E+04 2.597E+04 6.680E+04 6.680E+04 1.530E+07 29.7918 1.00000
  8.913E+10 8.913E+10 3.422E+00 2.475E+03 4.333E+04 2.974E+04 7.555E+04 7.555E+04 1.543E+07 30.0221 1.00000
  1.000E+11 1.000E+11 3.439E+00 2.778E+03 4.862E+04 3.405E+04 8.545E+04 8.546E+04 1.557E+07 30.2523 1.00000
  1.122E+11 1.122E+11 3.455E+00 3.117E+03 5.455E+04 3.900E+04 9.667E+04 9.667E+04 1.570E+07 30.4826 1.00000
  1.259E+11 1.259E+11 3.471E+00 3.498E+03 6.121E+04 4.467E+04 1.094E+05 1.094E+05 1.584E+07 30.7128 1.00000
  1.413E+11 1.413E+11 3.488E+00 3.925E+03 6.867E+04 5.116E+04 1.238E+05 1.238E+05 1.597E+07 30.9431 1.00000
  1.585E+11 1.585E+11 3.504E+00 4.405E+03 7.705E+04 5.860E+04 1.401E+05 1.401E+05 1.610E+07 31.1733 1.00000
  1.778E+11 1.778E+11 3.521E+00 4.943E+03 8.645E+04 6.713E+04 1.585E+05 1.585E+05 1.623E+07 31.4036 1.00000
  1.995E+11 1.995E+11 3.538E+00 5.546E+03 9.700E+04 7.689E+04 1.794E+05 1.794E+05 1.636E+07 31.6339 1.00000
  2.239E+11 2.239E+11 3.555E+00 6.224E+03 1.088E+05 8.809E+04 2.031E+05 2.031E+05 1.649E+07 31.8641 1.00000
  2.512E+11 2.512E+11 3.572E+00 6.984E+03 1.221E+05 1.009E+05 2.300E+05 2.300E+05 1.661E+07 32.0944 1.00000
  2.818E+11 2.818E+11 3.589E+00 7.836E+03 1.370E+05 1.156E+05 2.605E+05 2.605E+05 1.674E+07 32.3246 1.00000
  3.162E+11 3.162E+11 3.606E+00 8.793E+03 1.537E+05 1.325E+05 2.950E+05 2.950E+05 1.686E+07 32.5549 1.00000
  3.548E+11 3.548E+11 3.623E+00 9.866E+03 1.725E+05 1.518E+05 3.341E+05 3.341E+05 1.699E+07 32.7852 1.00000
  3.981E+11 3.981E+11 3.640E+00 1.107E+04 1.935E+05 1.740E+05 3.785E+05 3.785E+05 1.711E+07 33.0154 1.00000
  4.467E+11 4.467E+11 3.658E+00 1.242E+04 2.171E+05 1.993E+05 4.289E+05 4.289E+05 1.723E+07 33.2457 1.00000
  5.012E+11 5.012E+11 3.675E+00 1.394E+04 2.436E+05 2.285E+05 4.860E+05 4.860E+05 1.735E+07 33.4759 1.00000
  5.623E+11 5.623E+11 3.693E+00 1.564E+04 2.733E+05 2.618E+05 5.508E+05 5.508E+05 1.747E+07 33.7062 1.00000
  6.310E+11 6.310E+11 3.711E+00 1.755E+04 3.066E+05 3.001E+05 6.243E+05 6.243E+05 1.758E+07 33.9364 1.00000
  7.079E+11 7.079E+11 3.729E+00 1.969E+04 3.440E+05 3.440E+05 7.077E+05 7.077E+05 1.770E+07 34.1667 1.00000
  7.943E+11 7.943E+11 3.747E+00 2.209E+04 3.860E+05 3.943E+05 8.024E+05 8.024E+05 1.782E+07 34.3970 1.00000
  8.913E+11 8.913E+11 3.765E+00 2.479E+04 4.331E+05 4.519E+05 9.098E+05 9.098E+05 1.793E+07 34.6272 1.00000
  1.000E+12 1.000E+12 3.783E+00 2.782E+04 4.859E+05 5.181E+05 1.032E+06 1.032E+06 1.804E+07 34.8575 1.00000
  1.122E+12 1.122E+12 3.801E+00 3.121E+04 5.452E+05 5.940E+05 1.170E+06 1.170E+06 1.815E+07 35.0877 1.00000
  1.259E+12 1.259E+12 3.819E+00 3.502E+04 6.117E+05 6.810E+05 1.328E+06 1.328E+06 1.826E+07 35.3180 1.00000
  1.413E+12 1.413E+12 3.838E+00 3.929E+04 6.863E+05 7.808E+05 1.506E+06 1.506E+06 1.837E+07 35.5483 1.00000
  1.585E+12 1.585E+12 3.856E+00 4.409E+04 7.700E+05 8.952E+05 1.709E+06 1.709E+06 1.848E+07 35.7785 1.00000
  1.778E+12 1.778E+12 3.875E+00 4.947E+04 8.639E+05 1.027E+06 1.940E+06 1.940E+06 1.859E+07 36.0088 1.00000
  1.995E+12 1.995E+12 3.894E+00 5.550E+04 9.693E+05 1.177E+06 2.202E+06 2.202E+06 1.869E+07 36.2390 1.00000
  2.239E+12 2.239E+12 3.912E+00 6.228E+04 1.088E+06 1.350E+06 2.500E+06 2.500E+06 1.879E+07 36.4693 1.00000
  2.512E+12 2.512E+12 3.931E+00 6.988E+04 1.220E+06 1.548E+06 2.838E+06 2.838E+06 1.890E+07 36.6995 1.00000
  2.818E+12 2.818E+12 3.951E+00 7.840E+04 1.369E+06 1.776E+06 3.223E+06 3.223E+06 1.900E+07 36.9298 1.00000
  3.162E+12 3.162E+12 3.970E+00 8.797E+04 1.536E+06 2.036E+06 3.660E+06 3.660E+06 1.910E+07 37.1601 1.00000
  3.548E+12 3.548E+12 3.989E+00 9.871E+04 1.723E+06 2.336E+06 4.158E+06 4.158E+06 1.920E+07 37.3903 1.00000
  3.981E+12 3.981E+12 4.008E+00 1.108E+05 1.934E+06 2.679E+06 4.724E+06 4.724E+06 1.930E+07 37.6206 1.00000
  4.467E+12 4.467E+12 4.028E+00 1.243E+05 2.169E+06 3.073E+06 5.367E+06 5.367E+06 1.939E+07 37.8508 1.00000
  5.012E+12 5.012E+12 4.047E+00 1.394E+05 2.434E+06 3.526E+06 6.099E+06 6.099E+06 1.949E+07 38.0811 1.00000
  5.623E+12 5.623E+12 4.067E+00 1.564E+05 2.731E+06 4.045E+06 6.932E+06 6.932E+06 1.958E+07 38.3114 1.00000
  6.310E+12 6.310E+12 4.087E+00 1.755E+05 3.064E+06 4.641E+06 7.880E+06 7.880E+06 1.968E+07 38.5416 1.00000
  7.079E+12 7.079E+12 4.107E+00 1.970E+05 3.438E+06 5.325E+06 8.959E+06 8.959E+06 1.977E+07 38.7719 1.00000
  7.943E+12 7.943E+12 4.127E+00 2.210E+05 3.857E+06 6.109E+06 1.019E+07 1.019E+07 1.986E+07 39.0021 1.00000
  8.913E+12 8.913E+12 4.147E+00 2.479E+05 4.327E+06 7.010E+06 1.159E+07 1.159E+07 1.995E+07 39.2324 1.00000
  1.000E+13 1.000E+13 4.167E+00 2.782E+05 4.855E+06 8.045E+06 1.318E+07 1.318E+07 2.004E+07 39.4627 1.00000
  1.122E+13 1.122E+13 4.188E+00 3.122E+05 5.447E+06 9.232E+06 1.499E+07 1.499E+07 2.012E+07 39.6929 1.00000
  1.259E+13 1.259E+13 4.208E+00 3.502E+05 6.111E+06 1.059E+07 1.706E+07 1.706E+07 2.021E+07 39.9232 1.00000
  1.413E+13 1.413E+13 4.229E+00 3.930E+05 6.857E+06 1.216E+07 1.941E+07 1.941E+07 2.029E+07 40.1534 1.00000
  1.585E+13 1.585E+13 4.249E+00 4.409E+05 7.693E+06 1.396E+07 2.209E+07 2.209E+07 2.038E+07 40.3837 1.00000
  1.778E+13 1.778E+13 4.270E+00 4.947E+05 8.631E+06 1.602E+07 2.514E+07 2.514E+07 2.046E+07 40.6139 1.00000
  1.995E+13 1.995E+13 4.291E+00 5.551E+05 9.684E+06 1.839E+07 2.863E+07 2.863E+07 2.054E+07 40.8442 1.00000
  2.239E+13 2.239E+13 4.312E+00 6.228E+05 1.087E+07 2.111E+07 3.259E+07 3.259E+07 2.062E+07 41.0745 1.00000
  2.512E+13 2.512E+13 4.333E+00 6.988E+05 1.219E+07 2.423E+07 3.712E+07 3.712E+07 2.070E+07 41.3047 1.00000
  2.818E+13 2.818E+13 4.354E+00 7.841E+05 1.368E+07 2.782E+07 4.228E+07 4.228E+07 2.078E+07 41.5350 1.00000
  3.162E+13 3.162E+13 4.376E+00 8.798E+05 1.534E+07 3.193E+07 4.816E+07 4.816E+07 2.085E+07 41.7652 1.00000
  3.548E+13 3.548E+13 4.397E+00 9.871E+05 1.722E+07 3.666E+07 5.487E+07 5.487E+07 2.093E+07 41.9955 1.00000
  3.981E+13 3.981E+13 4.419E+00 1.108E+06 1.932E+07 4.210E+07 6.252E+07 6.252E+07 2.100E+07 42.2258 1.00000
  4.467E+13 4.467E+13 4.440E+00 1.243E+06 2.167E+07 4.834E+07 7.125E+07 7.125E+07 2.107E+07 42.4560 1.00000
  5.012E+13 5.012E+13 4.462E+00 1.394E+06 2.431E+07 5.551E+07 8.121E+07 8.121E+07 2.115E+07 42.6863 1.00000
  5.623E+13 5.623E+13 4.484E+00 1.564E+06 2.728E+07 6.374E+07 9.258E+07 9.258E+07 2.122E+07 42.9165 1.00000
  6.310E+13 6.310E+13 4.506E+00 1.755E+06 3.061E+07 7.320E+07 1.056E+08 1.056E+08 2.129E+07 43.1468 1.00000
  7.079E+13 7.079E+13 4.528E+00 1.970E+06 3.434E+07 8.406E+07 1.204E+08 1.204E+08 2.135E+07 43.3770 1.00000
  7.943E+13 7.943E+13 4.551E+00 2.210E+06 3.853E+07 9.655E+07 1.373E+08 1.373E+08 2.142E+07 43.6073 1.00000
  8.913E+13 8.913E+13 4.573E+00 2.480E+06 4.323E+07 1.109E+08 1.566E+08 1.566E+08 2.149E+07 43.8376 1.00000
