 Incident particle is a Tau with M = 1776.82000 MeV
 Index = 0: LutetiumAluminumOxide2
      Absorber with <Z/A> = 0.43907
 Sternheimer coef:  a     k=m_s   x_0    x_1    I[eV]   Cbar  delta0
                 0.1858  3.0000  0.2000  3.0000  365.9  4.9994 0.00

 *** Table generated with PUMAS v1.00 ***

      T         p     Ionization  brems     pair     photonuc  Radloss    dE/dx   CSDA Range  delta   beta
    [MeV]    [MeV/c]  -----------------------[MeV cm^2/g]------------------------  [g/cm^2]
  1.000E+05 1.018E+05 1.803E+00 6.517E-04 1.134E-02 7.827E-03 1.982E-02 1.823E+00 2.742E+04  3.4522 0.99985
  1.122E+05 1.140E+05 1.822E+00 7.553E-04 1.359E-02 8.804E-03 2.315E-02 1.845E+00 3.408E+04  3.6381 0.99988
  1.259E+05 1.277E+05 1.840E+00 8.749E-04 1.623E-02 9.852E-03 2.696E-02 1.867E+00 4.145E+04  3.8275 0.99990
  1.413E+05 1.430E+05 1.858E+00 1.013E-03 1.933E-02 1.103E-02 3.138E-02 1.890E+00 4.963E+04  4.0204 0.99992
  1.585E+05 1.603E+05 1.876E+00 1.172E-03 2.297E-02 1.234E-02 3.648E-02 1.913E+00 5.870E+04  4.2164 0.99994
  1.778E+05 1.796E+05 1.894E+00 1.355E-03 2.722E-02 1.379E-02 4.237E-02 1.936E+00 6.875E+04  4.4156 0.99995
  1.995E+05 2.013E+05 1.912E+00 1.566E-03 3.218E-02 1.545E-02 4.920E-02 1.961E+00 7.988E+04  4.6177 0.99996
  2.239E+05 2.256E+05 1.929E+00 1.809E-03 3.796E-02 1.725E-02 5.702E-02 1.986E+00 9.222E+04  4.8226 0.99997
  2.512E+05 2.530E+05 1.947E+00 2.089E-03 4.467E-02 1.927E-02 6.603E-02 2.013E+00 1.059E+05  5.0301 0.99998
  2.818E+05 2.836E+05 1.964E+00 2.410E-03 5.247E-02 2.153E-02 7.641E-02 2.040E+00 1.210E+05  5.2402 0.99998
  3.162E+05 3.180E+05 1.981E+00 2.779E-03 6.149E-02 2.408E-02 8.835E-02 2.069E+00 1.377E+05  5.4526 0.99998
  3.548E+05 3.566E+05 1.998E+00 3.203E-03 7.193E-02 2.693E-02 1.021E-01 2.100E+00 1.563E+05  5.6671 0.99999
  3.981E+05 3.999E+05 2.015E+00 3.689E-03 8.398E-02 3.011E-02 1.178E-01 2.133E+00 1.767E+05  5.8838 0.99999
  4.467E+05 4.485E+05 2.031E+00 4.248E-03 9.787E-02 3.366E-02 1.358E-01 2.167E+00 1.993E+05  6.1023 0.99999
  5.012E+05 5.030E+05 2.048E+00 4.888E-03 1.139E-01 3.764E-02 1.564E-01 2.204E+00 2.242E+05  6.3226 0.99999
  5.623E+05 5.641E+05 2.064E+00 5.622E-03 1.322E-01 4.194E-02 1.798E-01 2.244E+00 2.517E+05  6.5445 1.00000
  6.310E+05 6.327E+05 2.081E+00 6.463E-03 1.533E-01 4.678E-02 2.066E-01 2.287E+00 2.820E+05  6.7678 1.00000
  7.079E+05 7.097E+05 2.097E+00 7.426E-03 1.775E-01 5.223E-02 2.372E-01 2.334E+00 3.154E+05  6.9925 1.00000
  7.943E+05 7.961E+05 2.113E+00 8.528E-03 2.053E-01 5.837E-02 2.722E-01 2.385E+00 3.520E+05  7.2183 1.00000
  8.913E+05 8.930E+05 2.128E+00 9.790E-03 2.369E-01 6.530E-02 3.120E-01 2.441E+00 3.921E+05  7.4451 1.00000
  1.000E+06 1.002E+06 2.144E+00 1.123E-02 2.732E-01 7.313E-02 3.575E-01 2.502E+00 4.362E+05  7.6729 1.00000
  1.122E+06 1.124E+06 2.160E+00 1.288E-02 3.145E-01 8.198E-02 4.093E-01 2.569E+00 4.843E+05  7.9013 1.00000
  1.259E+06 1.261E+06 2.175E+00 1.477E-02 3.616E-01 9.199E-02 4.683E-01 2.644E+00 5.368E+05  8.1304 1.00000
  1.413E+06 1.414E+06 2.191E+00 1.693E-02 4.152E-01 1.033E-01 5.355E-01 2.726E+00 5.941E+05  8.3599 1.00000
  1.585E+06 1.587E+06 2.206E+00 1.939E-02 4.763E-01 1.161E-01 6.118E-01 2.818E+00 6.563E+05  8.5898 1.00000
  1.778E+06 1.780E+06 2.221E+00 2.220E-02 5.457E-01 1.307E-01 6.985E-01 2.920E+00 7.237E+05  8.8197 1.00000
  1.995E+06 1.997E+06 2.236E+00 2.541E-02 6.245E-01 1.472E-01 7.970E-01 3.033E+00 7.966E+05  9.0498 1.00000
  2.239E+06 2.240E+06 2.251E+00 2.907E-02 7.139E-01 1.659E-01 9.088E-01 3.160E+00 8.753E+05  9.2799 1.00000
  2.512E+06 2.514E+06 2.266E+00 3.324E-02 8.153E-01 1.872E-01 1.036E+00 3.301E+00 9.599E+05  9.5099 1.00000
  2.818E+06 2.820E+06 2.280E+00 3.800E-02 9.301E-01 2.113E-01 1.179E+00 3.460E+00 1.051E+06  9.7400 1.00000
  3.162E+06 3.164E+06 2.295E+00 4.343E-02 1.060E+00 2.387E-01 1.342E+00 3.637E+00 1.148E+06  9.9702 1.00000
  3.548E+06 3.550E+06 2.309E+00 4.961E-02 1.207E+00 2.699E-01 1.527E+00 3.836E+00 1.251E+06 10.2003 1.00000
  3.981E+06 3.983E+06 2.323E+00 5.666E-02 1.374E+00 3.054E-01 1.736E+00 4.059E+00 1.361E+06 10.4305 1.00000
  4.467E+06 4.469E+06 2.337E+00 6.468E-02 1.562E+00 3.457E-01 1.972E+00 4.310E+00 1.477E+06 10.6606 1.00000
  5.012E+06 5.014E+06 2.351E+00 7.380E-02 1.774E+00 3.916E-01 2.240E+00 4.591E+00 1.599E+06 10.8908 1.00000
  5.623E+06 5.625E+06 2.365E+00 8.419E-02 2.014E+00 4.439E-01 2.542E+00 4.907E+00 1.728E+06 11.1210 1.00000
  6.310E+06 6.311E+06 2.379E+00 9.601E-02 2.285E+00 5.034E-01 2.884E+00 5.263E+00 1.863E+06 11.3512 1.00000
  7.079E+06 7.081E+06 2.392E+00 1.094E-01 2.590E+00 5.712E-01 3.270E+00 5.663E+00 2.005E+06 11.5814 1.00000
  7.943E+06 7.945E+06 2.406E+00 1.247E-01 2.934E+00 6.484E-01 3.707E+00 6.113E+00 2.152E+06 11.8116 1.00000
  8.913E+06 8.914E+06 2.419E+00 1.421E-01 3.321E+00 7.364E-01 4.200E+00 6.619E+00 2.304E+06 12.0418 1.00000
  1.000E+07 1.000E+07 2.432E+00 1.618E-01 3.758E+00 8.366E-01 4.756E+00 7.189E+00 2.462E+06 12.2720 1.00000
  1.122E+07 1.122E+07 2.445E+00 1.842E-01 4.250E+00 9.509E-01 5.385E+00 7.830E+00 2.625E+06 12.5022 1.00000
  1.259E+07 1.259E+07 2.458E+00 2.096E-01 4.803E+00 1.081E+00 6.094E+00 8.552E+00 2.792E+06 12.7324 1.00000
  1.413E+07 1.413E+07 2.471E+00 2.385E-01 5.426E+00 1.230E+00 6.894E+00 9.365E+00 2.964E+06 12.9627 1.00000
  1.585E+07 1.585E+07 2.484E+00 2.712E-01 6.127E+00 1.399E+00 7.798E+00 1.028E+01 3.140E+06 13.1929 1.00000
  1.778E+07 1.778E+07 2.496E+00 3.084E-01 6.916E+00 1.592E+00 8.816E+00 1.131E+01 3.319E+06 13.4231 1.00000
  1.995E+07 1.995E+07 2.509E+00 3.505E-01 7.803E+00 1.813E+00 9.966E+00 1.247E+01 3.502E+06 13.6534 1.00000
  2.239E+07 2.239E+07 2.521E+00 3.982E-01 8.800E+00 2.064E+00 1.126E+01 1.378E+01 3.688E+06 13.8836 1.00000
  2.512E+07 2.512E+07 2.534E+00 4.523E-01 9.920E+00 2.351E+00 1.272E+01 1.526E+01 3.877E+06 14.1138 1.00000
  2.818E+07 2.819E+07 2.546E+00 5.136E-01 1.118E+01 2.678E+00 1.437E+01 1.692E+01 4.068E+06 14.3441 1.00000
  3.162E+07 3.162E+07 2.558E+00 5.829E-01 1.260E+01 3.051E+00 1.623E+01 1.879E+01 4.261E+06 14.5743 1.00000
  3.548E+07 3.548E+07 2.570E+00 6.615E-01 1.419E+01 3.477E+00 1.833E+01 2.090E+01 4.456E+06 14.8046 1.00000
  3.981E+07 3.981E+07 2.583E+00 7.504E-01 1.597E+01 3.963E+00 2.069E+01 2.327E+01 4.652E+06 15.0348 1.00000
  4.467E+07 4.467E+07 2.595E+00 8.509E-01 1.798E+01 4.518E+00 2.335E+01 2.595E+01 4.850E+06 15.2651 1.00000
  5.012E+07 5.012E+07 2.607E+00 9.646E-01 2.024E+01 5.152E+00 2.635E+01 2.896E+01 5.050E+06 15.4953 1.00000
  5.623E+07 5.624E+07 2.619E+00 1.093E+00 2.277E+01 5.875E+00 2.974E+01 3.236E+01 5.250E+06 15.7256 1.00000
  6.310E+07 6.310E+07 2.631E+00 1.239E+00 2.561E+01 6.700E+00 3.355E+01 3.618E+01 5.451E+06 15.9558 1.00000
  7.079E+07 7.080E+07 2.644E+00 1.403E+00 2.881E+01 7.643E+00 3.785E+01 4.050E+01 5.652E+06 16.1861 1.00000
  7.943E+07 7.943E+07 2.656E+00 1.588E+00 3.239E+01 8.719E+00 4.270E+01 4.536E+01 5.854E+06 16.4163 1.00000
  8.913E+07 8.913E+07 2.668E+00 1.798E+00 3.642E+01 9.948E+00 4.817E+01 5.083E+01 6.056E+06 16.6466 1.00000
  1.000E+08 1.000E+08 2.680E+00 2.034E+00 4.094E+01 1.135E+01 5.433E+01 5.701E+01 6.258E+06 16.8768 1.00000
  1.122E+08 1.122E+08 2.693E+00 2.301E+00 4.602E+01 1.295E+01 6.127E+01 6.396E+01 6.461E+06 17.1071 1.00000
  1.259E+08 1.259E+08 2.705E+00 2.602E+00 5.171E+01 1.478E+01 6.910E+01 7.180E+01 6.663E+06 17.3373 1.00000
  1.413E+08 1.413E+08 2.717E+00 2.942E+00 5.811E+01 1.687E+01 7.792E+01 8.064E+01 6.865E+06 17.5676 1.00000
  1.585E+08 1.585E+08 2.730E+00 3.325E+00 6.529E+01 1.926E+01 8.787E+01 9.060E+01 7.067E+06 17.7979 1.00000
  1.778E+08 1.778E+08 2.742E+00 3.757E+00 7.334E+01 2.199E+01 9.909E+01 1.018E+02 7.269E+06 18.0281 1.00000
  1.995E+08 1.995E+08 2.755E+00 4.244E+00 8.238E+01 2.511E+01 1.117E+02 1.145E+02 7.470E+06 18.2584 1.00000
  2.239E+08 2.239E+08 2.767E+00 4.792E+00 9.253E+01 2.867E+01 1.260E+02 1.288E+02 7.671E+06 18.4886 1.00000
  2.512E+08 2.512E+08 2.780E+00 5.410E+00 1.039E+02 3.273E+01 1.421E+02 1.448E+02 7.871E+06 18.7189 1.00000
  2.818E+08 2.818E+08 2.792E+00 6.107E+00 1.167E+02 3.738E+01 1.602E+02 1.630E+02 8.071E+06 18.9491 1.00000
  3.162E+08 3.162E+08 2.805E+00 6.890E+00 1.310E+02 4.269E+01 1.806E+02 1.834E+02 8.271E+06 19.1794 1.00000
  3.548E+08 3.548E+08 2.818E+00 7.773E+00 1.471E+02 4.875E+01 2.037E+02 2.065E+02 8.469E+06 19.4097 1.00000
  3.981E+08 3.981E+08 2.831E+00 8.766E+00 1.652E+02 5.569E+01 2.297E+02 2.325E+02 8.667E+06 19.6399 1.00000
  4.467E+08 4.467E+08 2.843E+00 9.884E+00 1.855E+02 6.361E+01 2.590E+02 2.618E+02 8.864E+06 19.8702 1.00000
  5.012E+08 5.012E+08 2.856E+00 1.114E+01 2.082E+02 7.266E+01 2.920E+02 2.949E+02 9.061E+06 20.1004 1.00000
  5.623E+08 5.623E+08 2.869E+00 1.256E+01 2.338E+02 8.301E+01 3.293E+02 3.322E+02 9.257E+06 20.3307 1.00000
  6.310E+08 6.310E+08 2.882E+00 1.415E+01 2.624E+02 9.484E+01 3.714E+02 3.743E+02 9.452E+06 20.5609 1.00000
  7.079E+08 7.079E+08 2.895E+00 1.594E+01 2.945E+02 1.084E+02 4.188E+02 4.217E+02 9.646E+06 20.7912 1.00000
  7.943E+08 7.943E+08 2.909E+00 1.795E+01 3.306E+02 1.238E+02 4.724E+02 4.753E+02 9.839E+06 21.0215 1.00000
  8.913E+08 8.913E+08 2.922E+00 2.021E+01 3.711E+02 1.415E+02 5.328E+02 5.357E+02 1.003E+07 21.2517 1.00000
  1.000E+09 1.000E+09 2.935E+00 2.276E+01 4.165E+02 1.617E+02 6.009E+02 6.039E+02 1.022E+07 21.4820 1.00000
  1.122E+09 1.122E+09 2.949E+00 2.562E+01 4.675E+02 1.848E+02 6.778E+02 6.808E+02 1.041E+07 21.7122 1.00000
  1.259E+09 1.259E+09 2.962E+00 2.883E+01 5.246E+02 2.112E+02 7.646E+02 7.676E+02 1.060E+07 21.9425 1.00000
  1.413E+09 1.413E+09 2.975E+00 3.244E+01 5.888E+02 2.413E+02 8.626E+02 8.656E+02 1.079E+07 22.1727 1.00000
  1.585E+09 1.585E+09 2.989E+00 3.649E+01 6.608E+02 2.759E+02 9.731E+02 9.761E+02 1.098E+07 22.4030 1.00000
  1.778E+09 1.778E+09 3.003E+00 4.105E+01 7.416E+02 3.153E+02 1.098E+03 1.101E+03 1.117E+07 22.6333 1.00000
  1.995E+09 1.995E+09 3.017E+00 4.617E+01 8.322E+02 3.605E+02 1.239E+03 1.242E+03 1.135E+07 22.8635 1.00000
  2.239E+09 2.239E+09 3.030E+00 5.192E+01 9.339E+02 4.121E+02 1.398E+03 1.401E+03 1.154E+07 23.0938 1.00000
  2.512E+09 2.512E+09 3.044E+00 5.838E+01 1.048E+03 4.711E+02 1.577E+03 1.581E+03 1.172E+07 23.3240 1.00000
  2.818E+09 2.818E+09 3.058E+00 6.563E+01 1.176E+03 5.386E+02 1.780E+03 1.783E+03 1.190E+07 23.5543 1.00000
  3.162E+09 3.162E+09 3.072E+00 7.377E+01 1.320E+03 6.159E+02 2.009E+03 2.012E+03 1.209E+07 23.7846 1.00000
  3.548E+09 3.548E+09 3.086E+00 8.291E+01 1.481E+03 7.042E+02 2.268E+03 2.271E+03 1.227E+07 24.0148 1.00000
  3.981E+09 3.981E+09 3.101E+00 9.318E+01 1.662E+03 8.053E+02 2.560E+03 2.563E+03 1.245E+07 24.2451 1.00000
  4.467E+09 4.467E+09 3.115E+00 1.047E+02 1.865E+03 9.209E+02 2.890E+03 2.893E+03 1.263E+07 24.4753 1.00000
  5.012E+09 5.012E+09 3.129E+00 1.176E+02 2.092E+03 1.053E+03 3.263E+03 3.266E+03 1.280E+07 24.7056 1.00000
  5.623E+09 5.623E+09 3.144E+00 1.322E+02 2.348E+03 1.204E+03 3.684E+03 3.687E+03 1.298E+07 24.9358 1.00000
  6.310E+09 6.310E+09 3.158E+00 1.485E+02 2.634E+03 1.378E+03 4.160E+03 4.164E+03 1.316E+07 25.1661 1.00000
  7.079E+09 7.079E+09 3.173E+00 1.668E+02 2.956E+03 1.576E+03 4.698E+03 4.702E+03 1.333E+07 25.3964 1.00000
  7.943E+09 7.943E+09 3.188E+00 1.873E+02 3.317E+03 1.802E+03 5.306E+03 5.310E+03 1.350E+07 25.6266 1.00000
  8.913E+09 8.913E+09 3.202E+00 2.104E+02 3.722E+03 2.062E+03 5.994E+03 5.997E+03 1.367E+07 25.8569 1.00000
  1.000E+10 1.000E+10 3.217E+00 2.363E+02 4.176E+03 2.359E+03 6.771E+03 6.774E+03 1.385E+07 26.0871 1.00000
  1.122E+10 1.122E+10 3.232E+00 2.653E+02 4.685E+03 2.698E+03 7.649E+03 7.652E+03 1.402E+07 26.3174 1.00000
  1.259E+10 1.259E+10 3.247E+00 2.979E+02 5.257E+03 3.087E+03 8.643E+03 8.646E+03 1.418E+07 26.5477 1.00000
  1.413E+10 1.413E+10 3.262E+00 3.345E+02 5.899E+03 3.532E+03 9.766E+03 9.769E+03 1.435E+07 26.7779 1.00000
  1.585E+10 1.585E+10 3.278E+00 3.756E+02 6.619E+03 4.042E+03 1.104E+04 1.104E+04 1.452E+07 27.0082 1.00000
  1.778E+10 1.778E+10 3.293E+00 4.217E+02 7.426E+03 4.625E+03 1.247E+04 1.248E+04 1.468E+07 27.2384 1.00000
  1.995E+10 1.995E+10 3.308E+00 4.734E+02 8.333E+03 5.293E+03 1.410E+04 1.410E+04 1.485E+07 27.4687 1.00000
  2.239E+10 2.239E+10 3.324E+00 5.315E+02 9.349E+03 6.057E+03 1.594E+04 1.594E+04 1.501E+07 27.6990 1.00000
  2.512E+10 2.512E+10 3.339E+00 5.966E+02 1.049E+04 6.932E+03 1.802E+04 1.802E+04 1.517E+07 27.9292 1.00000
  2.818E+10 2.818E+10 3.355E+00 6.697E+02 1.177E+04 7.934E+03 2.037E+04 2.038E+04 1.533E+07 28.1595 1.00000
  3.162E+10 3.162E+10 3.371E+00 7.517E+02 1.321E+04 9.081E+03 2.304E+04 2.304E+04 1.549E+07 28.3897 1.00000
  3.548E+10 3.548E+10 3.386E+00 8.438E+02 1.482E+04 1.039E+04 2.606E+04 2.606E+04 1.565E+07 28.6200 1.00000
  3.981E+10 3.981E+10 3.402E+00 9.471E+02 1.663E+04 1.190E+04 2.947E+04 2.947E+04 1.580E+07 28.8502 1.00000
  4.467E+10 4.467E+10 3.418E+00 1.063E+03 1.865E+04 1.362E+04 3.334E+04 3.334E+04 1.596E+07 29.0805 1.00000
  5.012E+10 5.012E+10 3.434E+00 1.193E+03 2.093E+04 1.559E+04 3.772E+04 3.772E+04 1.611E+07 29.3108 1.00000
  5.623E+10 5.623E+10 3.451E+00 1.339E+03 2.348E+04 1.785E+04 4.268E+04 4.268E+04 1.627E+07 29.5410 1.00000
  6.310E+10 6.310E+10 3.467E+00 1.503E+03 2.635E+04 2.044E+04 4.829E+04 4.830E+04 1.642E+07 29.7713 1.00000
  7.079E+10 7.079E+10 3.483E+00 1.686E+03 2.956E+04 2.341E+04 5.465E+04 5.466E+04 1.657E+07 30.0015 1.00000
  7.943E+10 7.943E+10 3.500E+00 1.893E+03 3.317E+04 2.680E+04 6.186E+04 6.187E+04 1.672E+07 30.2318 1.00000
  8.913E+10 8.913E+10 3.516E+00 2.124E+03 3.722E+04 3.069E+04 7.003E+04 7.003E+04 1.686E+07 30.4621 1.00000
  1.000E+11 1.000E+11 3.533E+00 2.384E+03 4.176E+04 3.515E+04 7.928E+04 7.929E+04 1.701E+07 30.6923 1.00000
  1.122E+11 1.122E+11 3.549E+00 2.675E+03 4.685E+04 4.025E+04 8.977E+04 8.978E+04 1.716E+07 30.9226 1.00000
  1.259E+11 1.259E+11 3.566E+00 3.002E+03 5.256E+04 4.610E+04 1.017E+05 1.017E+05 1.730E+07 31.1528 1.00000
  1.413E+11 1.413E+11 3.583E+00 3.368E+03 5.898E+04 5.280E+04 1.151E+05 1.151E+05 1.744E+07 31.3831 1.00000
  1.585E+11 1.585E+11 3.600E+00 3.780E+03 6.617E+04 6.048E+04 1.304E+05 1.304E+05 1.758E+07 31.6133 1.00000
  1.778E+11 1.778E+11 3.617E+00 4.241E+03 7.424E+04 6.928E+04 1.478E+05 1.478E+05 1.772E+07 31.8436 1.00000
  1.995E+11 1.995E+11 3.635E+00 4.759E+03 8.330E+04 7.936E+04 1.674E+05 1.674E+05 1.786E+07 32.0739 1.00000
  2.239E+11 2.239E+11 3.652E+00 5.341E+03 9.346E+04 9.091E+04 1.897E+05 1.897E+05 1.800E+07 32.3041 1.00000
  2.512E+11 2.512E+11 3.669E+00 5.993E+03 1.049E+05 1.042E+05 2.150E+05 2.150E+05 1.813E+07 32.5344 1.00000
  2.818E+11 2.818E+11 3.687E+00 6.724E+03 1.177E+05 1.193E+05 2.437E+05 2.437E+05 1.827E+07 32.7646 1.00000
  3.162E+11 3.162E+11 3.704E+00 7.545E+03 1.320E+05 1.367E+05 2.763E+05 2.763E+05 1.840E+07 32.9949 1.00000
  3.548E+11 3.548E+11 3.722E+00 8.466E+03 1.481E+05 1.567E+05 3.132E+05 3.133E+05 1.853E+07 33.2252 1.00000
  3.981E+11 3.981E+11 3.740E+00 9.500E+03 1.662E+05 1.795E+05 3.552E+05 3.552E+05 1.866E+07 33.4554 1.00000
  4.467E+11 4.467E+11 3.758E+00 1.066E+04 1.864E+05 2.057E+05 4.028E+05 4.028E+05 1.879E+07 33.6857 1.00000
  5.012E+11 5.012E+11 3.776E+00 1.196E+04 2.092E+05 2.358E+05 4.569E+05 4.569E+05 1.892E+07 33.9159 1.00000
  5.623E+11 5.623E+11 3.794E+00 1.342E+04 2.347E+05 2.702E+05 5.183E+05 5.183E+05 1.904E+07 34.1462 1.00000
  6.310E+11 6.310E+11 3.812E+00 1.506E+04 2.633E+05 3.097E+05 5.881E+05 5.881E+05 1.917E+07 34.3764 1.00000
  7.079E+11 7.079E+11 3.830E+00 1.690E+04 2.955E+05 3.550E+05 6.673E+05 6.673E+05 1.929E+07 34.6067 1.00000
  7.943E+11 7.943E+11 3.849E+00 1.896E+04 3.315E+05 4.069E+05 7.574E+05 7.574E+05 1.941E+07 34.8370 1.00000
  8.913E+11 8.913E+11 3.867E+00 2.127E+04 3.719E+05 4.664E+05 8.596E+05 8.596E+05 1.953E+07 35.0672 1.00000
  1.000E+12 1.000E+12 3.886E+00 2.387E+04 4.173E+05 5.347E+05 9.759E+05 9.759E+05 1.965E+07 35.2975 1.00000
  1.122E+12 1.122E+12 3.905E+00 2.678E+04 4.682E+05 6.130E+05 1.108E+06 1.108E+06 1.977E+07 35.5277 1.00000
  1.259E+12 1.259E+12 3.923E+00 3.005E+04 5.253E+05 7.028E+05 1.258E+06 1.258E+06 1.989E+07 35.7580 1.00000
  1.413E+12 1.413E+12 3.942E+00 3.372E+04 5.894E+05 8.058E+05 1.429E+06 1.429E+06 2.000E+07 35.9883 1.00000
  1.585E+12 1.585E+12 3.961E+00 3.783E+04 6.613E+05 9.239E+05 1.623E+06 1.623E+06 2.011E+07 36.2185 1.00000
  1.778E+12 1.778E+12 3.980E+00 4.245E+04 7.419E+05 1.059E+06 1.844E+06 1.844E+06 2.023E+07 36.4488 1.00000
  1.995E+12 1.995E+12 4.000E+00 4.763E+04 8.324E+05 1.215E+06 2.095E+06 2.095E+06 2.034E+07 36.6790 1.00000
  2.239E+12 2.239E+12 4.019E+00 5.344E+04 9.340E+05 1.393E+06 2.381E+06 2.381E+06 2.045E+07 36.9093 1.00000
  2.512E+12 2.512E+12 4.038E+00 5.997E+04 1.048E+06 1.598E+06 2.706E+06 2.706E+06 2.055E+07 37.1395 1.00000
  2.818E+12 2.818E+12 4.058E+00 6.728E+04 1.176E+06 1.832E+06 3.075E+06 3.075E+06 2.066E+07 37.3698 1.00000
  3.162E+12 3.162E+12 4.078E+00 7.549E+04 1.319E+06 2.102E+06 3.496E+06 3.496E+06 2.076E+07 37.6001 1.00000
  3.548E+12 3.548E+12 4.097E+00 8.471E+04 1.480E+06 2.411E+06 3.975E+06 3.975E+06 2.087E+07 37.8303 1.00000
  3.981E+12 3.981E+12 4.117E+00 9.504E+04 1.661E+06 2.765E+06 4.521E+06 4.521E+06 2.097E+07 38.0606 1.00000
  4.467E+12 4.467E+12 4.137E+00 1.066E+05 1.863E+06 3.172E+06 5.142E+06 5.142E+06 2.107E+07 38.2908 1.00000
  5.012E+12 5.012E+12 4.157E+00 1.197E+05 2.090E+06 3.639E+06 5.849E+06 5.849E+06 2.117E+07 38.5211 1.00000
  5.623E+12 5.623E+12 4.178E+00 1.343E+05 2.345E+06 4.175E+06 6.654E+06 6.654E+06 2.127E+07 38.7514 1.00000
  6.310E+12 6.310E+12 4.198E+00 1.506E+05 2.631E+06 4.790E+06 7.571E+06 7.571E+06 2.137E+07 38.9816 1.00000
  7.079E+12 7.079E+12 4.218E+00 1.690E+05 2.952E+06 5.495E+06 8.616E+06 8.616E+06 2.146E+07 39.2119 1.00000
  7.943E+12 7.943E+12 4.239E+00 1.896E+05 3.312E+06 6.305E+06 9.807E+06 9.807E+06 2.156E+07 39.4421 1.00000
  8.913E+12 8.913E+12 4.260E+00 2.128E+05 3.716E+06 7.235E+06 1.116E+07 1.116E+07 2.165E+07 39.6724 1.00000
  1.000E+13 1.000E+13 4.280E+00 2.387E+05 4.169E+06 8.302E+06 1.271E+07 1.271E+07 2.174E+07 39.9027 1.00000
  1.122E+13 1.122E+13 4.301E+00 2.679E+05 4.678E+06 9.528E+06 1.447E+07 1.447E+07 2.183E+07 40.1329 1.00000
  1.259E+13 1.259E+13 4.322E+00 3.006E+05 5.249E+06 1.093E+07 1.648E+07 1.648E+07 2.192E+07 40.3632 1.00000
  1.413E+13 1.413E+13 4.343E+00 3.372E+05 5.889E+06 1.255E+07 1.877E+07 1.877E+07 2.201E+07 40.5934 1.00000
  1.585E+13 1.585E+13 4.364E+00 3.784E+05 6.607E+06 1.440E+07 2.139E+07 2.139E+07 2.209E+07 40.8237 1.00000
  1.778E+13 1.778E+13 4.386E+00 4.246E+05 7.413E+06 1.653E+07 2.437E+07 2.437E+07 2.218E+07 41.0539 1.00000
  1.995E+13 1.995E+13 4.407E+00 4.764E+05 8.317E+06 1.898E+07 2.777E+07 2.777E+07 2.226E+07 41.2842 1.00000
  2.239E+13 2.239E+13 4.429E+00 5.345E+05 9.331E+06 2.178E+07 3.165E+07 3.165E+07 2.234E+07 41.5145 1.00000
  2.512E+13 2.512E+13 4.450E+00 5.997E+05 1.047E+07 2.501E+07 3.607E+07 3.607E+07 2.242E+07 41.7447 1.00000
  2.818E+13 2.818E+13 4.472E+00 6.729E+05 1.175E+07 2.871E+07 4.113E+07 4.113E+07 2.250E+07 41.9750 1.00000
  3.162E+13 3.162E+13 4.494E+00 7.550E+05 1.318E+07 3.296E+07 4.689E+07 4.689E+07 2.258E+07 42.2052 1.00000
  3.548E+13 3.548E+13 4.516E+00 8.471E+05 1.479E+07 3.784E+07 5.347E+07 5.347E+07 2.266E+07 42.4355 1.00000
  3.981E+13 3.981E+13 4.538E+00 9.505E+05 1.659E+07 4.345E+07 6.099E+07 6.099E+07 2.274E+07 42.6658 1.00000
  4.467E+13 4.467E+13 4.561E+00 1.066E+06 1.861E+07 4.989E+07 6.956E+07 6.956E+07 2.281E+07 42.8960 1.00000
  5.012E+13 5.012E+13 4.583E+00 1.197E+06 2.088E+07 5.728E+07 7.936E+07 7.936E+07 2.288E+07 43.1263 1.00000
  5.623E+13 5.623E+13 4.606E+00 1.343E+06 2.343E+07 6.578E+07 9.055E+07 9.055E+07 2.296E+07 43.3565 1.00000
  6.310E+13 6.310E+13 4.628E+00 1.506E+06 2.628E+07 7.554E+07 1.033E+08 1.033E+08 2.303E+07 43.5868 1.00000
  7.079E+13 7.079E+13 4.651E+00 1.690E+06 2.949E+07 8.676E+07 1.179E+08 1.179E+08 2.310E+07 43.8170 1.00000
  7.943E+13 7.943E+13 4.674E+00 1.896E+06 3.309E+07 9.964E+07 1.346E+08 1.346E+08 2.317E+07 44.0473 1.00000
  8.913E+13 8.913E+13 4.697E+00 2.128E+06 3.712E+07 1.144E+08 1.537E+08 1.537E+08 2.323E+07 44.2776 1.00000
