 Incident particle is a Tau with M = 1776.82000 MeV
 Index = 0: LutetiumFluoride
      Absorber with <Z/A> = 0.42248
 Sternheimer coef:  a     k=m_s   x_0    x_1    I[eV]   Cbar  delta0
                 0.1986  3.0000  0.2214  3.0000  458.7  5.2803 0.00

 *** Table generated with PUMAS v1.00 ***

      T         p     Ionization  brems     pair     photonuc  Radloss    dE/dx   CSDA Range  delta   beta
    [MeV]    [MeV/c]  -----------------------[MeV cm^2/g]------------------------  [g/cm^2]
  1.000E+05 1.018E+05 1.723E+00 7.491E-04 1.312E-02 7.745E-03 2.162E-02 1.744E+00 2.867E+04  3.1959 0.99985
  1.122E+05 1.140E+05 1.740E+00 8.684E-04 1.572E-02 8.707E-03 2.529E-02 1.766E+00 3.562E+04  3.3789 0.99988
  1.259E+05 1.277E+05 1.758E+00 1.006E-03 1.877E-02 9.736E-03 2.951E-02 1.788E+00 4.333E+04  3.5658 0.99990
  1.413E+05 1.430E+05 1.776E+00 1.165E-03 2.235E-02 1.089E-02 3.440E-02 1.810E+00 5.187E+04  3.7562 0.99992
  1.585E+05 1.603E+05 1.793E+00 1.348E-03 2.654E-02 1.218E-02 4.007E-02 1.833E+00 6.133E+04  3.9501 0.99994
  1.778E+05 1.796E+05 1.811E+00 1.559E-03 3.145E-02 1.360E-02 4.661E-02 1.857E+00 7.181E+04  4.1473 0.99995
  1.995E+05 2.013E+05 1.828E+00 1.802E-03 3.717E-02 1.523E-02 5.421E-02 1.882E+00 8.341E+04  4.3476 0.99996
  2.239E+05 2.256E+05 1.845E+00 2.082E-03 4.384E-02 1.699E-02 6.292E-02 1.908E+00 9.626E+04  4.5509 0.99997
  2.512E+05 2.530E+05 1.862E+00 2.404E-03 5.159E-02 1.896E-02 7.296E-02 1.935E+00 1.105E+05  4.7570 0.99998
  2.818E+05 2.836E+05 1.878E+00 2.774E-03 6.058E-02 2.118E-02 8.453E-02 1.963E+00 1.262E+05  4.9658 0.99998
  3.162E+05 3.180E+05 1.895E+00 3.199E-03 7.099E-02 2.367E-02 9.786E-02 1.993E+00 1.436E+05  5.1770 0.99998
  3.548E+05 3.566E+05 1.911E+00 3.688E-03 8.302E-02 2.646E-02 1.132E-01 2.024E+00 1.628E+05  5.3906 0.99999
  3.981E+05 3.999E+05 1.927E+00 4.249E-03 9.691E-02 2.956E-02 1.307E-01 2.058E+00 1.840E+05  5.6063 0.99999
  4.467E+05 4.485E+05 1.943E+00 4.892E-03 1.129E-01 3.302E-02 1.508E-01 2.094E+00 2.074E+05  5.8241 0.99999
  5.012E+05 5.030E+05 1.959E+00 5.630E-03 1.314E-01 3.691E-02 1.739E-01 2.133E+00 2.332E+05  6.0438 0.99999
  5.623E+05 5.641E+05 1.975E+00 6.476E-03 1.525E-01 4.110E-02 2.001E-01 2.175E+00 2.616E+05  6.2651 1.00000
  6.310E+05 6.327E+05 1.991E+00 7.445E-03 1.768E-01 4.582E-02 2.301E-01 2.221E+00 2.928E+05  6.4881 1.00000
  7.079E+05 7.097E+05 2.006E+00 8.555E-03 2.047E-01 5.112E-02 2.644E-01 2.271E+00 3.271E+05  6.7124 1.00000
  7.943E+05 7.961E+05 2.022E+00 9.826E-03 2.366E-01 5.711E-02 3.036E-01 2.325E+00 3.647E+05  6.9379 1.00000
  8.913E+05 8.930E+05 2.037E+00 1.128E-02 2.731E-01 6.385E-02 3.483E-01 2.385E+00 4.059E+05  7.1646 1.00000
  1.000E+06 1.002E+06 2.052E+00 1.294E-02 3.148E-01 7.147E-02 3.992E-01 2.451E+00 4.508E+05  7.3922 1.00000
  1.122E+06 1.124E+06 2.067E+00 1.485E-02 3.624E-01 8.007E-02 4.573E-01 2.524E+00 4.999E+05  7.6205 1.00000
  1.259E+06 1.261E+06 2.082E+00 1.702E-02 4.166E-01 8.981E-02 5.234E-01 2.605E+00 5.533E+05  7.8496 1.00000
  1.413E+06 1.414E+06 2.097E+00 1.951E-02 4.783E-01 1.008E-01 5.986E-01 2.695E+00 6.113E+05  8.0790 1.00000
  1.585E+06 1.587E+06 2.111E+00 2.235E-02 5.485E-01 1.133E-01 6.841E-01 2.796E+00 6.741E+05  8.3089 1.00000
  1.778E+06 1.780E+06 2.126E+00 2.559E-02 6.283E-01 1.274E-01 7.813E-01 2.907E+00 7.419E+05  8.5388 1.00000
  1.995E+06 1.997E+06 2.140E+00 2.929E-02 7.189E-01 1.435E-01 8.917E-01 3.032E+00 8.150E+05  8.7689 1.00000
  2.239E+06 2.240E+06 2.155E+00 3.351E-02 8.217E-01 1.616E-01 1.017E+00 3.172E+00 8.935E+05  8.9990 1.00000
  2.512E+06 2.514E+06 2.169E+00 3.832E-02 9.383E-01 1.823E-01 1.159E+00 3.328E+00 9.776E+05  9.2290 1.00000
  2.818E+06 2.820E+06 2.183E+00 4.381E-02 1.070E+00 2.057E-01 1.320E+00 3.503E+00 1.067E+06  9.4591 1.00000
  3.162E+06 3.164E+06 2.197E+00 5.006E-02 1.220E+00 2.324E-01 1.502E+00 3.699E+00 1.163E+06  9.6893 1.00000
  3.548E+06 3.550E+06 2.211E+00 5.719E-02 1.389E+00 2.627E-01 1.709E+00 3.920E+00 1.264E+06  9.9194 1.00000
  3.981E+06 3.983E+06 2.224E+00 6.531E-02 1.580E+00 2.971E-01 1.942E+00 4.167E+00 1.372E+06 10.1496 1.00000
  4.467E+06 4.469E+06 2.238E+00 7.455E-02 1.796E+00 3.363E-01 2.207E+00 4.445E+00 1.485E+06 10.3797 1.00000
  5.012E+06 5.014E+06 2.251E+00 8.507E-02 2.040E+00 3.809E-01 2.506E+00 4.757E+00 1.603E+06 10.6099 1.00000
  5.623E+06 5.625E+06 2.265E+00 9.704E-02 2.315E+00 4.316E-01 2.844E+00 5.109E+00 1.727E+06 10.8401 1.00000
  6.310E+06 6.311E+06 2.278E+00 1.107E-01 2.626E+00 4.894E-01 3.226E+00 5.504E+00 1.857E+06 11.0703 1.00000
  7.079E+06 7.081E+06 2.291E+00 1.261E-01 2.976E+00 5.552E-01 3.658E+00 5.948E+00 1.991E+06 11.3005 1.00000
  7.943E+06 7.945E+06 2.304E+00 1.437E-01 3.371E+00 6.301E-01 4.145E+00 6.449E+00 2.131E+06 11.5307 1.00000
  8.913E+06 8.914E+06 2.317E+00 1.637E-01 3.816E+00 7.155E-01 4.695E+00 7.012E+00 2.275E+06 11.7609 1.00000
  1.000E+07 1.000E+07 2.329E+00 1.865E-01 4.317E+00 8.128E-01 5.316E+00 7.646E+00 2.424E+06 11.9911 1.00000
  1.122E+07 1.122E+07 2.342E+00 2.123E-01 4.881E+00 9.237E-01 6.017E+00 8.359E+00 2.577E+06 12.2213 1.00000
  1.259E+07 1.259E+07 2.354E+00 2.416E-01 5.517E+00 1.050E+00 6.808E+00 9.162E+00 2.733E+06 12.4515 1.00000
  1.413E+07 1.413E+07 2.366E+00 2.748E-01 6.231E+00 1.194E+00 7.700E+00 1.007E+01 2.893E+06 12.6818 1.00000
  1.585E+07 1.585E+07 2.379E+00 3.125E-01 7.036E+00 1.359E+00 8.707E+00 1.109E+01 3.057E+06 12.9120 1.00000
  1.778E+07 1.778E+07 2.391E+00 3.553E-01 7.940E+00 1.546E+00 9.842E+00 1.223E+01 3.223E+06 13.1422 1.00000
  1.995E+07 1.995E+07 2.403E+00 4.038E-01 8.957E+00 1.760E+00 1.112E+01 1.352E+01 3.392E+06 13.3725 1.00000
  2.239E+07 2.239E+07 2.415E+00 4.588E-01 1.010E+01 2.004E+00 1.256E+01 1.498E+01 3.563E+06 13.6027 1.00000
  2.512E+07 2.512E+07 2.427E+00 5.210E-01 1.139E+01 2.282E+00 1.419E+01 1.662E+01 3.737E+06 13.8329 1.00000
  2.818E+07 2.819E+07 2.439E+00 5.916E-01 1.283E+01 2.600E+00 1.602E+01 1.846E+01 3.912E+06 14.0632 1.00000
  3.162E+07 3.162E+07 2.450E+00 6.715E-01 1.446E+01 2.962E+00 1.809E+01 2.054E+01 4.089E+06 14.2934 1.00000
  3.548E+07 3.548E+07 2.462E+00 7.619E-01 1.628E+01 3.375E+00 2.042E+01 2.288E+01 4.267E+06 14.5237 1.00000
  3.981E+07 3.981E+07 2.474E+00 8.642E-01 1.833E+01 3.847E+00 2.304E+01 2.551E+01 4.446E+06 14.7539 1.00000
  4.467E+07 4.467E+07 2.486E+00 9.799E-01 2.063E+01 4.386E+00 2.600E+01 2.848E+01 4.627E+06 14.9842 1.00000
  5.012E+07 5.012E+07 2.498E+00 1.111E+00 2.322E+01 5.000E+00 2.933E+01 3.183E+01 4.808E+06 15.2144 1.00000
  5.623E+07 5.624E+07 2.509E+00 1.259E+00 2.612E+01 5.702E+00 3.308E+01 3.559E+01 4.990E+06 15.4447 1.00000
  6.310E+07 6.310E+07 2.521E+00 1.426E+00 2.938E+01 6.503E+00 3.731E+01 3.983E+01 5.173E+06 15.6749 1.00000
  7.079E+07 7.080E+07 2.533E+00 1.615E+00 3.305E+01 7.418E+00 4.208E+01 4.461E+01 5.356E+06 15.9052 1.00000
  7.943E+07 7.943E+07 2.544E+00 1.828E+00 3.716E+01 8.462E+00 4.745E+01 4.999E+01 5.539E+06 16.1354 1.00000
  8.913E+07 8.913E+07 2.556E+00 2.069E+00 4.177E+01 9.655E+00 5.350E+01 5.605E+01 5.722E+06 16.3657 1.00000
  1.000E+08 1.000E+08 2.568E+00 2.341E+00 4.696E+01 1.102E+01 6.031E+01 6.288E+01 5.906E+06 16.5959 1.00000
  1.122E+08 1.122E+08 2.580E+00 2.648E+00 5.278E+01 1.257E+01 6.800E+01 7.058E+01 6.089E+06 16.8262 1.00000
  1.259E+08 1.259E+08 2.592E+00 2.995E+00 5.931E+01 1.435E+01 7.665E+01 7.924E+01 6.273E+06 17.0564 1.00000
  1.413E+08 1.413E+08 2.604E+00 3.385E+00 6.664E+01 1.638E+01 8.640E+01 8.900E+01 6.456E+06 17.2867 1.00000
  1.585E+08 1.585E+08 2.615E+00 3.826E+00 7.487E+01 1.869E+01 9.739E+01 1.000E+02 6.639E+06 17.5170 1.00000
  1.778E+08 1.778E+08 2.627E+00 4.322E+00 8.410E+01 2.134E+01 1.098E+02 1.124E+02 6.821E+06 17.7472 1.00000
  1.995E+08 1.995E+08 2.639E+00 4.882E+00 9.447E+01 2.436E+01 1.237E+02 1.264E+02 7.004E+06 17.9775 1.00000
  2.239E+08 2.239E+08 2.651E+00 5.513E+00 1.061E+02 2.782E+01 1.394E+02 1.421E+02 7.186E+06 18.2077 1.00000
  2.512E+08 2.512E+08 2.664E+00 6.223E+00 1.192E+02 3.176E+01 1.571E+02 1.598E+02 7.367E+06 18.4380 1.00000
  2.818E+08 2.818E+08 2.676E+00 7.023E+00 1.338E+02 3.627E+01 1.771E+02 1.798E+02 7.549E+06 18.6682 1.00000
  3.162E+08 3.162E+08 2.688E+00 7.924E+00 1.503E+02 4.143E+01 1.996E+02 2.023E+02 7.729E+06 18.8985 1.00000
  3.548E+08 3.548E+08 2.700E+00 8.938E+00 1.687E+02 4.731E+01 2.250E+02 2.277E+02 7.909E+06 19.1288 1.00000
  3.981E+08 3.981E+08 2.712E+00 1.008E+01 1.894E+02 5.404E+01 2.535E+02 2.563E+02 8.089E+06 19.3590 1.00000
  4.467E+08 4.467E+08 2.725E+00 1.136E+01 2.127E+02 6.173E+01 2.858E+02 2.885E+02 8.268E+06 19.5893 1.00000
  5.012E+08 5.012E+08 2.737E+00 1.281E+01 2.387E+02 7.051E+01 3.221E+02 3.248E+02 8.446E+06 19.8195 1.00000
  5.623E+08 5.623E+08 2.750E+00 1.443E+01 2.680E+02 8.056E+01 3.630E+02 3.657E+02 8.624E+06 20.0498 1.00000
  6.310E+08 6.310E+08 2.762E+00 1.626E+01 3.008E+02 9.203E+01 4.091E+02 4.119E+02 8.801E+06 20.2800 1.00000
  7.079E+08 7.079E+08 2.775E+00 1.832E+01 3.377E+02 1.052E+02 4.612E+02 4.639E+02 8.978E+06 20.5103 1.00000
  7.943E+08 7.943E+08 2.788E+00 2.063E+01 3.790E+02 1.201E+02 5.198E+02 5.226E+02 9.153E+06 20.7406 1.00000
  8.913E+08 8.913E+08 2.800E+00 2.323E+01 4.254E+02 1.373E+02 5.860E+02 5.888E+02 9.328E+06 20.9708 1.00000
  1.000E+09 1.000E+09 2.813E+00 2.615E+01 4.775E+02 1.569E+02 6.605E+02 6.633E+02 9.503E+06 21.2011 1.00000
  1.122E+09 1.122E+09 2.826E+00 2.943E+01 5.359E+02 1.793E+02 7.446E+02 7.475E+02 9.676E+06 21.4313 1.00000
  1.259E+09 1.259E+09 2.839E+00 3.312E+01 6.015E+02 2.049E+02 8.395E+02 8.423E+02 9.849E+06 21.6616 1.00000
  1.413E+09 1.413E+09 2.852E+00 3.727E+01 6.750E+02 2.342E+02 9.465E+02 9.493E+02 1.002E+07 21.8918 1.00000
  1.585E+09 1.585E+09 2.865E+00 4.192E+01 7.575E+02 2.677E+02 1.067E+03 1.070E+03 1.019E+07 22.1221 1.00000
  1.778E+09 1.778E+09 2.878E+00 4.715E+01 8.501E+02 3.060E+02 1.203E+03 1.206E+03 1.036E+07 22.3524 1.00000
  1.995E+09 1.995E+09 2.891E+00 5.303E+01 9.540E+02 3.498E+02 1.357E+03 1.360E+03 1.053E+07 22.5826 1.00000
  2.239E+09 2.239E+09 2.905E+00 5.963E+01 1.071E+03 3.999E+02 1.530E+03 1.533E+03 1.070E+07 22.8129 1.00000
  2.512E+09 2.512E+09 2.918E+00 6.704E+01 1.201E+03 4.572E+02 1.726E+03 1.729E+03 1.087E+07 23.0431 1.00000
  2.818E+09 2.818E+09 2.932E+00 7.536E+01 1.348E+03 5.227E+02 1.946E+03 1.949E+03 1.104E+07 23.2734 1.00000
  3.162E+09 3.162E+09 2.945E+00 8.471E+01 1.513E+03 5.976E+02 2.195E+03 2.198E+03 1.120E+07 23.5037 1.00000
  3.548E+09 3.548E+09 2.959E+00 9.520E+01 1.698E+03 6.834E+02 2.476E+03 2.479E+03 1.137E+07 23.7339 1.00000
  3.981E+09 3.981E+09 2.972E+00 1.070E+02 1.905E+03 7.814E+02 2.793E+03 2.796E+03 1.153E+07 23.9642 1.00000
  4.467E+09 4.467E+09 2.986E+00 1.202E+02 2.138E+03 8.936E+02 3.151E+03 3.154E+03 1.170E+07 24.1944 1.00000
  5.012E+09 5.012E+09 3.000E+00 1.351E+02 2.398E+03 1.022E+03 3.556E+03 3.559E+03 1.186E+07 24.4247 1.00000
  5.623E+09 5.623E+09 3.014E+00 1.517E+02 2.691E+03 1.169E+03 4.012E+03 4.015E+03 1.202E+07 24.6549 1.00000
  6.310E+09 6.310E+09 3.028E+00 1.704E+02 3.020E+03 1.337E+03 4.527E+03 4.530E+03 1.218E+07 24.8852 1.00000
  7.079E+09 7.079E+09 3.042E+00 1.915E+02 3.389E+03 1.529E+03 5.109E+03 5.112E+03 1.234E+07 25.1155 1.00000
  7.943E+09 7.943E+09 3.056E+00 2.150E+02 3.802E+03 1.749E+03 5.766E+03 5.769E+03 1.250E+07 25.3457 1.00000
  8.913E+09 8.913E+09 3.070E+00 2.415E+02 4.266E+03 2.001E+03 6.508E+03 6.512E+03 1.266E+07 25.5760 1.00000
  1.000E+10 1.000E+10 3.085E+00 2.712E+02 4.787E+03 2.289E+03 7.347E+03 7.350E+03 1.282E+07 25.8062 1.00000
  1.122E+10 1.122E+10 3.099E+00 3.045E+02 5.371E+03 2.619E+03 8.294E+03 8.297E+03 1.298E+07 26.0365 1.00000
  1.259E+10 1.259E+10 3.113E+00 3.419E+02 6.027E+03 2.996E+03 9.364E+03 9.368E+03 1.313E+07 26.2668 1.00000
  1.413E+10 1.413E+10 3.128E+00 3.839E+02 6.762E+03 3.428E+03 1.057E+04 1.058E+04 1.329E+07 26.4970 1.00000
  1.585E+10 1.585E+10 3.143E+00 4.310E+02 7.587E+03 3.922E+03 1.194E+04 1.194E+04 1.344E+07 26.7273 1.00000
  1.778E+10 1.778E+10 3.157E+00 4.839E+02 8.513E+03 4.488E+03 1.349E+04 1.349E+04 1.359E+07 26.9575 1.00000
  1.995E+10 1.995E+10 3.172E+00 5.433E+02 9.552E+03 5.136E+03 1.523E+04 1.523E+04 1.374E+07 27.1878 1.00000
  2.239E+10 2.239E+10 3.187E+00 6.099E+02 1.072E+04 5.878E+03 1.721E+04 1.721E+04 1.389E+07 27.4181 1.00000
  2.512E+10 2.512E+10 3.202E+00 6.846E+02 1.203E+04 6.727E+03 1.944E+04 1.944E+04 1.404E+07 27.6483 1.00000
  2.818E+10 2.818E+10 3.217E+00 7.685E+02 1.349E+04 7.699E+03 2.196E+04 2.196E+04 1.419E+07 27.8786 1.00000
  3.162E+10 3.162E+10 3.232E+00 8.626E+02 1.514E+04 8.812E+03 2.481E+04 2.482E+04 1.434E+07 28.1088 1.00000
  3.548E+10 3.548E+10 3.247E+00 9.682E+02 1.699E+04 1.009E+04 2.804E+04 2.804E+04 1.449E+07 28.3391 1.00000
  3.981E+10 3.981E+10 3.263E+00 1.087E+03 1.906E+04 1.155E+04 3.169E+04 3.169E+04 1.463E+07 28.5693 1.00000
  4.467E+10 4.467E+10 3.278E+00 1.220E+03 2.138E+04 1.322E+04 3.582E+04 3.582E+04 1.478E+07 28.7996 1.00000
  5.012E+10 5.012E+10 3.293E+00 1.369E+03 2.399E+04 1.513E+04 4.049E+04 4.050E+04 1.492E+07 29.0299 1.00000
  5.623E+10 5.623E+10 3.309E+00 1.536E+03 2.692E+04 1.732E+04 4.578E+04 4.578E+04 1.506E+07 29.2601 1.00000
  6.310E+10 6.310E+10 3.325E+00 1.724E+03 3.020E+04 1.984E+04 5.176E+04 5.177E+04 1.520E+07 29.4904 1.00000
  7.079E+10 7.079E+10 3.340E+00 1.935E+03 3.389E+04 2.271E+04 5.854E+04 5.854E+04 1.534E+07 29.7206 1.00000
  7.943E+10 7.943E+10 3.356E+00 2.171E+03 3.802E+04 2.601E+04 6.620E+04 6.620E+04 1.548E+07 29.9509 1.00000
  8.913E+10 8.913E+10 3.372E+00 2.437E+03 4.266E+04 2.978E+04 7.488E+04 7.488E+04 1.562E+07 30.1812 1.00000
  1.000E+11 1.000E+11 3.388E+00 2.735E+03 4.787E+04 3.410E+04 8.471E+04 8.471E+04 1.576E+07 30.4114 1.00000
  1.122E+11 1.122E+11 3.404E+00 3.069E+03 5.371E+04 3.906E+04 9.583E+04 9.584E+04 1.589E+07 30.6417 1.00000
  1.259E+11 1.259E+11 3.420E+00 3.444E+03 6.026E+04 4.473E+04 1.084E+05 1.084E+05 1.603E+07 30.8719 1.00000
  1.413E+11 1.413E+11 3.437E+00 3.864E+03 6.761E+04 5.124E+04 1.227E+05 1.227E+05 1.616E+07 31.1022 1.00000
  1.585E+11 1.585E+11 3.453E+00 4.336E+03 7.586E+04 5.869E+04 1.389E+05 1.389E+05 1.629E+07 31.3324 1.00000
  1.778E+11 1.778E+11 3.470E+00 4.866E+03 8.511E+04 6.722E+04 1.572E+05 1.572E+05 1.642E+07 31.5627 1.00000
  1.995E+11 1.995E+11 3.486E+00 5.460E+03 9.549E+04 7.701E+04 1.780E+05 1.780E+05 1.655E+07 31.7930 1.00000
  2.239E+11 2.239E+11 3.503E+00 6.127E+03 1.071E+05 8.822E+04 2.015E+05 2.015E+05 1.668E+07 32.0232 1.00000
  2.512E+11 2.512E+11 3.520E+00 6.875E+03 1.202E+05 1.011E+05 2.282E+05 2.282E+05 1.681E+07 32.2535 1.00000
  2.818E+11 2.818E+11 3.536E+00 7.714E+03 1.349E+05 1.158E+05 2.584E+05 2.584E+05 1.694E+07 32.4837 1.00000
  3.162E+11 3.162E+11 3.553E+00 8.656E+03 1.513E+05 1.327E+05 2.927E+05 2.927E+05 1.706E+07 32.7140 1.00000
  3.548E+11 3.548E+11 3.570E+00 9.713E+03 1.698E+05 1.520E+05 3.315E+05 3.315E+05 1.719E+07 32.9443 1.00000
  3.981E+11 3.981E+11 3.587E+00 1.090E+04 1.905E+05 1.742E+05 3.756E+05 3.756E+05 1.731E+07 33.1745 1.00000
  4.467E+11 4.467E+11 3.605E+00 1.223E+04 2.137E+05 1.996E+05 4.256E+05 4.256E+05 1.743E+07 33.4048 1.00000
  5.012E+11 5.012E+11 3.622E+00 1.372E+04 2.398E+05 2.288E+05 4.823E+05 4.823E+05 1.755E+07 33.6350 1.00000
  5.623E+11 5.623E+11 3.639E+00 1.540E+04 2.691E+05 2.622E+05 5.467E+05 5.467E+05 1.767E+07 33.8653 1.00000
  6.310E+11 6.310E+11 3.657E+00 1.728E+04 3.019E+05 3.005E+05 6.197E+05 6.197E+05 1.779E+07 34.0955 1.00000
  7.079E+11 7.079E+11 3.675E+00 1.938E+04 3.387E+05 3.445E+05 7.025E+05 7.026E+05 1.791E+07 34.3258 1.00000
  7.943E+11 7.943E+11 3.692E+00 2.175E+04 3.800E+05 3.948E+05 7.966E+05 7.966E+05 1.802E+07 34.5561 1.00000
  8.913E+11 8.913E+11 3.710E+00 2.440E+04 4.264E+05 4.526E+05 9.034E+05 9.034E+05 1.814E+07 34.7863 1.00000
  1.000E+12 1.000E+12 3.728E+00 2.738E+04 4.784E+05 5.189E+05 1.025E+06 1.025E+06 1.825E+07 35.0166 1.00000
  1.122E+12 1.122E+12 3.746E+00 3.072E+04 5.367E+05 5.948E+05 1.162E+06 1.162E+06 1.836E+07 35.2468 1.00000
  1.259E+12 1.259E+12 3.764E+00 3.447E+04 6.022E+05 6.820E+05 1.319E+06 1.319E+06 1.847E+07 35.4771 1.00000
  1.413E+12 1.413E+12 3.782E+00 3.868E+04 6.756E+05 7.819E+05 1.496E+06 1.496E+06 1.858E+07 35.7074 1.00000
  1.585E+12 1.585E+12 3.801E+00 4.340E+04 7.581E+05 8.965E+05 1.698E+06 1.698E+06 1.869E+07 35.9376 1.00000
  1.778E+12 1.778E+12 3.819E+00 4.870E+04 8.505E+05 1.028E+06 1.927E+06 1.927E+06 1.880E+07 36.1679 1.00000
  1.995E+12 1.995E+12 3.837E+00 5.464E+04 9.543E+05 1.179E+06 2.188E+06 2.188E+06 1.890E+07 36.3981 1.00000
  2.239E+12 2.239E+12 3.856E+00 6.131E+04 1.071E+06 1.352E+06 2.484E+06 2.484E+06 1.901E+07 36.6284 1.00000
  2.512E+12 2.512E+12 3.875E+00 6.879E+04 1.201E+06 1.550E+06 2.820E+06 2.820E+06 1.911E+07 36.8586 1.00000
  2.818E+12 2.818E+12 3.894E+00 7.718E+04 1.348E+06 1.778E+06 3.203E+06 3.203E+06 1.921E+07 37.0889 1.00000
  3.162E+12 3.162E+12 3.912E+00 8.660E+04 1.512E+06 2.039E+06 3.638E+06 3.638E+06 1.932E+07 37.3192 1.00000
  3.548E+12 3.548E+12 3.932E+00 9.717E+04 1.697E+06 2.339E+06 4.133E+06 4.133E+06 1.941E+07 37.5494 1.00000
  3.981E+12 3.981E+12 3.951E+00 1.090E+05 1.904E+06 2.683E+06 4.696E+06 4.696E+06 1.951E+07 37.7797 1.00000
  4.467E+12 4.467E+12 3.970E+00 1.223E+05 2.136E+06 3.078E+06 5.336E+06 5.336E+06 1.961E+07 38.0099 1.00000
  5.012E+12 5.012E+12 3.989E+00 1.373E+05 2.396E+06 3.531E+06 6.064E+06 6.065E+06 1.971E+07 38.2402 1.00000
  5.623E+12 5.623E+12 4.009E+00 1.540E+05 2.688E+06 4.051E+06 6.893E+06 6.893E+06 1.980E+07 38.4705 1.00000
  6.310E+12 6.310E+12 4.028E+00 1.728E+05 3.016E+06 4.648E+06 7.837E+06 7.837E+06 1.989E+07 38.7007 1.00000
  7.079E+12 7.079E+12 4.048E+00 1.939E+05 3.384E+06 5.333E+06 8.911E+06 8.911E+06 1.999E+07 38.9310 1.00000
  7.943E+12 7.943E+12 4.068E+00 2.175E+05 3.797E+06 6.119E+06 1.013E+07 1.013E+07 2.008E+07 39.1612 1.00000
  8.913E+12 8.913E+12 4.087E+00 2.441E+05 4.260E+06 7.021E+06 1.152E+07 1.152E+07 2.017E+07 39.3915 1.00000
  1.000E+13 1.000E+13 4.107E+00 2.739E+05 4.780E+06 8.056E+06 1.311E+07 1.311E+07 2.026E+07 39.6218 1.00000
  1.122E+13 1.122E+13 4.128E+00 3.073E+05 5.363E+06 9.245E+06 1.492E+07 1.492E+07 2.034E+07 39.8520 1.00000
  1.259E+13 1.259E+13 4.148E+00 3.448E+05 6.017E+06 1.061E+07 1.697E+07 1.697E+07 2.043E+07 40.0823 1.00000
  1.413E+13 1.413E+13 4.168E+00 3.869E+05 6.750E+06 1.218E+07 1.931E+07 1.931E+07 2.052E+07 40.3125 1.00000
  1.585E+13 1.585E+13 4.188E+00 4.341E+05 7.574E+06 1.398E+07 2.198E+07 2.198E+07 2.060E+07 40.5428 1.00000
  1.778E+13 1.778E+13 4.209E+00 4.870E+05 8.497E+06 1.604E+07 2.503E+07 2.503E+07 2.068E+07 40.7730 1.00000
  1.995E+13 1.995E+13 4.230E+00 5.464E+05 9.534E+06 1.841E+07 2.849E+07 2.849E+07 2.076E+07 41.0033 1.00000
  2.239E+13 2.239E+13 4.250E+00 6.131E+05 1.070E+07 2.114E+07 3.245E+07 3.245E+07 2.084E+07 41.2336 1.00000
  2.512E+13 2.512E+13 4.271E+00 6.879E+05 1.200E+07 2.427E+07 3.695E+07 3.695E+07 2.092E+07 41.4638 1.00000
  2.818E+13 2.818E+13 4.292E+00 7.719E+05 1.346E+07 2.786E+07 4.209E+07 4.209E+07 2.100E+07 41.6941 1.00000
  3.162E+13 3.162E+13 4.313E+00 8.661E+05 1.511E+07 3.198E+07 4.795E+07 4.795E+07 2.108E+07 41.9243 1.00000
  3.548E+13 3.548E+13 4.335E+00 9.717E+05 1.695E+07 3.672E+07 5.464E+07 5.464E+07 2.115E+07 42.1546 1.00000
  3.981E+13 3.981E+13 4.356E+00 1.090E+06 1.902E+07 4.216E+07 6.227E+07 6.227E+07 2.123E+07 42.3849 1.00000
  4.467E+13 4.467E+13 4.377E+00 1.223E+06 2.134E+07 4.841E+07 7.097E+07 7.097E+07 2.130E+07 42.6151 1.00000
  5.012E+13 5.012E+13 4.399E+00 1.373E+06 2.394E+07 5.559E+07 8.090E+07 8.090E+07 2.137E+07 42.8454 1.00000
  5.623E+13 5.623E+13 4.420E+00 1.540E+06 2.686E+07 6.383E+07 9.223E+07 9.223E+07 2.144E+07 43.0756 1.00000
  6.310E+13 6.310E+13 4.442E+00 1.728E+06 3.013E+07 7.331E+07 1.052E+08 1.052E+08 2.151E+07 43.3059 1.00000
  7.079E+13 7.079E+13 4.464E+00 1.939E+06 3.381E+07 8.419E+07 1.199E+08 1.199E+08 2.158E+07 43.5361 1.00000
  7.943E+13 7.943E+13 4.486E+00 2.175E+06 3.793E+07 9.669E+07 1.368E+08 1.368E+08 2.165E+07 43.7664 1.00000
  8.913E+13 8.913E+13 4.508E+00 2.441E+06 4.255E+07 1.111E+08 1.561E+08 1.561E+08 2.172E+07 43.9967 1.00000
