 Incident particle is a Tau with M = 1776.82000 MeV
 Index = 0: MagnesiumOxide
      Absorber with <Z/A> = 0.49622
 Sternheimer coef:  a     k=m_s   x_0    x_1    I[eV]   Cbar  delta0
                 0.0831  3.5968  0.0575  2.8580  143.8  3.6404 0.00

 *** Table generated with PUMAS v1.00 ***

      T         p     Ionization  brems     pair     photonuc  Radloss    dE/dx   CSDA Range  delta   beta
    [MeV]    [MeV/c]  -----------------------[MeV cm^2/g]------------------------  [g/cm^2]
  1.000E+05 1.018E+05 2.095E+00 1.983E-04 3.112E-03 8.195E-03 1.151E-02 2.107E+00 2.374E+04  4.5723 0.99985
  1.122E+05 1.140E+05 2.114E+00 2.292E-04 3.746E-03 9.244E-03 1.322E-02 2.127E+00 2.950E+04  4.7811 0.99988
  1.259E+05 1.277E+05 2.133E+00 2.647E-04 4.494E-03 1.037E-02 1.513E-02 2.148E+00 3.590E+04  4.9922 0.99990
  1.413E+05 1.430E+05 2.152E+00 3.057E-04 5.375E-03 1.164E-02 1.732E-02 2.169E+00 4.302E+04  5.2056 0.99992
  1.585E+05 1.603E+05 2.171E+00 3.527E-04 6.409E-03 1.306E-02 1.982E-02 2.191E+00 5.092E+04  5.4210 0.99994
  1.778E+05 1.796E+05 2.190E+00 4.069E-04 7.621E-03 1.465E-02 2.267E-02 2.212E+00 5.971E+04  5.6383 0.99995
  1.995E+05 2.013E+05 2.208E+00 4.691E-04 9.040E-03 1.645E-02 2.596E-02 2.234E+00 6.947E+04  5.8574 0.99996
  2.239E+05 2.256E+05 2.227E+00 5.406E-04 1.070E-02 1.842E-02 2.966E-02 2.257E+00 8.031E+04  6.0780 0.99997
  2.512E+05 2.530E+05 2.246E+00 6.226E-04 1.263E-02 2.063E-02 3.388E-02 2.280E+00 9.235E+04  6.3000 0.99998
  2.818E+05 2.836E+05 2.264E+00 7.169E-04 1.488E-02 2.311E-02 3.870E-02 2.303E+00 1.057E+05  6.5233 0.99998
  3.162E+05 3.180E+05 2.283E+00 8.249E-04 1.749E-02 2.592E-02 4.423E-02 2.327E+00 1.206E+05  6.7477 0.99998
  3.548E+05 3.566E+05 2.301E+00 9.489E-04 2.051E-02 2.906E-02 5.053E-02 2.351E+00 1.371E+05  6.9731 0.99999
  3.981E+05 3.999E+05 2.319E+00 1.091E-03 2.402E-02 3.257E-02 5.768E-02 2.377E+00 1.554E+05  7.1994 0.99999
  4.467E+05 4.485E+05 2.337E+00 1.254E-03 2.807E-02 3.651E-02 6.583E-02 2.403E+00 1.757E+05  7.4265 0.99999
  5.012E+05 5.030E+05 2.355E+00 1.441E-03 3.275E-02 4.093E-02 7.512E-02 2.430E+00 1.983E+05  7.6542 0.99999
  5.623E+05 5.641E+05 2.373E+00 1.654E-03 3.815E-02 4.572E-02 8.552E-02 2.459E+00 2.233E+05  7.8825 1.00000
  6.310E+05 6.327E+05 2.391E+00 1.899E-03 4.436E-02 5.112E-02 9.738E-02 2.489E+00 2.510E+05  8.1112 1.00000
  7.079E+05 7.097E+05 2.409E+00 2.179E-03 5.151E-02 5.720E-02 1.109E-01 2.520E+00 2.818E+05  8.3403 1.00000
  7.943E+05 7.961E+05 2.427E+00 2.499E-03 5.972E-02 6.407E-02 1.263E-01 2.553E+00 3.158E+05  8.5697 1.00000
  8.913E+05 8.930E+05 2.445E+00 2.866E-03 6.914E-02 7.183E-02 1.438E-01 2.589E+00 3.535E+05  8.7993 1.00000
  1.000E+06 1.002E+06 2.462E+00 3.285E-03 7.994E-02 8.061E-02 1.638E-01 2.626E+00 3.952E+05  9.0290 1.00000
  1.122E+06 1.124E+06 2.480E+00 3.764E-03 9.230E-02 9.053E-02 1.866E-01 2.666E+00 4.414E+05  9.2589 1.00000
  1.259E+06 1.261E+06 2.497E+00 4.312E-03 1.064E-01 1.018E-01 2.125E-01 2.710E+00 4.923E+05  9.4888 1.00000
  1.413E+06 1.414E+06 2.515E+00 4.938E-03 1.226E-01 1.145E-01 2.420E-01 2.757E+00 5.485E+05  9.7187 1.00000
  1.585E+06 1.587E+06 2.532E+00 5.652E-03 1.410E-01 1.289E-01 2.756E-01 2.807E+00 6.105E+05  9.9487 1.00000
  1.778E+06 1.780E+06 2.549E+00 6.469E-03 1.621E-01 1.453E-01 3.138E-01 2.863E+00 6.787E+05 10.1787 1.00000
  1.995E+06 1.997E+06 2.566E+00 7.401E-03 1.860E-01 1.639E-01 3.573E-01 2.923E+00 7.537E+05 10.4088 1.00000
  2.239E+06 2.240E+06 2.583E+00 8.464E-03 2.132E-01 1.850E-01 4.067E-01 2.989E+00 8.361E+05 10.6389 1.00000
  2.512E+06 2.514E+06 2.599E+00 9.678E-03 2.442E-01 2.090E-01 4.629E-01 3.062E+00 9.263E+05 10.8689 1.00000
  2.818E+06 2.820E+06 2.616E+00 1.106E-02 2.794E-01 2.362E-01 5.267E-01 3.143E+00 1.025E+06 11.0990 1.00000
  3.162E+06 3.164E+06 2.632E+00 1.264E-02 3.194E-01 2.672E-01 5.992E-01 3.231E+00 1.133E+06 11.3292 1.00000
  3.548E+06 3.550E+06 2.648E+00 1.444E-02 3.647E-01 3.024E-01 6.816E-01 3.330E+00 1.251E+06 11.5593 1.00000
  3.981E+06 3.983E+06 2.665E+00 1.649E-02 4.161E-01 3.425E-01 7.751E-01 3.440E+00 1.379E+06 11.7895 1.00000
  4.467E+06 4.469E+06 2.680E+00 1.883E-02 4.743E-01 3.881E-01 8.812E-01 3.562E+00 1.517E+06 12.0196 1.00000
  5.012E+06 5.014E+06 2.696E+00 2.150E-02 5.402E-01 4.400E-01 1.002E+00 3.698E+00 1.668E+06 12.2498 1.00000
  5.623E+06 5.625E+06 2.712E+00 2.453E-02 6.147E-01 4.991E-01 1.138E+00 3.850E+00 1.830E+06 12.4800 1.00000
  6.310E+06 6.311E+06 2.727E+00 2.799E-02 6.990E-01 5.664E-01 1.293E+00 4.021E+00 2.004E+06 12.7102 1.00000
  7.079E+06 7.081E+06 2.743E+00 3.192E-02 7.942E-01 6.431E-01 1.469E+00 4.212E+00 2.191E+06 12.9404 1.00000
  7.943E+06 7.945E+06 2.758E+00 3.639E-02 9.017E-01 7.305E-01 1.669E+00 4.426E+00 2.391E+06 13.1706 1.00000
  8.913E+06 8.914E+06 2.773E+00 4.148E-02 1.023E+00 8.300E-01 1.895E+00 4.667E+00 2.605E+06 13.4008 1.00000
  1.000E+07 1.000E+07 2.788E+00 4.727E-02 1.160E+00 9.435E-01 2.151E+00 4.938E+00 2.831E+06 13.6310 1.00000
  1.122E+07 1.122E+07 2.802E+00 5.386E-02 1.314E+00 1.073E+00 2.441E+00 5.243E+00 3.071E+06 13.8612 1.00000
  1.259E+07 1.259E+07 2.817E+00 6.134E-02 1.489E+00 1.220E+00 2.770E+00 5.587E+00 3.324E+06 14.0914 1.00000
  1.413E+07 1.413E+07 2.831E+00 6.985E-02 1.685E+00 1.388E+00 3.143E+00 5.974E+00 3.590E+06 14.3217 1.00000
  1.585E+07 1.585E+07 2.846E+00 7.951E-02 1.906E+00 1.580E+00 3.565E+00 6.411E+00 3.869E+06 14.5519 1.00000
  1.778E+07 1.778E+07 2.860E+00 9.048E-02 2.155E+00 1.799E+00 4.044E+00 6.904E+00 4.160E+06 14.7821 1.00000
  1.995E+07 1.995E+07 2.874E+00 1.029E-01 2.435E+00 2.048E+00 4.586E+00 7.460E+00 4.463E+06 15.0124 1.00000
  2.239E+07 2.239E+07 2.888E+00 1.171E-01 2.750E+00 2.333E+00 5.200E+00 8.088E+00 4.776E+06 15.2426 1.00000
  2.512E+07 2.512E+07 2.902E+00 1.331E-01 3.105E+00 2.658E+00 5.896E+00 8.798E+00 5.100E+06 15.4728 1.00000
  2.818E+07 2.819E+07 2.916E+00 1.513E-01 3.504E+00 3.028E+00 6.683E+00 9.599E+00 5.434E+06 15.7031 1.00000
  3.162E+07 3.162E+07 2.930E+00 1.720E-01 3.953E+00 3.451E+00 7.576E+00 1.051E+01 5.777E+06 15.9333 1.00000
  3.548E+07 3.548E+07 2.944E+00 1.953E-01 4.457E+00 3.934E+00 8.586E+00 1.153E+01 6.128E+06 16.1636 1.00000
  3.981E+07 3.981E+07 2.958E+00 2.219E-01 5.024E+00 4.484E+00 9.731E+00 1.269E+01 6.486E+06 16.3938 1.00000
  4.467E+07 4.467E+07 2.971E+00 2.519E-01 5.662E+00 5.113E+00 1.103E+01 1.400E+01 6.851E+06 16.6241 1.00000
  5.012E+07 5.012E+07 2.985E+00 2.859E-01 6.379E+00 5.830E+00 1.250E+01 1.548E+01 7.222E+06 16.8543 1.00000
  5.623E+07 5.624E+07 2.999E+00 3.245E-01 7.184E+00 6.650E+00 1.416E+01 1.716E+01 7.598E+06 17.0846 1.00000
  6.310E+07 6.310E+07 3.013E+00 3.681E-01 8.088E+00 7.585E+00 1.604E+01 1.905E+01 7.978E+06 17.3148 1.00000
  7.079E+07 7.080E+07 3.027E+00 4.175E-01 9.104E+00 8.653E+00 1.817E+01 2.120E+01 8.361E+06 17.5451 1.00000
  7.943E+07 7.943E+07 3.040E+00 4.733E-01 1.025E+01 9.872E+00 2.059E+01 2.363E+01 8.748E+06 17.7753 1.00000
  8.913E+07 8.913E+07 3.054E+00 5.365E-01 1.153E+01 1.126E+01 2.333E+01 2.638E+01 9.137E+06 18.0056 1.00000
  1.000E+08 1.000E+08 3.068E+00 6.079E-01 1.297E+01 1.285E+01 2.643E+01 2.950E+01 9.527E+06 18.2358 1.00000
  1.122E+08 1.122E+08 3.082E+00 6.887E-01 1.458E+01 1.467E+01 2.994E+01 3.302E+01 9.919E+06 18.4661 1.00000
  1.259E+08 1.259E+08 3.096E+00 7.799E-01 1.640E+01 1.674E+01 3.392E+01 3.702E+01 1.031E+07 18.6963 1.00000
  1.413E+08 1.413E+08 3.110E+00 8.830E-01 1.844E+01 1.911E+01 3.843E+01 4.154E+01 1.070E+07 18.9266 1.00000
  1.585E+08 1.585E+08 3.124E+00 9.994E-01 2.072E+01 2.182E+01 4.354E+01 4.666E+01 1.110E+07 19.1569 1.00000
  1.778E+08 1.778E+08 3.138E+00 1.131E+00 2.329E+01 2.491E+01 4.933E+01 5.247E+01 1.149E+07 19.3871 1.00000
  1.995E+08 1.995E+08 3.152E+00 1.279E+00 2.617E+01 2.844E+01 5.589E+01 5.904E+01 1.188E+07 19.6174 1.00000
  2.239E+08 2.239E+08 3.166E+00 1.447E+00 2.941E+01 3.247E+01 6.332E+01 6.649E+01 1.227E+07 19.8476 1.00000
  2.512E+08 2.512E+08 3.180E+00 1.636E+00 3.304E+01 3.708E+01 7.175E+01 7.493E+01 1.265E+07 20.0779 1.00000
  2.818E+08 2.818E+08 3.195E+00 1.849E+00 3.712E+01 4.234E+01 8.131E+01 8.450E+01 1.304E+07 20.3081 1.00000
  3.162E+08 3.162E+08 3.209E+00 2.089E+00 4.169E+01 4.836E+01 9.214E+01 9.535E+01 1.342E+07 20.5384 1.00000
  3.548E+08 3.548E+08 3.223E+00 2.360E+00 4.683E+01 5.523E+01 1.044E+02 1.076E+02 1.381E+07 20.7687 1.00000
  3.981E+08 3.981E+08 3.238E+00 2.666E+00 5.259E+01 6.308E+01 1.183E+02 1.216E+02 1.418E+07 20.9989 1.00000
  4.467E+08 4.467E+08 3.252E+00 3.010E+00 5.906E+01 7.206E+01 1.341E+02 1.374E+02 1.456E+07 21.2292 1.00000
  5.012E+08 5.012E+08 3.267E+00 3.398E+00 6.631E+01 8.232E+01 1.520E+02 1.553E+02 1.494E+07 21.4594 1.00000
  5.623E+08 5.623E+08 3.281E+00 3.834E+00 7.446E+01 9.404E+01 1.723E+02 1.756E+02 1.531E+07 21.6897 1.00000
  6.310E+08 6.310E+08 3.296E+00 4.326E+00 8.360E+01 1.074E+02 1.954E+02 1.987E+02 1.567E+07 21.9199 1.00000
  7.079E+08 7.079E+08 3.311E+00 4.880E+00 9.385E+01 1.228E+02 2.215E+02 2.248E+02 1.604E+07 22.1502 1.00000
  7.943E+08 7.943E+08 3.326E+00 5.504E+00 1.054E+02 1.403E+02 2.511E+02 2.545E+02 1.640E+07 22.3805 1.00000
  8.913E+08 8.913E+08 3.341E+00 6.205E+00 1.183E+02 1.603E+02 2.848E+02 2.881E+02 1.676E+07 22.6107 1.00000
  1.000E+09 1.000E+09 3.356E+00 6.995E+00 1.328E+02 1.832E+02 3.229E+02 3.263E+02 1.712E+07 22.8410 1.00000
  1.122E+09 1.122E+09 3.371E+00 7.883E+00 1.490E+02 2.093E+02 3.662E+02 3.696E+02 1.747E+07 23.0712 1.00000
  1.259E+09 1.259E+09 3.386E+00 8.883E+00 1.673E+02 2.392E+02 4.154E+02 4.188E+02 1.782E+07 23.3015 1.00000
  1.413E+09 1.413E+09 3.402E+00 1.001E+01 1.878E+02 2.734E+02 4.712E+02 4.746E+02 1.816E+07 23.5317 1.00000
  1.585E+09 1.585E+09 3.417E+00 1.127E+01 2.107E+02 3.125E+02 5.345E+02 5.380E+02 1.850E+07 23.7620 1.00000
  1.778E+09 1.778E+09 3.432E+00 1.269E+01 2.365E+02 3.573E+02 6.065E+02 6.099E+02 1.884E+07 23.9923 1.00000
  1.995E+09 1.995E+09 3.448E+00 1.429E+01 2.654E+02 4.084E+02 6.881E+02 6.916E+02 1.918E+07 24.2225 1.00000
  2.239E+09 2.239E+09 3.464E+00 1.609E+01 2.979E+02 4.669E+02 7.809E+02 7.843E+02 1.951E+07 24.4528 1.00000
  2.512E+09 2.512E+09 3.479E+00 1.810E+01 3.343E+02 5.338E+02 8.862E+02 8.897E+02 1.983E+07 24.6830 1.00000
  2.818E+09 2.818E+09 3.495E+00 2.037E+01 3.752E+02 6.103E+02 1.006E+03 1.009E+03 2.016E+07 24.9133 1.00000
  3.162E+09 3.162E+09 3.511E+00 2.292E+01 4.210E+02 6.978E+02 1.142E+03 1.145E+03 2.048E+07 25.1436 1.00000
  3.548E+09 3.548E+09 3.527E+00 2.579E+01 4.725E+02 7.978E+02 1.296E+03 1.300E+03 2.080E+07 25.3738 1.00000
  3.981E+09 3.981E+09 3.543E+00 2.900E+01 5.302E+02 9.123E+02 1.472E+03 1.475E+03 2.111E+07 25.6041 1.00000
  4.467E+09 4.467E+09 3.559E+00 3.262E+01 5.950E+02 1.043E+03 1.671E+03 1.674E+03 2.142E+07 25.8343 1.00000
  5.012E+09 5.012E+09 3.575E+00 3.668E+01 6.677E+02 1.193E+03 1.897E+03 1.901E+03 2.173E+07 26.0646 1.00000
  5.623E+09 5.623E+09 3.592E+00 4.124E+01 7.492E+02 1.365E+03 2.155E+03 2.159E+03 2.203E+07 26.2948 1.00000
  6.310E+09 6.310E+09 3.608E+00 4.636E+01 8.407E+02 1.561E+03 2.448E+03 2.451E+03 2.233E+07 26.5251 1.00000
  7.079E+09 7.079E+09 3.625E+00 5.211E+01 9.433E+02 1.785E+03 2.781E+03 2.784E+03 2.262E+07 26.7554 1.00000
  7.943E+09 7.943E+09 3.641E+00 5.857E+01 1.059E+03 2.042E+03 3.159E+03 3.163E+03 2.291E+07 26.9856 1.00000
  8.913E+09 8.913E+09 3.658E+00 6.582E+01 1.188E+03 2.336E+03 3.590E+03 3.593E+03 2.320E+07 27.2159 1.00000
  1.000E+10 1.000E+10 3.675E+00 7.396E+01 1.333E+03 2.672E+03 4.079E+03 4.083E+03 2.349E+07 27.4461 1.00000
  1.122E+10 1.122E+10 3.692E+00 8.310E+01 1.495E+03 3.057E+03 4.636E+03 4.639E+03 2.377E+07 27.6764 1.00000
  1.259E+10 1.259E+10 3.709E+00 9.336E+01 1.678E+03 3.498E+03 5.269E+03 5.273E+03 2.404E+07 27.9067 1.00000
  1.413E+10 1.413E+10 3.726E+00 1.049E+02 1.883E+03 4.002E+03 5.990E+03 5.993E+03 2.432E+07 28.1369 1.00000
  1.585E+10 1.585E+10 3.743E+00 1.178E+02 2.113E+03 4.579E+03 6.810E+03 6.813E+03 2.459E+07 28.3672 1.00000
  1.778E+10 1.778E+10 3.760E+00 1.323E+02 2.370E+03 5.240E+03 7.743E+03 7.747E+03 2.486E+07 28.5974 1.00000
  1.995E+10 1.995E+10 3.778E+00 1.486E+02 2.660E+03 5.996E+03 8.805E+03 8.809E+03 2.512E+07 28.8277 1.00000
  2.239E+10 2.239E+10 3.795E+00 1.669E+02 2.984E+03 6.862E+03 1.001E+04 1.002E+04 2.538E+07 29.0580 1.00000
  2.512E+10 2.512E+10 3.813E+00 1.874E+02 3.348E+03 7.854E+03 1.139E+04 1.139E+04 2.563E+07 29.2882 1.00000
  2.818E+10 2.818E+10 3.830E+00 2.105E+02 3.757E+03 8.989E+03 1.296E+04 1.296E+04 2.589E+07 29.5185 1.00000
  3.162E+10 3.162E+10 3.848E+00 2.363E+02 4.215E+03 1.029E+04 1.474E+04 1.474E+04 2.614E+07 29.7487 1.00000
  3.548E+10 3.548E+10 3.866E+00 2.654E+02 4.730E+03 1.178E+04 1.677E+04 1.678E+04 2.638E+07 29.9790 1.00000
  3.981E+10 3.981E+10 3.884E+00 2.979E+02 5.307E+03 1.348E+04 1.909E+04 1.909E+04 2.663E+07 30.2092 1.00000
  4.467E+10 4.467E+10 3.902E+00 3.345E+02 5.954E+03 1.543E+04 2.172E+04 2.173E+04 2.686E+07 30.4395 1.00000
  5.012E+10 5.012E+10 3.920E+00 3.755E+02 6.681E+03 1.767E+04 2.472E+04 2.473E+04 2.710E+07 30.6698 1.00000
  5.623E+10 5.623E+10 3.938E+00 4.215E+02 7.496E+03 2.023E+04 2.814E+04 2.815E+04 2.733E+07 30.9000 1.00000
  6.310E+10 6.310E+10 3.957E+00 4.732E+02 8.411E+03 2.316E+04 3.204E+04 3.205E+04 2.756E+07 31.1303 1.00000
  7.079E+10 7.079E+10 3.975E+00 5.311E+02 9.437E+03 2.652E+04 3.649E+04 3.649E+04 2.779E+07 31.3605 1.00000
  7.943E+10 7.943E+10 3.994E+00 5.962E+02 1.059E+04 3.036E+04 4.155E+04 4.155E+04 2.801E+07 31.5908 1.00000
  8.913E+10 8.913E+10 4.013E+00 6.692E+02 1.188E+04 3.477E+04 4.732E+04 4.732E+04 2.823E+07 31.8211 1.00000
  1.000E+11 1.000E+11 4.031E+00 7.511E+02 1.333E+04 3.982E+04 5.390E+04 5.390E+04 2.844E+07 32.0513 1.00000
  1.122E+11 1.122E+11 4.050E+00 8.430E+02 1.496E+04 4.560E+04 6.140E+04 6.140E+04 2.866E+07 32.2816 1.00000
  1.259E+11 1.259E+11 4.069E+00 9.461E+02 1.678E+04 5.223E+04 6.995E+04 6.996E+04 2.887E+07 32.5118 1.00000
  1.413E+11 1.413E+11 4.088E+00 1.062E+03 1.883E+04 5.982E+04 7.971E+04 7.971E+04 2.907E+07 32.7421 1.00000
  1.585E+11 1.585E+11 4.108E+00 1.192E+03 2.112E+04 6.852E+04 9.084E+04 9.084E+04 2.927E+07 32.9723 1.00000
  1.778E+11 1.778E+11 4.127E+00 1.337E+03 2.370E+04 7.849E+04 1.035E+05 1.035E+05 2.947E+07 33.2026 1.00000
  1.995E+11 1.995E+11 4.146E+00 1.501E+03 2.659E+04 8.991E+04 1.180E+05 1.180E+05 2.967E+07 33.4329 1.00000
  2.239E+11 2.239E+11 4.166E+00 1.684E+03 2.984E+04 1.030E+05 1.345E+05 1.345E+05 2.986E+07 33.6631 1.00000
  2.512E+11 2.512E+11 4.186E+00 1.890E+03 3.348E+04 1.180E+05 1.534E+05 1.534E+05 3.006E+07 33.8934 1.00000
  2.818E+11 2.818E+11 4.205E+00 2.121E+03 3.756E+04 1.352E+05 1.749E+05 1.749E+05 3.024E+07 34.1236 1.00000
  3.162E+11 3.162E+11 4.225E+00 2.380E+03 4.214E+04 1.549E+05 1.994E+05 1.994E+05 3.043E+07 34.3539 1.00000
  3.548E+11 3.548E+11 4.245E+00 2.671E+03 4.728E+04 1.775E+05 2.275E+05 2.275E+05 3.061E+07 34.5842 1.00000
  3.981E+11 3.981E+11 4.265E+00 2.997E+03 5.305E+04 2.034E+05 2.594E+05 2.595E+05 3.079E+07 34.8144 1.00000
  4.467E+11 4.467E+11 4.286E+00 3.363E+03 5.952E+04 2.331E+05 2.960E+05 2.960E+05 3.096E+07 35.0447 1.00000
  5.012E+11 5.012E+11 4.306E+00 3.774E+03 6.678E+04 2.671E+05 3.377E+05 3.377E+05 3.114E+07 35.2749 1.00000
  5.623E+11 5.623E+11 4.326E+00 4.235E+03 7.493E+04 3.061E+05 3.853E+05 3.853E+05 3.131E+07 35.5052 1.00000
  6.310E+11 6.310E+11 4.347E+00 4.752E+03 8.407E+04 3.509E+05 4.397E+05 4.397E+05 3.147E+07 35.7354 1.00000
  7.079E+11 7.079E+11 4.368E+00 5.332E+03 9.432E+04 4.022E+05 5.018E+05 5.018E+05 3.164E+07 35.9657 1.00000
  7.943E+11 7.943E+11 4.388E+00 5.983E+03 1.058E+05 4.610E+05 5.728E+05 5.728E+05 3.180E+07 36.1960 1.00000
  8.913E+11 8.913E+11 4.409E+00 6.714E+03 1.187E+05 5.285E+05 6.539E+05 6.539E+05 3.196E+07 36.4262 1.00000
  1.000E+12 1.000E+12 4.430E+00 7.533E+03 1.332E+05 6.058E+05 7.465E+05 7.466E+05 3.211E+07 36.6565 1.00000
  1.122E+12 1.122E+12 4.452E+00 8.453E+03 1.495E+05 6.945E+05 8.524E+05 8.524E+05 3.227E+07 36.8867 1.00000
  1.259E+12 1.259E+12 4.473E+00 9.484E+03 1.677E+05 7.962E+05 9.734E+05 9.734E+05 3.242E+07 37.1170 1.00000
  1.413E+12 1.413E+12 4.494E+00 1.064E+04 1.882E+05 9.129E+05 1.112E+06 1.112E+06 3.257E+07 37.3473 1.00000
  1.585E+12 1.585E+12 4.516E+00 1.194E+04 2.111E+05 1.047E+06 1.270E+06 1.270E+06 3.271E+07 37.5775 1.00000
  1.778E+12 1.778E+12 4.537E+00 1.340E+04 2.368E+05 1.200E+06 1.451E+06 1.451E+06 3.285E+07 37.8078 1.00000
  1.995E+12 1.995E+12 4.559E+00 1.503E+04 2.657E+05 1.376E+06 1.657E+06 1.657E+06 3.299E+07 38.0380 1.00000
  2.239E+12 2.239E+12 4.581E+00 1.687E+04 2.981E+05 1.578E+06 1.893E+06 1.893E+06 3.313E+07 38.2683 1.00000
  2.512E+12 2.512E+12 4.603E+00 1.893E+04 3.345E+05 1.810E+06 2.164E+06 2.164E+06 3.327E+07 38.4985 1.00000
  2.818E+12 2.818E+12 4.625E+00 2.124E+04 3.753E+05 2.076E+06 2.473E+06 2.473E+06 3.340E+07 38.7288 1.00000
  3.162E+12 3.162E+12 4.647E+00 2.383E+04 4.211E+05 2.381E+06 2.826E+06 2.826E+06 3.353E+07 38.9591 1.00000
  3.548E+12 3.548E+12 4.669E+00 2.674E+04 4.725E+05 2.731E+06 3.230E+06 3.230E+06 3.366E+07 39.1893 1.00000
  3.981E+12 3.981E+12 4.692E+00 3.000E+04 5.301E+05 3.133E+06 3.693E+06 3.693E+06 3.378E+07 39.4196 1.00000
  4.467E+12 4.467E+12 4.715E+00 3.366E+04 5.947E+05 3.594E+06 4.222E+06 4.222E+06 3.391E+07 39.6498 1.00000
  5.012E+12 5.012E+12 4.737E+00 3.777E+04 6.673E+05 4.123E+06 4.828E+06 4.828E+06 3.403E+07 39.8801 1.00000
  5.623E+12 5.623E+12 4.760E+00 4.238E+04 7.487E+05 4.730E+06 5.521E+06 5.521E+06 3.415E+07 40.1104 1.00000
  6.310E+12 6.310E+12 4.783E+00 4.755E+04 8.400E+05 5.426E+06 6.314E+06 6.314E+06 3.426E+07 40.3406 1.00000
  7.079E+12 7.079E+12 4.806E+00 5.335E+04 9.424E+05 6.226E+06 7.222E+06 7.222E+06 3.438E+07 40.5709 1.00000
  7.943E+12 7.943E+12 4.829E+00 5.986E+04 1.057E+06 7.144E+06 8.261E+06 8.261E+06 3.449E+07 40.8011 1.00000
  8.913E+12 8.913E+12 4.853E+00 6.717E+04 1.186E+06 8.197E+06 9.451E+06 9.451E+06 3.460E+07 41.0314 1.00000
  1.000E+13 1.000E+13 4.876E+00 7.536E+04 1.331E+06 9.406E+06 1.081E+07 1.081E+07 3.471E+07 41.2617 1.00000
  1.122E+13 1.122E+13 4.900E+00 8.456E+04 1.493E+06 1.079E+07 1.237E+07 1.237E+07 3.481E+07 41.4919 1.00000
  1.259E+13 1.259E+13 4.923E+00 9.488E+04 1.675E+06 1.239E+07 1.416E+07 1.416E+07 3.492E+07 41.7222 1.00000
  1.413E+13 1.413E+13 4.947E+00 1.065E+05 1.880E+06 1.422E+07 1.620E+07 1.620E+07 3.502E+07 41.9524 1.00000
  1.585E+13 1.585E+13 4.971E+00 1.194E+05 2.109E+06 1.632E+07 1.855E+07 1.855E+07 3.512E+07 42.1827 1.00000
  1.778E+13 1.778E+13 4.995E+00 1.340E+05 2.366E+06 1.873E+07 2.123E+07 2.123E+07 3.522E+07 42.4129 1.00000
  1.995E+13 1.995E+13 5.020E+00 1.504E+05 2.655E+06 2.150E+07 2.430E+07 2.430E+07 3.531E+07 42.6432 1.00000
  2.239E+13 2.239E+13 5.044E+00 1.687E+05 2.979E+06 2.468E+07 2.783E+07 2.783E+07 3.541E+07 42.8735 1.00000
  2.512E+13 2.512E+13 5.069E+00 1.893E+05 3.342E+06 2.833E+07 3.186E+07 3.186E+07 3.550E+07 43.1037 1.00000
  2.818E+13 2.818E+13 5.093E+00 2.124E+05 3.750E+06 3.252E+07 3.649E+07 3.649E+07 3.559E+07 43.3340 1.00000
  3.162E+13 3.162E+13 5.118E+00 2.383E+05 4.207E+06 3.734E+07 4.179E+07 4.179E+07 3.568E+07 43.5642 1.00000
  3.548E+13 3.548E+13 5.143E+00 2.674E+05 4.720E+06 4.287E+07 4.786E+07 4.786E+07 3.576E+07 43.7945 1.00000
  3.981E+13 3.981E+13 5.168E+00 3.000E+05 5.295E+06 4.922E+07 5.482E+07 5.482E+07 3.585E+07 44.0248 1.00000
  4.467E+13 4.467E+13 5.193E+00 3.366E+05 5.941E+06 5.652E+07 6.280E+07 6.280E+07 3.593E+07 44.2550 1.00000
  5.012E+13 5.012E+13 5.218E+00 3.777E+05 6.666E+06 6.490E+07 7.195E+07 7.195E+07 3.601E+07 44.4853 1.00000
  5.623E+13 5.623E+13 5.244E+00 4.238E+05 7.479E+06 7.453E+07 8.243E+07 8.243E+07 3.609E+07 44.7155 1.00000
  6.310E+13 6.310E+13 5.269E+00 4.755E+05 8.391E+06 8.559E+07 9.446E+07 9.446E+07 3.617E+07 44.9458 1.00000
  7.079E+13 7.079E+13 5.295E+00 5.336E+05 9.414E+06 9.829E+07 1.082E+08 1.082E+08 3.624E+07 45.1760 1.00000
  7.943E+13 7.943E+13 5.321E+00 5.987E+05 1.056E+07 1.129E+08 1.241E+08 1.241E+08 3.632E+07 45.4063 1.00000
  8.913E+13 8.913E+13 5.347E+00 6.717E+05 1.185E+07 1.297E+08 1.422E+08 1.422E+08 3.639E+07 45.6366 1.00000
