 Incident particle is a Tau with M = 1776.82000 MeV
 Index = 0: Mercury
      Absorber with <Z/A> = 0.39882
 Sternheimer coef:  a     k=m_s   x_0    x_1    I[eV]   Cbar  delta0
                 0.1101  3.0519  0.2756  3.7275  800.0  5.9605 0.14

 *** Table generated with PUMAS v1.00 ***

      T         p     Ionization  brems     pair     photonuc  Radloss    dE/dx   CSDA Range  delta   beta
    [MeV]    [MeV/c]  -----------------------[MeV cm^2/g]------------------------  [g/cm^2]
  1.000E+05 1.018E+05 1.570E+00 1.029E-03 1.829E-02 7.555E-03 2.687E-02 1.596E+00 3.132E+04  3.0064 0.99985
  1.122E+05 1.140E+05 1.588E+00 1.193E-03 2.190E-02 8.479E-03 3.157E-02 1.619E+00 3.891E+04  3.1682 0.99988
  1.259E+05 1.277E+05 1.606E+00 1.383E-03 2.614E-02 9.467E-03 3.699E-02 1.643E+00 4.730E+04  3.3336 0.99990
  1.413E+05 1.430E+05 1.624E+00 1.601E-03 3.111E-02 1.057E-02 4.329E-02 1.667E+00 5.659E+04  3.5025 0.99992
  1.585E+05 1.603E+05 1.642E+00 1.854E-03 3.694E-02 1.180E-02 5.060E-02 1.692E+00 6.685E+04  3.6748 0.99994
  1.778E+05 1.796E+05 1.659E+00 2.145E-03 4.375E-02 1.317E-02 5.906E-02 1.718E+00 7.819E+04  3.8504 0.99995
  1.995E+05 2.013E+05 1.677E+00 2.480E-03 5.170E-02 1.471E-02 6.889E-02 1.746E+00 9.072E+04  4.0292 0.99996
  2.239E+05 2.256E+05 1.694E+00 2.866E-03 6.095E-02 1.639E-02 8.020E-02 1.774E+00 1.046E+05  4.2111 0.99997
  2.512E+05 2.530E+05 1.711E+00 3.311E-03 7.169E-02 1.826E-02 9.327E-02 1.805E+00 1.198E+05  4.3960 0.99998
  2.818E+05 2.836E+05 1.728E+00 3.822E-03 8.416E-02 2.036E-02 1.083E-01 1.837E+00 1.367E+05  4.5837 0.99998
  3.162E+05 3.180E+05 1.745E+00 4.409E-03 9.858E-02 2.272E-02 1.257E-01 1.871E+00 1.552E+05  4.7743 0.99998
  3.548E+05 3.566E+05 1.762E+00 5.083E-03 1.153E-01 2.536E-02 1.457E-01 1.908E+00 1.756E+05  4.9675 0.99999
  3.981E+05 3.999E+05 1.778E+00 5.858E-03 1.345E-01 2.828E-02 1.686E-01 1.947E+00 1.981E+05  5.1633 0.99999
  4.467E+05 4.485E+05 1.795E+00 6.747E-03 1.567E-01 3.155E-02 1.950E-01 1.990E+00 2.228E+05  5.3616 0.99999
  5.012E+05 5.030E+05 1.811E+00 7.766E-03 1.822E-01 3.521E-02 2.251E-01 2.036E+00 2.499E+05  5.5623 0.99999
  5.623E+05 5.641E+05 1.827E+00 8.935E-03 2.115E-01 3.916E-02 2.595E-01 2.087E+00 2.795E+05  5.7653 1.00000
  6.310E+05 6.327E+05 1.843E+00 1.027E-02 2.451E-01 4.359E-02 2.989E-01 2.142E+00 3.120E+05  5.9705 1.00000
  7.079E+05 7.097E+05 1.859E+00 1.181E-02 2.836E-01 4.857E-02 3.440E-01 2.203E+00 3.474E+05  6.1778 1.00000
  7.943E+05 7.961E+05 1.874E+00 1.357E-02 3.277E-01 5.417E-02 3.954E-01 2.269E+00 3.861E+05  6.3871 1.00000
  8.913E+05 8.930E+05 1.889E+00 1.558E-02 3.781E-01 6.049E-02 4.541E-01 2.344E+00 4.281E+05  6.5983 1.00000
  1.000E+06 1.002E+06 1.905E+00 1.788E-02 4.356E-01 6.762E-02 5.211E-01 2.426E+00 4.737E+05  6.8113 1.00000
  1.122E+06 1.124E+06 1.920E+00 2.051E-02 5.012E-01 7.567E-02 5.974E-01 2.517E+00 5.231E+05  7.0260 1.00000
  1.259E+06 1.261E+06 1.934E+00 2.352E-02 5.760E-01 8.477E-02 6.843E-01 2.619E+00 5.765E+05  7.2423 1.00000
  1.413E+06 1.414E+06 1.949E+00 2.695E-02 6.611E-01 9.506E-02 7.831E-01 2.732E+00 6.339E+05  7.4602 1.00000
  1.585E+06 1.587E+06 1.964E+00 3.088E-02 7.578E-01 1.067E-01 8.954E-01 2.859E+00 6.956E+05  7.6795 1.00000
  1.778E+06 1.780E+06 1.978E+00 3.536E-02 8.678E-01 1.199E-01 1.023E+00 3.001E+00 7.616E+05  7.9002 1.00000
  1.995E+06 1.997E+06 1.992E+00 4.048E-02 9.925E-01 1.349E-01 1.168E+00 3.160E+00 8.321E+05  8.1221 1.00000
  2.239E+06 2.240E+06 2.006E+00 4.632E-02 1.134E+00 1.518E-01 1.332E+00 3.338E+00 9.071E+05  8.3452 1.00000
  2.512E+06 2.514E+06 2.020E+00 5.297E-02 1.294E+00 1.711E-01 1.518E+00 3.538E+00 9.866E+05  8.5694 1.00000
  2.818E+06 2.820E+06 2.033E+00 6.057E-02 1.476E+00 1.929E-01 1.729E+00 3.763E+00 1.071E+06  8.7945 1.00000
  3.162E+06 3.164E+06 2.047E+00 6.922E-02 1.682E+00 2.177E-01 1.968E+00 4.015E+00 1.159E+06  9.0206 1.00000
  3.548E+06 3.550E+06 2.060E+00 7.908E-02 1.914E+00 2.460E-01 2.239E+00 4.299E+00 1.252E+06  9.2474 1.00000
  3.981E+06 3.983E+06 2.073E+00 9.030E-02 2.177E+00 2.780E-01 2.545E+00 4.618E+00 1.349E+06  9.4750 1.00000
  4.467E+06 4.469E+06 2.086E+00 1.031E-01 2.473E+00 3.145E-01 2.891E+00 4.977E+00 1.451E+06  9.7031 1.00000
  5.012E+06 5.014E+06 2.099E+00 1.176E-01 2.808E+00 3.560E-01 3.282E+00 5.381E+00 1.556E+06  9.9319 1.00000
  5.623E+06 5.625E+06 2.111E+00 1.342E-01 3.186E+00 4.033E-01 3.724E+00 5.835E+00 1.665E+06 10.1611 1.00000
  6.310E+06 6.311E+06 2.124E+00 1.530E-01 3.613E+00 4.570E-01 4.223E+00 6.347E+00 1.778E+06 10.3906 1.00000
  7.079E+06 7.081E+06 2.136E+00 1.744E-01 4.094E+00 5.183E-01 4.786E+00 6.922E+00 1.894E+06 10.6205 1.00000
  7.943E+06 7.945E+06 2.148E+00 1.988E-01 4.635E+00 5.880E-01 5.422E+00 7.570E+00 2.014E+06 10.8505 1.00000
  8.913E+06 8.914E+06 2.160E+00 2.264E-01 5.246E+00 6.674E-01 6.139E+00 8.300E+00 2.136E+06 11.0807 1.00000
  1.000E+07 1.000E+07 2.172E+00 2.578E-01 5.933E+00 7.580E-01 6.949E+00 9.121E+00 2.261E+06 11.3109 1.00000
  1.122E+07 1.122E+07 2.184E+00 2.935E-01 6.707E+00 8.611E-01 7.861E+00 1.005E+01 2.389E+06 11.5411 1.00000
  1.259E+07 1.259E+07 2.196E+00 3.340E-01 7.577E+00 9.787E-01 8.890E+00 1.109E+01 2.519E+06 11.7713 1.00000
  1.413E+07 1.413E+07 2.207E+00 3.799E-01 8.557E+00 1.113E+00 1.005E+01 1.226E+01 2.651E+06 12.0016 1.00000
  1.585E+07 1.585E+07 2.219E+00 4.320E-01 9.660E+00 1.266E+00 1.136E+01 1.358E+01 2.785E+06 12.2318 1.00000
  1.778E+07 1.778E+07 2.230E+00 4.911E-01 1.090E+01 1.440E+00 1.283E+01 1.506E+01 2.920E+06 12.4620 1.00000
  1.995E+07 1.995E+07 2.242E+00 5.580E-01 1.229E+01 1.639E+00 1.449E+01 1.673E+01 3.057E+06 12.6923 1.00000
  2.239E+07 2.239E+07 2.253E+00 6.340E-01 1.386E+01 1.866E+00 1.636E+01 1.861E+01 3.195E+06 12.9225 1.00000
  2.512E+07 2.512E+07 2.264E+00 7.199E-01 1.562E+01 2.124E+00 1.847E+01 2.073E+01 3.334E+06 13.1527 1.00000
  2.818E+07 2.819E+07 2.276E+00 8.173E-01 1.760E+01 2.420E+00 2.084E+01 2.311E+01 3.475E+06 13.3830 1.00000
  3.162E+07 3.162E+07 2.287E+00 9.276E-01 1.982E+01 2.756E+00 2.351E+01 2.580E+01 3.616E+06 13.6132 1.00000
  3.548E+07 3.548E+07 2.298E+00 1.052E+00 2.232E+01 3.141E+00 2.652E+01 2.881E+01 3.757E+06 13.8435 1.00000
  3.981E+07 3.981E+07 2.309E+00 1.194E+00 2.513E+01 3.580E+00 2.990E+01 3.221E+01 3.900E+06 14.0737 1.00000
  4.467E+07 4.467E+07 2.320E+00 1.353E+00 2.828E+01 4.080E+00 3.372E+01 3.604E+01 4.043E+06 14.3040 1.00000
  5.012E+07 5.012E+07 2.331E+00 1.534E+00 3.182E+01 4.652E+00 3.801E+01 4.034E+01 4.186E+06 14.5342 1.00000
  5.623E+07 5.624E+07 2.342E+00 1.738E+00 3.580E+01 5.304E+00 4.284E+01 4.518E+01 4.329E+06 14.7645 1.00000
  6.310E+07 6.310E+07 2.353E+00 1.968E+00 4.027E+01 6.049E+00 4.828E+01 5.064E+01 4.473E+06 14.9947 1.00000
  7.079E+07 7.080E+07 2.364E+00 2.229E+00 4.528E+01 6.899E+00 5.441E+01 5.677E+01 4.617E+06 15.2250 1.00000
  7.943E+07 7.943E+07 2.375E+00 2.523E+00 5.091E+01 7.870E+00 6.130E+01 6.368E+01 4.761E+06 15.4552 1.00000
  8.913E+07 8.913E+07 2.387E+00 2.855E+00 5.723E+01 8.979E+00 6.906E+01 7.145E+01 4.905E+06 15.6855 1.00000
  1.000E+08 1.000E+08 2.398E+00 3.230E+00 6.432E+01 1.025E+01 7.780E+01 8.020E+01 5.048E+06 15.9157 1.00000
  1.122E+08 1.122E+08 2.409E+00 3.653E+00 7.229E+01 1.169E+01 8.763E+01 9.004E+01 5.192E+06 16.1460 1.00000
  1.259E+08 1.259E+08 2.420E+00 4.130E+00 8.123E+01 1.334E+01 9.870E+01 1.011E+02 5.336E+06 16.3762 1.00000
  1.413E+08 1.413E+08 2.431E+00 4.668E+00 9.126E+01 1.523E+01 1.112E+02 1.136E+02 5.480E+06 16.6065 1.00000
  1.585E+08 1.585E+08 2.443E+00 5.274E+00 1.025E+02 1.738E+01 1.252E+02 1.276E+02 5.623E+06 16.8368 1.00000
  1.778E+08 1.778E+08 2.454E+00 5.958E+00 1.152E+02 1.984E+01 1.410E+02 1.434E+02 5.766E+06 17.0670 1.00000
  1.995E+08 1.995E+08 2.465E+00 6.728E+00 1.294E+02 2.265E+01 1.587E+02 1.612E+02 5.909E+06 17.2973 1.00000
  2.239E+08 2.239E+08 2.476E+00 7.596E+00 1.453E+02 2.587E+01 1.787E+02 1.812E+02 6.052E+06 17.5275 1.00000
  2.512E+08 2.512E+08 2.488E+00 8.574E+00 1.632E+02 2.953E+01 2.013E+02 2.037E+02 6.194E+06 17.7578 1.00000
  2.818E+08 2.818E+08 2.499E+00 9.674E+00 1.832E+02 3.373E+01 2.266E+02 2.291E+02 6.336E+06 17.9880 1.00000
  3.162E+08 3.162E+08 2.511E+00 1.091E+01 2.057E+02 3.852E+01 2.551E+02 2.577E+02 6.478E+06 18.2183 1.00000
  3.548E+08 3.548E+08 2.522E+00 1.231E+01 2.310E+02 4.399E+01 2.873E+02 2.898E+02 6.620E+06 18.4486 1.00000
  3.981E+08 3.981E+08 2.534E+00 1.388E+01 2.593E+02 5.024E+01 3.234E+02 3.260E+02 6.761E+06 18.6788 1.00000
  4.467E+08 4.467E+08 2.546E+00 1.564E+01 2.911E+02 5.739E+01 3.642E+02 3.667E+02 6.901E+06 18.9091 1.00000
  5.012E+08 5.012E+08 2.557E+00 1.763E+01 3.268E+02 6.556E+01 4.100E+02 4.126E+02 7.042E+06 19.1393 1.00000
  5.623E+08 5.623E+08 2.569E+00 1.986E+01 3.669E+02 7.489E+01 4.616E+02 4.642E+02 7.182E+06 19.3696 1.00000
  6.310E+08 6.310E+08 2.581E+00 2.238E+01 4.118E+02 8.556E+01 5.197E+02 5.223E+02 7.321E+06 19.5998 1.00000
  7.079E+08 7.079E+08 2.593E+00 2.520E+01 4.622E+02 9.776E+01 5.852E+02 5.878E+02 7.461E+06 19.8301 1.00000
  7.943E+08 7.943E+08 2.605E+00 2.838E+01 5.188E+02 1.117E+02 6.589E+02 6.615E+02 7.599E+06 20.0604 1.00000
  8.913E+08 8.913E+08 2.617E+00 3.195E+01 5.823E+02 1.276E+02 7.419E+02 7.445E+02 7.738E+06 20.2906 1.00000
  1.000E+09 1.000E+09 2.629E+00 3.596E+01 6.536E+02 1.459E+02 8.354E+02 8.380E+02 7.876E+06 20.5209 1.00000
  1.122E+09 1.122E+09 2.641E+00 4.047E+01 7.335E+02 1.667E+02 9.407E+02 9.433E+02 8.013E+06 20.7511 1.00000
  1.259E+09 1.259E+09 2.653E+00 4.553E+01 8.232E+02 1.905E+02 1.059E+03 1.062E+03 8.150E+06 20.9814 1.00000
  1.413E+09 1.413E+09 2.666E+00 5.122E+01 9.239E+02 2.177E+02 1.193E+03 1.195E+03 8.287E+06 21.2116 1.00000
  1.585E+09 1.585E+09 2.678E+00 5.762E+01 1.037E+03 2.489E+02 1.343E+03 1.346E+03 8.423E+06 21.4419 1.00000
  1.778E+09 1.778E+09 2.691E+00 6.480E+01 1.164E+03 2.845E+02 1.513E+03 1.515E+03 8.558E+06 21.6722 1.00000
  1.995E+09 1.995E+09 2.703E+00 7.286E+01 1.306E+03 3.252E+02 1.704E+03 1.706E+03 8.694E+06 21.9024 1.00000
  2.239E+09 2.239E+09 2.716E+00 8.192E+01 1.465E+03 3.718E+02 1.919E+03 1.922E+03 8.828E+06 22.1327 1.00000
  2.512E+09 2.512E+09 2.728E+00 9.209E+01 1.644E+03 4.250E+02 2.161E+03 2.164E+03 8.962E+06 22.3629 1.00000
  2.818E+09 2.818E+09 2.741E+00 1.035E+02 1.845E+03 4.859E+02 2.435E+03 2.437E+03 9.096E+06 22.5932 1.00000
  3.162E+09 3.162E+09 2.754E+00 1.163E+02 2.070E+03 5.556E+02 2.742E+03 2.745E+03 9.229E+06 22.8235 1.00000
  3.548E+09 3.548E+09 2.767E+00 1.307E+02 2.323E+03 6.353E+02 3.089E+03 3.092E+03 9.362E+06 23.0537 1.00000
  3.981E+09 3.981E+09 2.779E+00 1.469E+02 2.607E+03 7.264E+02 3.480E+03 3.483E+03 9.494E+06 23.2840 1.00000
  4.467E+09 4.467E+09 2.792E+00 1.651E+02 2.925E+03 8.307E+02 3.921E+03 3.924E+03 9.626E+06 23.5142 1.00000
  5.012E+09 5.012E+09 2.805E+00 1.854E+02 3.282E+03 9.500E+02 4.418E+03 4.421E+03 9.757E+06 23.7445 1.00000
  5.623E+09 5.623E+09 2.819E+00 2.083E+02 3.683E+03 1.087E+03 4.978E+03 4.981E+03 9.887E+06 23.9747 1.00000
  6.310E+09 6.310E+09 2.832E+00 2.340E+02 4.133E+03 1.243E+03 5.610E+03 5.612E+03 1.002E+07 24.2050 1.00000
  7.079E+09 7.079E+09 2.845E+00 2.628E+02 4.637E+03 1.421E+03 6.322E+03 6.324E+03 1.015E+07 24.4353 1.00000
  7.943E+09 7.943E+09 2.858E+00 2.951E+02 5.203E+03 1.626E+03 7.124E+03 7.127E+03 1.028E+07 24.6655 1.00000
  8.913E+09 8.913E+09 2.872E+00 3.314E+02 5.838E+03 1.860E+03 8.030E+03 8.033E+03 1.040E+07 24.8958 1.00000
  1.000E+10 1.000E+10 2.885E+00 3.722E+02 6.551E+03 2.128E+03 9.051E+03 9.054E+03 1.053E+07 25.1260 1.00000
  1.122E+10 1.122E+10 2.899E+00 4.179E+02 7.351E+03 2.434E+03 1.020E+04 1.021E+04 1.066E+07 25.3563 1.00000
  1.259E+10 1.259E+10 2.913E+00 4.692E+02 8.248E+03 2.785E+03 1.150E+04 1.150E+04 1.079E+07 25.5866 1.00000
  1.413E+10 1.413E+10 2.926E+00 5.268E+02 9.254E+03 3.187E+03 1.297E+04 1.297E+04 1.091E+07 25.8168 1.00000
  1.585E+10 1.585E+10 2.940E+00 5.914E+02 1.038E+04 3.646E+03 1.462E+04 1.462E+04 1.104E+07 26.0471 1.00000
  1.778E+10 1.778E+10 2.954E+00 6.639E+02 1.165E+04 4.172E+03 1.649E+04 1.649E+04 1.116E+07 26.2773 1.00000
  1.995E+10 1.995E+10 2.968E+00 7.453E+02 1.307E+04 4.775E+03 1.859E+04 1.859E+04 1.129E+07 26.5076 1.00000
  2.239E+10 2.239E+10 2.982E+00 8.366E+02 1.467E+04 5.464E+03 2.097E+04 2.097E+04 1.141E+07 26.7379 1.00000
  2.512E+10 2.512E+10 2.996E+00 9.391E+02 1.646E+04 6.253E+03 2.365E+04 2.365E+04 1.153E+07 26.9681 1.00000
  2.818E+10 2.818E+10 3.010E+00 1.054E+03 1.846E+04 7.157E+03 2.668E+04 2.668E+04 1.165E+07 27.1984 1.00000
  3.162E+10 3.162E+10 3.025E+00 1.183E+03 2.072E+04 8.192E+03 3.009E+04 3.010E+04 1.178E+07 27.4286 1.00000
  3.548E+10 3.548E+10 3.039E+00 1.328E+03 2.325E+04 9.377E+03 3.395E+04 3.395E+04 1.190E+07 27.6589 1.00000
  3.981E+10 3.981E+10 3.053E+00 1.490E+03 2.608E+04 1.073E+04 3.831E+04 3.831E+04 1.202E+07 27.8891 1.00000
  4.467E+10 4.467E+10 3.068E+00 1.673E+03 2.926E+04 1.229E+04 4.322E+04 4.323E+04 1.214E+07 28.1194 1.00000
  5.012E+10 5.012E+10 3.083E+00 1.877E+03 3.283E+04 1.407E+04 4.878E+04 4.878E+04 1.226E+07 28.3497 1.00000
  5.623E+10 5.623E+10 3.097E+00 2.107E+03 3.684E+04 1.611E+04 5.505E+04 5.506E+04 1.237E+07 28.5799 1.00000
  6.310E+10 6.310E+10 3.112E+00 2.364E+03 4.133E+04 1.844E+04 6.214E+04 6.214E+04 1.249E+07 28.8102 1.00000
  7.079E+10 7.079E+10 3.127E+00 2.653E+03 4.638E+04 2.111E+04 7.014E+04 7.015E+04 1.261E+07 29.0404 1.00000
  7.943E+10 7.943E+10 3.142E+00 2.978E+03 5.203E+04 2.418E+04 7.919E+04 7.919E+04 1.272E+07 29.2707 1.00000
  8.913E+10 8.913E+10 3.157E+00 3.342E+03 5.838E+04 2.769E+04 8.941E+04 8.941E+04 1.284E+07 29.5010 1.00000
  1.000E+11 1.000E+11 3.172E+00 3.750E+03 6.550E+04 3.170E+04 1.010E+05 1.010E+05 1.295E+07 29.7312 1.00000
  1.122E+11 1.122E+11 3.187E+00 4.208E+03 7.350E+04 3.631E+04 1.140E+05 1.140E+05 1.307E+07 29.9615 1.00000
  1.259E+11 1.259E+11 3.202E+00 4.722E+03 8.246E+04 4.159E+04 1.288E+05 1.288E+05 1.318E+07 30.1917 1.00000
  1.413E+11 1.413E+11 3.218E+00 5.299E+03 9.252E+04 4.763E+04 1.455E+05 1.455E+05 1.329E+07 30.4220 1.00000
  1.585E+11 1.585E+11 3.233E+00 5.946E+03 1.038E+05 5.456E+04 1.643E+05 1.643E+05 1.341E+07 30.6522 1.00000
  1.778E+11 1.778E+11 3.249E+00 6.672E+03 1.165E+05 6.249E+04 1.856E+05 1.856E+05 1.352E+07 30.8825 1.00000
  1.995E+11 1.995E+11 3.264E+00 7.487E+03 1.307E+05 7.159E+04 2.098E+05 2.098E+05 1.363E+07 31.1128 1.00000
  2.239E+11 2.239E+11 3.280E+00 8.401E+03 1.466E+05 8.201E+04 2.370E+05 2.370E+05 1.374E+07 31.3430 1.00000
  2.512E+11 2.512E+11 3.296E+00 9.426E+03 1.645E+05 9.396E+04 2.679E+05 2.679E+05 1.384E+07 31.5733 1.00000
  2.818E+11 2.818E+11 3.312E+00 1.058E+04 1.846E+05 1.077E+05 3.028E+05 3.028E+05 1.395E+07 31.8035 1.00000
  3.162E+11 3.162E+11 3.328E+00 1.187E+04 2.071E+05 1.233E+05 3.423E+05 3.423E+05 1.406E+07 32.0338 1.00000
  3.548E+11 3.548E+11 3.344E+00 1.332E+04 2.324E+05 1.413E+05 3.870E+05 3.870E+05 1.417E+07 32.2641 1.00000
  3.981E+11 3.981E+11 3.360E+00 1.494E+04 2.607E+05 1.620E+05 4.376E+05 4.376E+05 1.427E+07 32.4943 1.00000
  4.467E+11 4.467E+11 3.376E+00 1.677E+04 2.925E+05 1.856E+05 4.949E+05 4.949E+05 1.438E+07 32.7246 1.00000
  5.012E+11 5.012E+11 3.393E+00 1.881E+04 3.282E+05 2.127E+05 5.597E+05 5.597E+05 1.448E+07 32.9548 1.00000
  5.623E+11 5.623E+11 3.409E+00 2.111E+04 3.682E+05 2.438E+05 6.331E+05 6.331E+05 1.458E+07 33.1851 1.00000
  6.310E+11 6.310E+11 3.426E+00 2.369E+04 4.131E+05 2.794E+05 7.162E+05 7.162E+05 1.468E+07 33.4153 1.00000
  7.079E+11 7.079E+11 3.442E+00 2.658E+04 4.635E+05 3.202E+05 8.103E+05 8.103E+05 1.479E+07 33.6456 1.00000
  7.943E+11 7.943E+11 3.459E+00 2.982E+04 5.200E+05 3.671E+05 9.169E+05 9.169E+05 1.489E+07 33.8759 1.00000
  8.913E+11 8.913E+11 3.476E+00 3.346E+04 5.835E+05 4.208E+05 1.038E+06 1.038E+06 1.499E+07 34.1061 1.00000
  1.000E+12 1.000E+12 3.493E+00 3.754E+04 6.546E+05 4.824E+05 1.175E+06 1.175E+06 1.508E+07 34.3364 1.00000
  1.122E+12 1.122E+12 3.510E+00 4.212E+04 7.345E+05 5.530E+05 1.330E+06 1.330E+06 1.518E+07 34.5666 1.00000
  1.259E+12 1.259E+12 3.527E+00 4.727E+04 8.241E+05 6.340E+05 1.505E+06 1.505E+06 1.528E+07 34.7969 1.00000
  1.413E+12 1.413E+12 3.544E+00 5.303E+04 9.246E+05 7.269E+05 1.705E+06 1.705E+06 1.538E+07 35.0272 1.00000
  1.585E+12 1.585E+12 3.561E+00 5.950E+04 1.037E+06 8.335E+05 1.930E+06 1.930E+06 1.547E+07 35.2574 1.00000
  1.778E+12 1.778E+12 3.579E+00 6.677E+04 1.164E+06 9.557E+05 2.186E+06 2.186E+06 1.556E+07 35.4877 1.00000
  1.995E+12 1.995E+12 3.596E+00 7.491E+04 1.306E+06 1.096E+06 2.477E+06 2.477E+06 1.566E+07 35.7179 1.00000
  2.239E+12 2.239E+12 3.614E+00 8.406E+04 1.465E+06 1.257E+06 2.806E+06 2.806E+06 1.575E+07 35.9482 1.00000
  2.512E+12 2.512E+12 3.631E+00 9.431E+04 1.644E+06 1.441E+06 3.180E+06 3.180E+06 1.584E+07 36.1784 1.00000
  2.818E+12 2.818E+12 3.649E+00 1.058E+05 1.844E+06 1.653E+06 3.603E+06 3.603E+06 1.593E+07 36.4087 1.00000
  3.162E+12 3.162E+12 3.667E+00 1.187E+05 2.069E+06 1.896E+06 4.084E+06 4.084E+06 1.602E+07 36.6390 1.00000
  3.548E+12 3.548E+12 3.685E+00 1.332E+05 2.322E+06 2.175E+06 4.630E+06 4.630E+06 1.611E+07 36.8692 1.00000
  3.981E+12 3.981E+12 3.703E+00 1.495E+05 2.605E+06 2.494E+06 5.249E+06 5.249E+06 1.620E+07 37.0995 1.00000
  4.467E+12 4.467E+12 3.721E+00 1.677E+05 2.923E+06 2.861E+06 5.952E+06 5.952E+06 1.629E+07 37.3297 1.00000
  5.012E+12 5.012E+12 3.739E+00 1.882E+05 3.279E+06 3.283E+06 6.750E+06 6.750E+06 1.637E+07 37.5600 1.00000
  5.623E+12 5.623E+12 3.758E+00 2.111E+05 3.679E+06 3.766E+06 7.656E+06 7.656E+06 1.646E+07 37.7903 1.00000
  6.310E+12 6.310E+12 3.776E+00 2.369E+05 4.128E+06 4.321E+06 8.685E+06 8.685E+06 1.654E+07 38.0205 1.00000
  7.079E+12 7.079E+12 3.795E+00 2.658E+05 4.631E+06 4.957E+06 9.854E+06 9.854E+06 1.663E+07 38.2508 1.00000
  7.943E+12 7.943E+12 3.813E+00 2.983E+05 5.196E+06 5.688E+06 1.118E+07 1.118E+07 1.671E+07 38.4810 1.00000
  8.913E+12 8.913E+12 3.832E+00 3.346E+05 5.830E+06 6.527E+06 1.269E+07 1.269E+07 1.679E+07 38.7113 1.00000
  1.000E+13 1.000E+13 3.851E+00 3.755E+05 6.541E+06 7.490E+06 1.441E+07 1.441E+07 1.687E+07 38.9416 1.00000
  1.122E+13 1.122E+13 3.870E+00 4.213E+05 7.339E+06 8.595E+06 1.635E+07 1.635E+07 1.695E+07 39.1718 1.00000
  1.259E+13 1.259E+13 3.889E+00 4.727E+05 8.234E+06 9.864E+06 1.857E+07 1.857E+07 1.703E+07 39.4021 1.00000
  1.413E+13 1.413E+13 3.908E+00 5.304E+05 9.238E+06 1.132E+07 2.109E+07 2.109E+07 1.711E+07 39.6323 1.00000
  1.585E+13 1.585E+13 3.927E+00 5.951E+05 1.036E+07 1.299E+07 2.395E+07 2.395E+07 1.718E+07 39.8626 1.00000
  1.778E+13 1.778E+13 3.947E+00 6.677E+05 1.163E+07 1.491E+07 2.721E+07 2.721E+07 1.726E+07 40.0928 1.00000
  1.995E+13 1.995E+13 3.966E+00 7.492E+05 1.305E+07 1.712E+07 3.091E+07 3.091E+07 1.733E+07 40.3231 1.00000
  2.239E+13 2.239E+13 3.986E+00 8.406E+05 1.464E+07 1.965E+07 3.513E+07 3.513E+07 1.741E+07 40.5534 1.00000
  2.512E+13 2.512E+13 4.006E+00 9.432E+05 1.642E+07 2.256E+07 3.992E+07 3.992E+07 1.748E+07 40.7836 1.00000
  2.818E+13 2.818E+13 4.025E+00 1.058E+06 1.843E+07 2.590E+07 4.538E+07 4.538E+07 1.755E+07 41.0139 1.00000
  3.162E+13 3.162E+13 4.045E+00 1.187E+06 2.067E+07 2.973E+07 5.159E+07 5.159E+07 1.763E+07 41.2441 1.00000
  3.548E+13 3.548E+13 4.065E+00 1.332E+06 2.319E+07 3.414E+07 5.866E+07 5.866E+07 1.770E+07 41.4744 1.00000
  3.981E+13 3.981E+13 4.085E+00 1.495E+06 2.602E+07 3.919E+07 6.671E+07 6.671E+07 1.776E+07 41.7047 1.00000
  4.467E+13 4.467E+13 4.106E+00 1.677E+06 2.920E+07 4.500E+07 7.588E+07 7.588E+07 1.783E+07 41.9349 1.00000
  5.012E+13 5.012E+13 4.126E+00 1.882E+06 3.276E+07 5.168E+07 8.632E+07 8.632E+07 1.790E+07 42.1652 1.00000
  5.623E+13 5.623E+13 4.146E+00 2.112E+06 3.675E+07 5.934E+07 9.821E+07 9.821E+07 1.797E+07 42.3954 1.00000
  6.310E+13 6.310E+13 4.167E+00 2.369E+06 4.123E+07 6.815E+07 1.118E+08 1.118E+08 1.803E+07 42.6257 1.00000
  7.079E+13 7.079E+13 4.188E+00 2.658E+06 4.626E+07 7.827E+07 1.272E+08 1.272E+08 1.810E+07 42.8559 1.00000
  7.943E+13 7.943E+13 4.208E+00 2.983E+06 5.191E+07 8.989E+07 1.448E+08 1.448E+08 1.816E+07 43.0862 1.00000
  8.913E+13 8.913E+13 4.229E+00 3.347E+06 5.824E+07 1.032E+08 1.648E+08 1.648E+08 1.822E+07 43.3165 1.00000
