 Incident particle is a Tau with M = 1776.82000 MeV
 Index = 0: MercuricIodide
      Absorber with <Z/A> = 0.40933
 Sternheimer coef:  a     k=m_s   x_0    x_1    I[eV]   Cbar  delta0
                 0.2151  2.7264  0.1040  3.4728  684.5  6.3787 0.00

 *** Table generated with PUMAS v1.00 ***

      T         p     Ionization  brems     pair     photonuc  Radloss    dE/dx   CSDA Range  delta   beta
    [MeV]    [MeV/c]  -----------------------[MeV cm^2/g]------------------------  [g/cm^2]
  1.000E+05 1.018E+05 1.653E+00 8.678E-04 1.522E-02 7.623E-03 2.371E-02 1.676E+00 2.983E+04  2.6528 0.99985
  1.122E+05 1.140E+05 1.672E+00 1.006E-03 1.822E-02 8.560E-03 2.779E-02 1.700E+00 3.705E+04  2.8080 0.99988
  1.259E+05 1.277E+05 1.691E+00 1.166E-03 2.175E-02 9.563E-03 3.248E-02 1.723E+00 4.505E+04  2.9669 0.99990
  1.413E+05 1.430E+05 1.710E+00 1.350E-03 2.590E-02 1.069E-02 3.794E-02 1.748E+00 5.391E+04  3.1296 0.99992
  1.585E+05 1.603E+05 1.728E+00 1.562E-03 3.076E-02 1.193E-02 4.426E-02 1.773E+00 6.370E+04  3.2960 0.99994
  1.778E+05 1.796E+05 1.747E+00 1.807E-03 3.644E-02 1.332E-02 5.157E-02 1.798E+00 7.453E+04  3.4659 0.99995
  1.995E+05 2.013E+05 1.765E+00 2.088E-03 4.307E-02 1.489E-02 6.005E-02 1.825E+00 8.651E+04  3.6393 0.99996
  2.239E+05 2.256E+05 1.783E+00 2.413E-03 5.079E-02 1.660E-02 6.981E-02 1.853E+00 9.975E+04  3.8160 0.99997
  2.512E+05 2.530E+05 1.801E+00 2.786E-03 5.976E-02 1.851E-02 8.106E-02 1.882E+00 1.144E+05  3.9961 0.99998
  2.818E+05 2.836E+05 1.819E+00 3.215E-03 7.017E-02 2.065E-02 9.403E-02 1.913E+00 1.305E+05  4.1793 0.99998
  3.162E+05 3.180E+05 1.836E+00 3.708E-03 8.222E-02 2.305E-02 1.090E-01 1.945E+00 1.484E+05  4.3657 0.99998
  3.548E+05 3.566E+05 1.854E+00 4.274E-03 9.615E-02 2.574E-02 1.262E-01 1.980E+00 1.680E+05  4.5550 0.99999
  3.981E+05 3.999E+05 1.871E+00 4.924E-03 1.122E-01 2.873E-02 1.459E-01 2.017E+00 1.897E+05  4.7473 0.99999
  4.467E+05 4.485E+05 1.888E+00 5.669E-03 1.308E-01 3.207E-02 1.685E-01 2.056E+00 2.135E+05  4.9424 0.99999
  5.012E+05 5.030E+05 1.905E+00 6.525E-03 1.521E-01 3.581E-02 1.944E-01 2.099E+00 2.398E+05  5.1403 0.99999
  5.623E+05 5.641E+05 1.921E+00 7.505E-03 1.766E-01 3.984E-02 2.239E-01 2.145E+00 2.686E+05  5.3407 1.00000
  6.310E+05 6.327E+05 1.938E+00 8.628E-03 2.047E-01 4.437E-02 2.577E-01 2.196E+00 3.002E+05  5.5437 1.00000
  7.079E+05 7.097E+05 1.954E+00 9.915E-03 2.370E-01 4.946E-02 2.964E-01 2.250E+00 3.348E+05  5.7492 1.00000
  7.943E+05 7.961E+05 1.970E+00 1.139E-02 2.739E-01 5.520E-02 3.405E-01 2.311E+00 3.727E+05  5.9569 1.00000
  8.913E+05 8.930E+05 1.986E+00 1.307E-02 3.161E-01 6.167E-02 3.909E-01 2.377E+00 4.141E+05  6.1670 1.00000
  1.000E+06 1.002E+06 2.002E+00 1.500E-02 3.643E-01 6.896E-02 4.483E-01 2.450E+00 4.592E+05  6.3791 1.00000
  1.122E+06 1.124E+06 2.017E+00 1.721E-02 4.194E-01 7.721E-02 5.138E-01 2.531E+00 5.082E+05  6.5933 1.00000
  1.259E+06 1.261E+06 2.032E+00 1.973E-02 4.821E-01 8.652E-02 5.883E-01 2.621E+00 5.613E+05  6.8094 1.00000
  1.413E+06 1.414E+06 2.047E+00 2.261E-02 5.534E-01 9.707E-02 6.731E-01 2.720E+00 6.189E+05  7.0273 1.00000
  1.585E+06 1.587E+06 2.062E+00 2.590E-02 6.346E-01 1.090E-01 7.695E-01 2.832E+00 6.810E+05  7.2470 1.00000
  1.778E+06 1.780E+06 2.077E+00 2.965E-02 7.269E-01 1.225E-01 8.791E-01 2.956E+00 7.479E+05  7.4682 1.00000
  1.995E+06 1.997E+06 2.091E+00 3.394E-02 8.317E-01 1.378E-01 1.003E+00 3.095E+00 8.196E+05  7.6910 1.00000
  2.239E+06 2.240E+06 2.105E+00 3.883E-02 9.506E-01 1.552E-01 1.145E+00 3.250E+00 8.964E+05  7.9151 1.00000
  2.512E+06 2.514E+06 2.120E+00 4.440E-02 1.085E+00 1.750E-01 1.305E+00 3.424E+00 9.783E+05  8.1404 1.00000
  2.818E+06 2.820E+06 2.133E+00 5.076E-02 1.238E+00 1.974E-01 1.486E+00 3.619E+00 1.065E+06  8.3669 1.00000
  3.162E+06 3.164E+06 2.147E+00 5.801E-02 1.411E+00 2.228E-01 1.692E+00 3.839E+00 1.158E+06  8.5944 1.00000
  3.548E+06 3.550E+06 2.161E+00 6.627E-02 1.606E+00 2.518E-01 1.924E+00 4.085E+00 1.255E+06  8.8228 1.00000
  3.981E+06 3.983E+06 2.174E+00 7.567E-02 1.827E+00 2.847E-01 2.187E+00 4.361E+00 1.358E+06  9.0519 1.00000
  4.467E+06 4.469E+06 2.187E+00 8.638E-02 2.077E+00 3.221E-01 2.485E+00 4.672E+00 1.466E+06  9.2815 1.00000
  5.012E+06 5.014E+06 2.200E+00 9.856E-02 2.359E+00 3.646E-01 2.822E+00 5.022E+00 1.578E+06  9.5115 1.00000
  5.623E+06 5.625E+06 2.213E+00 1.124E-01 2.677E+00 4.131E-01 3.202E+00 5.415E+00 1.695E+06  9.7417 1.00000
  6.310E+06 6.311E+06 2.226E+00 1.282E-01 3.036E+00 4.682E-01 3.632E+00 5.858E+00 1.817E+06  9.9719 1.00000
  7.079E+06 7.081E+06 2.238E+00 1.461E-01 3.440E+00 5.310E-01 4.118E+00 6.356E+00 1.944E+06 10.2021 1.00000
  7.943E+06 7.945E+06 2.251E+00 1.665E-01 3.896E+00 6.026E-01 4.666E+00 6.916E+00 2.074E+06 10.4323 1.00000
  8.913E+06 8.914E+06 2.263E+00 1.897E-01 4.410E+00 6.841E-01 5.284E+00 7.547E+00 2.208E+06 10.6625 1.00000
  1.000E+07 1.000E+07 2.275E+00 2.160E-01 4.989E+00 7.770E-01 5.982E+00 8.258E+00 2.346E+06 10.8927 1.00000
  1.122E+07 1.122E+07 2.288E+00 2.459E-01 5.641E+00 8.828E-01 6.770E+00 9.057E+00 2.487E+06 11.1229 1.00000
  1.259E+07 1.259E+07 2.300E+00 2.798E-01 6.375E+00 1.003E+00 7.658E+00 9.958E+00 2.632E+06 11.3531 1.00000
  1.413E+07 1.413E+07 2.311E+00 3.183E-01 7.200E+00 1.141E+00 8.660E+00 1.097E+01 2.779E+06 11.5834 1.00000
  1.585E+07 1.585E+07 2.323E+00 3.619E-01 8.129E+00 1.298E+00 9.789E+00 1.211E+01 2.929E+06 11.8136 1.00000
  1.778E+07 1.778E+07 2.335E+00 4.114E-01 9.174E+00 1.477E+00 1.106E+01 1.340E+01 3.081E+06 12.0438 1.00000
  1.995E+07 1.995E+07 2.347E+00 4.676E-01 1.035E+01 1.681E+00 1.250E+01 1.484E+01 3.235E+06 12.2741 1.00000
  2.239E+07 2.239E+07 2.358E+00 5.312E-01 1.167E+01 1.913E+00 1.411E+01 1.647E+01 3.391E+06 12.5043 1.00000
  2.512E+07 2.512E+07 2.370E+00 6.033E-01 1.315E+01 2.179E+00 1.594E+01 1.831E+01 3.548E+06 12.7345 1.00000
  2.818E+07 2.819E+07 2.381E+00 6.849E-01 1.482E+01 2.482E+00 1.799E+01 2.037E+01 3.707E+06 12.9648 1.00000
  3.162E+07 3.162E+07 2.393E+00 7.774E-01 1.670E+01 2.828E+00 2.030E+01 2.269E+01 3.867E+06 13.1950 1.00000
  3.548E+07 3.548E+07 2.404E+00 8.820E-01 1.880E+01 3.222E+00 2.291E+01 2.531E+01 4.029E+06 13.4253 1.00000
  3.981E+07 3.981E+07 2.416E+00 1.000E+00 2.117E+01 3.672E+00 2.584E+01 2.826E+01 4.191E+06 13.6555 1.00000
  4.467E+07 4.467E+07 2.427E+00 1.134E+00 2.383E+01 4.186E+00 2.915E+01 3.158E+01 4.354E+06 13.8858 1.00000
  5.012E+07 5.012E+07 2.438E+00 1.286E+00 2.681E+01 4.772E+00 3.287E+01 3.531E+01 4.517E+06 14.1160 1.00000
  5.623E+07 5.624E+07 2.450E+00 1.457E+00 3.017E+01 5.442E+00 3.707E+01 3.952E+01 4.681E+06 14.3463 1.00000
  6.310E+07 6.310E+07 2.461E+00 1.650E+00 3.393E+01 6.206E+00 4.179E+01 4.425E+01 4.845E+06 14.5765 1.00000
  7.079E+07 7.080E+07 2.473E+00 1.869E+00 3.816E+01 7.079E+00 4.711E+01 4.958E+01 5.010E+06 14.8068 1.00000
  7.943E+07 7.943E+07 2.484E+00 2.116E+00 4.291E+01 8.075E+00 5.310E+01 5.558E+01 5.175E+06 15.0370 1.00000
  8.913E+07 8.913E+07 2.495E+00 2.395E+00 4.824E+01 9.213E+00 5.985E+01 6.234E+01 5.340E+06 15.2673 1.00000
  1.000E+08 1.000E+08 2.507E+00 2.709E+00 5.422E+01 1.051E+01 6.744E+01 6.995E+01 5.505E+06 15.4975 1.00000
  1.122E+08 1.122E+08 2.518E+00 3.064E+00 6.094E+01 1.200E+01 7.600E+01 7.852E+01 5.670E+06 15.7278 1.00000
  1.259E+08 1.259E+08 2.530E+00 3.465E+00 6.848E+01 1.369E+01 8.563E+01 8.816E+01 5.834E+06 15.9580 1.00000
  1.413E+08 1.413E+08 2.541E+00 3.916E+00 7.694E+01 1.563E+01 9.648E+01 9.902E+01 5.999E+06 16.1883 1.00000
  1.585E+08 1.585E+08 2.553E+00 4.426E+00 8.644E+01 1.784E+01 1.087E+02 1.113E+02 6.164E+06 16.4186 1.00000
  1.778E+08 1.778E+08 2.564E+00 5.000E+00 9.710E+01 2.036E+01 1.225E+02 1.250E+02 6.328E+06 16.6488 1.00000
  1.995E+08 1.995E+08 2.576E+00 5.647E+00 1.091E+02 2.325E+01 1.380E+02 1.405E+02 6.492E+06 16.8791 1.00000
  2.239E+08 2.239E+08 2.588E+00 6.376E+00 1.225E+02 2.654E+01 1.554E+02 1.580E+02 6.655E+06 17.1093 1.00000
  2.512E+08 2.512E+08 2.599E+00 7.197E+00 1.376E+02 3.031E+01 1.751E+02 1.777E+02 6.819E+06 17.3396 1.00000
  2.818E+08 2.818E+08 2.611E+00 8.122E+00 1.545E+02 3.461E+01 1.972E+02 1.998E+02 6.982E+06 17.5698 1.00000
  3.162E+08 3.162E+08 2.623E+00 9.164E+00 1.735E+02 3.952E+01 2.222E+02 2.248E+02 7.144E+06 17.8001 1.00000
  3.548E+08 3.548E+08 2.635E+00 1.034E+01 1.948E+02 4.514E+01 2.503E+02 2.529E+02 7.306E+06 18.0304 1.00000
  3.981E+08 3.981E+08 2.647E+00 1.166E+01 2.187E+02 5.156E+01 2.819E+02 2.845E+02 7.468E+06 18.2606 1.00000
  4.467E+08 4.467E+08 2.659E+00 1.314E+01 2.455E+02 5.889E+01 3.175E+02 3.202E+02 7.629E+06 18.4909 1.00000
  5.012E+08 5.012E+08 2.671E+00 1.481E+01 2.756E+02 6.727E+01 3.577E+02 3.604E+02 7.790E+06 18.7211 1.00000
  5.623E+08 5.623E+08 2.683E+00 1.669E+01 3.094E+02 7.685E+01 4.029E+02 4.056E+02 7.950E+06 18.9514 1.00000
  6.310E+08 6.310E+08 2.695E+00 1.880E+01 3.473E+02 8.780E+01 4.539E+02 4.566E+02 8.110E+06 19.1816 1.00000
  7.079E+08 7.079E+08 2.707E+00 2.118E+01 3.898E+02 1.003E+02 5.113E+02 5.140E+02 8.269E+06 19.4119 1.00000
  7.943E+08 7.943E+08 2.720E+00 2.385E+01 4.376E+02 1.146E+02 5.760E+02 5.788E+02 8.428E+06 19.6422 1.00000
  8.913E+08 8.913E+08 2.732E+00 2.685E+01 4.911E+02 1.310E+02 6.490E+02 6.517E+02 8.586E+06 19.8724 1.00000
  1.000E+09 1.000E+09 2.744E+00 3.022E+01 5.512E+02 1.497E+02 7.311E+02 7.339E+02 8.743E+06 20.1027 1.00000
  1.122E+09 1.122E+09 2.757E+00 3.402E+01 6.187E+02 1.710E+02 8.237E+02 8.265E+02 8.900E+06 20.3329 1.00000
  1.259E+09 1.259E+09 2.769E+00 3.828E+01 6.943E+02 1.955E+02 9.281E+02 9.309E+02 9.057E+06 20.5632 1.00000
  1.413E+09 1.413E+09 2.782E+00 4.307E+01 7.792E+02 2.234E+02 1.046E+03 1.049E+03 9.212E+06 20.7934 1.00000
  1.585E+09 1.585E+09 2.795E+00 4.845E+01 8.745E+02 2.554E+02 1.178E+03 1.181E+03 9.368E+06 21.0237 1.00000
  1.778E+09 1.778E+09 2.807E+00 5.449E+01 9.814E+02 2.919E+02 1.328E+03 1.331E+03 9.522E+06 21.2540 1.00000
  1.995E+09 1.995E+09 2.820E+00 6.128E+01 1.101E+03 3.337E+02 1.496E+03 1.499E+03 9.676E+06 21.4842 1.00000
  2.239E+09 2.239E+09 2.833E+00 6.890E+01 1.236E+03 3.815E+02 1.686E+03 1.689E+03 9.829E+06 21.7145 1.00000
  2.512E+09 2.512E+09 2.846E+00 7.746E+01 1.387E+03 4.361E+02 1.900E+03 1.903E+03 9.982E+06 21.9447 1.00000
  2.818E+09 2.818E+09 2.859E+00 8.707E+01 1.556E+03 4.986E+02 2.142E+03 2.145E+03 1.013E+07 22.1750 1.00000
  3.162E+09 3.162E+09 2.872E+00 9.787E+01 1.746E+03 5.701E+02 2.414E+03 2.417E+03 1.029E+07 22.4053 1.00000
  3.548E+09 3.548E+09 2.885E+00 1.100E+02 1.960E+03 6.519E+02 2.722E+03 2.724E+03 1.044E+07 22.6355 1.00000
  3.981E+09 3.981E+09 2.899E+00 1.236E+02 2.199E+03 7.455E+02 3.068E+03 3.071E+03 1.059E+07 22.8658 1.00000
  4.467E+09 4.467E+09 2.912E+00 1.389E+02 2.468E+03 8.525E+02 3.459E+03 3.462E+03 1.074E+07 23.0960 1.00000
  5.012E+09 5.012E+09 2.925E+00 1.560E+02 2.769E+03 9.749E+02 3.900E+03 3.903E+03 1.088E+07 23.3263 1.00000
  5.623E+09 5.623E+09 2.939E+00 1.753E+02 3.107E+03 1.115E+03 4.397E+03 4.400E+03 1.103E+07 23.5565 1.00000
  6.310E+09 6.310E+09 2.952E+00 1.969E+02 3.486E+03 1.275E+03 4.958E+03 4.961E+03 1.118E+07 23.7868 1.00000
  7.079E+09 7.079E+09 2.966E+00 2.211E+02 3.912E+03 1.459E+03 5.591E+03 5.594E+03 1.132E+07 24.0171 1.00000
  7.943E+09 7.943E+09 2.980E+00 2.484E+02 4.389E+03 1.669E+03 6.306E+03 6.309E+03 1.147E+07 24.2473 1.00000
  8.913E+09 8.913E+09 2.993E+00 2.789E+02 4.925E+03 1.909E+03 7.112E+03 7.115E+03 1.162E+07 24.4776 1.00000
  1.000E+10 1.000E+10 3.007E+00 3.132E+02 5.526E+03 2.183E+03 8.023E+03 8.026E+03 1.176E+07 24.7078 1.00000
  1.122E+10 1.122E+10 3.021E+00 3.517E+02 6.200E+03 2.498E+03 9.050E+03 9.053E+03 1.190E+07 24.9381 1.00000
  1.259E+10 1.259E+10 3.035E+00 3.949E+02 6.957E+03 2.858E+03 1.021E+04 1.021E+04 1.205E+07 25.1684 1.00000
  1.413E+10 1.413E+10 3.049E+00 4.434E+02 7.806E+03 3.270E+03 1.152E+04 1.152E+04 1.219E+07 25.3986 1.00000
  1.585E+10 1.585E+10 3.063E+00 4.978E+02 8.759E+03 3.742E+03 1.300E+04 1.300E+04 1.233E+07 25.6289 1.00000
  1.778E+10 1.778E+10 3.078E+00 5.589E+02 9.827E+03 4.281E+03 1.467E+04 1.467E+04 1.247E+07 25.8591 1.00000
  1.995E+10 1.995E+10 3.092E+00 6.274E+02 1.103E+04 4.900E+03 1.655E+04 1.656E+04 1.261E+07 26.0894 1.00000
  2.239E+10 2.239E+10 3.106E+00 7.043E+02 1.237E+04 5.607E+03 1.868E+04 1.869E+04 1.275E+07 26.3197 1.00000
  2.512E+10 2.512E+10 3.121E+00 7.906E+02 1.388E+04 6.417E+03 2.109E+04 2.109E+04 1.288E+07 26.5499 1.00000
  2.818E+10 2.818E+10 3.136E+00 8.874E+02 1.558E+04 7.344E+03 2.381E+04 2.381E+04 1.302E+07 26.7802 1.00000
  3.162E+10 3.162E+10 3.150E+00 9.960E+02 1.748E+04 8.406E+03 2.688E+04 2.688E+04 1.316E+07 27.0104 1.00000
  3.548E+10 3.548E+10 3.165E+00 1.118E+03 1.961E+04 9.622E+03 3.035E+04 3.035E+04 1.329E+07 27.2407 1.00000
  3.981E+10 3.981E+10 3.180E+00 1.255E+03 2.200E+04 1.101E+04 3.427E+04 3.427E+04 1.343E+07 27.4709 1.00000
  4.467E+10 4.467E+10 3.195E+00 1.408E+03 2.468E+04 1.261E+04 3.870E+04 3.871E+04 1.356E+07 27.7012 1.00000
  5.012E+10 5.012E+10 3.210E+00 1.581E+03 2.770E+04 1.444E+04 4.371E+04 4.372E+04 1.369E+07 27.9315 1.00000
  5.623E+10 5.623E+10 3.225E+00 1.774E+03 3.108E+04 1.653E+04 4.938E+04 4.938E+04 1.383E+07 28.1617 1.00000
  6.310E+10 6.310E+10 3.240E+00 1.991E+03 3.487E+04 1.892E+04 5.578E+04 5.578E+04 1.396E+07 28.3920 1.00000
  7.079E+10 7.079E+10 3.255E+00 2.234E+03 3.912E+04 2.167E+04 6.302E+04 6.302E+04 1.409E+07 28.6222 1.00000
  7.943E+10 7.943E+10 3.271E+00 2.507E+03 4.389E+04 2.481E+04 7.121E+04 7.121E+04 1.422E+07 28.8525 1.00000
  8.913E+10 8.913E+10 3.286E+00 2.814E+03 4.925E+04 2.841E+04 8.047E+04 8.047E+04 1.434E+07 29.0828 1.00000
  1.000E+11 1.000E+11 3.301E+00 3.157E+03 5.526E+04 3.253E+04 9.095E+04 9.095E+04 1.447E+07 29.3130 1.00000
  1.122E+11 1.122E+11 3.317E+00 3.543E+03 6.200E+04 3.726E+04 1.028E+05 1.028E+05 1.460E+07 29.5433 1.00000
  1.259E+11 1.259E+11 3.333E+00 3.976E+03 6.956E+04 4.267E+04 1.162E+05 1.162E+05 1.472E+07 29.7735 1.00000
  1.413E+11 1.413E+11 3.348E+00 4.462E+03 7.804E+04 4.888E+04 1.314E+05 1.314E+05 1.485E+07 30.0038 1.00000
  1.585E+11 1.585E+11 3.364E+00 5.006E+03 8.757E+04 5.599E+04 1.486E+05 1.486E+05 1.497E+07 30.2340 1.00000
  1.778E+11 1.778E+11 3.380E+00 5.618E+03 9.825E+04 6.413E+04 1.680E+05 1.680E+05 1.509E+07 30.4643 1.00000
  1.995E+11 1.995E+11 3.396E+00 6.304E+03 1.102E+05 7.346E+04 1.900E+05 1.900E+05 1.522E+07 30.6946 1.00000
  2.239E+11 2.239E+11 3.412E+00 7.074E+03 1.237E+05 8.416E+04 2.149E+05 2.149E+05 1.534E+07 30.9248 1.00000
  2.512E+11 2.512E+11 3.429E+00 7.937E+03 1.388E+05 9.642E+04 2.431E+05 2.431E+05 1.546E+07 31.1551 1.00000
  2.818E+11 2.818E+11 3.445E+00 8.906E+03 1.557E+05 1.105E+05 2.751E+05 2.751E+05 1.558E+07 31.3853 1.00000
  3.162E+11 3.162E+11 3.461E+00 9.994E+03 1.747E+05 1.266E+05 3.113E+05 3.113E+05 1.569E+07 31.6156 1.00000
  3.548E+11 3.548E+11 3.478E+00 1.121E+04 1.960E+05 1.450E+05 3.522E+05 3.522E+05 1.581E+07 31.8459 1.00000
  3.981E+11 3.981E+11 3.495E+00 1.258E+04 2.199E+05 1.662E+05 3.987E+05 3.987E+05 1.593E+07 32.0761 1.00000
  4.467E+11 4.467E+11 3.511E+00 1.412E+04 2.467E+05 1.905E+05 4.513E+05 4.513E+05 1.604E+07 32.3064 1.00000
  5.012E+11 5.012E+11 3.528E+00 1.584E+04 2.768E+05 2.183E+05 5.109E+05 5.109E+05 1.615E+07 32.5366 1.00000
  5.623E+11 5.623E+11 3.545E+00 1.778E+04 3.106E+05 2.501E+05 5.785E+05 5.785E+05 1.627E+07 32.7669 1.00000
  6.310E+11 6.310E+11 3.562E+00 1.995E+04 3.485E+05 2.867E+05 6.551E+05 6.551E+05 1.638E+07 32.9971 1.00000
  7.079E+11 7.079E+11 3.579E+00 2.238E+04 3.910E+05 3.286E+05 7.420E+05 7.420E+05 1.649E+07 33.2274 1.00000
  7.943E+11 7.943E+11 3.596E+00 2.511E+04 4.387E+05 3.767E+05 8.405E+05 8.405E+05 1.660E+07 33.4577 1.00000
  8.913E+11 8.913E+11 3.613E+00 2.818E+04 4.922E+05 4.318E+05 9.521E+05 9.521E+05 1.671E+07 33.6879 1.00000
  1.000E+12 1.000E+12 3.631E+00 3.161E+04 5.522E+05 4.950E+05 1.079E+06 1.079E+06 1.682E+07 33.9182 1.00000
  1.122E+12 1.122E+12 3.648E+00 3.547E+04 6.196E+05 5.675E+05 1.223E+06 1.223E+06 1.692E+07 34.1484 1.00000
  1.259E+12 1.259E+12 3.666E+00 3.980E+04 6.952E+05 6.506E+05 1.386E+06 1.386E+06 1.703E+07 34.3787 1.00000
  1.413E+12 1.413E+12 3.683E+00 4.466E+04 7.799E+05 7.459E+05 1.571E+06 1.571E+06 1.713E+07 34.6090 1.00000
  1.585E+12 1.585E+12 3.701E+00 5.011E+04 8.751E+05 8.553E+05 1.780E+06 1.780E+06 1.723E+07 34.8392 1.00000
  1.778E+12 1.778E+12 3.719E+00 5.622E+04 9.818E+05 9.807E+05 2.019E+06 2.019E+06 1.734E+07 35.0695 1.00000
  1.995E+12 1.995E+12 3.737E+00 6.308E+04 1.102E+06 1.125E+06 2.289E+06 2.289E+06 1.744E+07 35.2997 1.00000
  2.239E+12 2.239E+12 3.755E+00 7.078E+04 1.236E+06 1.290E+06 2.596E+06 2.596E+06 1.754E+07 35.5300 1.00000
  2.512E+12 2.512E+12 3.773E+00 7.942E+04 1.387E+06 1.479E+06 2.945E+06 2.945E+06 1.764E+07 35.7602 1.00000
  2.818E+12 2.818E+12 3.791E+00 8.911E+04 1.556E+06 1.696E+06 3.341E+06 3.341E+06 1.773E+07 35.9905 1.00000
  3.162E+12 3.162E+12 3.809E+00 9.998E+04 1.746E+06 1.946E+06 3.791E+06 3.791E+06 1.783E+07 36.2208 1.00000
  3.548E+12 3.548E+12 3.828E+00 1.122E+05 1.958E+06 2.232E+06 4.302E+06 4.302E+06 1.793E+07 36.4510 1.00000
  3.981E+12 3.981E+12 3.846E+00 1.259E+05 2.197E+06 2.560E+06 4.883E+06 4.883E+06 1.802E+07 36.6813 1.00000
  4.467E+12 4.467E+12 3.865E+00 1.412E+05 2.465E+06 2.936E+06 5.543E+06 5.543E+06 1.812E+07 36.9115 1.00000
  5.012E+12 5.012E+12 3.884E+00 1.585E+05 2.766E+06 3.369E+06 6.293E+06 6.293E+06 1.821E+07 37.1418 1.00000
  5.623E+12 5.623E+12 3.903E+00 1.778E+05 3.103E+06 3.865E+06 7.146E+06 7.146E+06 1.830E+07 37.3721 1.00000
  6.310E+12 6.310E+12 3.922E+00 1.995E+05 3.482E+06 4.434E+06 8.115E+06 8.115E+06 1.839E+07 37.6023 1.00000
  7.079E+12 7.079E+12 3.941E+00 2.238E+05 3.907E+06 5.087E+06 9.217E+06 9.217E+06 1.848E+07 37.8326 1.00000
  7.943E+12 7.943E+12 3.960E+00 2.512E+05 4.383E+06 5.837E+06 1.047E+07 1.047E+07 1.857E+07 38.0628 1.00000
  8.913E+12 8.913E+12 3.979E+00 2.818E+05 4.918E+06 6.698E+06 1.190E+07 1.190E+07 1.865E+07 38.2931 1.00000
  1.000E+13 1.000E+13 3.998E+00 3.162E+05 5.517E+06 7.686E+06 1.352E+07 1.352E+07 1.874E+07 38.5234 1.00000
  1.122E+13 1.122E+13 4.018E+00 3.548E+05 6.190E+06 8.820E+06 1.536E+07 1.536E+07 1.882E+07 38.7536 1.00000
  1.259E+13 1.259E+13 4.037E+00 3.981E+05 6.945E+06 1.012E+07 1.747E+07 1.747E+07 1.891E+07 38.9839 1.00000
  1.413E+13 1.413E+13 4.057E+00 4.466E+05 7.792E+06 1.162E+07 1.986E+07 1.986E+07 1.899E+07 39.2141 1.00000
  1.585E+13 1.585E+13 4.077E+00 5.011E+05 8.743E+06 1.333E+07 2.258E+07 2.258E+07 1.907E+07 39.4444 1.00000
  1.778E+13 1.778E+13 4.097E+00 5.623E+05 9.809E+06 1.530E+07 2.567E+07 2.567E+07 1.915E+07 39.6746 1.00000
  1.995E+13 1.995E+13 4.117E+00 6.309E+05 1.101E+07 1.757E+07 2.920E+07 2.920E+07 1.923E+07 39.9049 1.00000
  2.239E+13 2.239E+13 4.137E+00 7.079E+05 1.235E+07 2.016E+07 3.322E+07 3.322E+07 1.931E+07 40.1352 1.00000
  2.512E+13 2.512E+13 4.157E+00 7.942E+05 1.385E+07 2.315E+07 3.780E+07 3.780E+07 1.939E+07 40.3654 1.00000
  2.818E+13 2.818E+13 4.177E+00 8.911E+05 1.554E+07 2.657E+07 4.301E+07 4.301E+07 1.946E+07 40.5957 1.00000
  3.162E+13 3.162E+13 4.198E+00 9.999E+05 1.744E+07 3.051E+07 4.895E+07 4.895E+07 1.954E+07 40.8259 1.00000
  3.548E+13 3.548E+13 4.218E+00 1.122E+06 1.957E+07 3.503E+07 5.572E+07 5.572E+07 1.961E+07 41.0562 1.00000
  3.981E+13 3.981E+13 4.239E+00 1.259E+06 2.195E+07 4.022E+07 6.343E+07 6.343E+07 1.969E+07 41.2865 1.00000
  4.467E+13 4.467E+13 4.260E+00 1.412E+06 2.463E+07 4.618E+07 7.222E+07 7.222E+07 1.976E+07 41.5167 1.00000
  5.012E+13 5.012E+13 4.281E+00 1.585E+06 2.763E+07 5.303E+07 8.225E+07 8.225E+07 1.983E+07 41.7470 1.00000
  5.623E+13 5.623E+13 4.302E+00 1.778E+06 3.100E+07 6.090E+07 9.368E+07 9.368E+07 1.990E+07 41.9772 1.00000
  6.310E+13 6.310E+13 4.323E+00 1.995E+06 3.478E+07 6.993E+07 1.067E+08 1.067E+08 1.997E+07 42.2075 1.00000
  7.079E+13 7.079E+13 4.344E+00 2.238E+06 3.902E+07 8.031E+07 1.216E+08 1.216E+08 2.004E+07 42.4377 1.00000
  7.943E+13 7.943E+13 4.365E+00 2.512E+06 4.378E+07 9.224E+07 1.385E+08 1.385E+08 2.010E+07 42.6680 1.00000
  8.913E+13 8.913E+13 4.387E+00 2.818E+06 4.912E+07 1.059E+08 1.579E+08 1.579E+08 2.017E+07 42.8983 1.00000
