 Incident particle is a Tau with M = 1776.82000 MeV
 Index = 0: MixDWax
      Absorber with <Z/A> = 0.56469
 Sternheimer coef:  a     k=m_s   x_0    x_1    I[eV]   Cbar  delta0
                 0.0749  3.6823  0.1371  2.7145   60.9  3.0780 0.00

 *** Table generated with PUMAS v1.00 ***

      T         p     Ionization  brems     pair     photonuc  Radloss    dE/dx   CSDA Range  delta   beta
    [MeV]    [MeV/c]  -----------------------[MeV cm^2/g]------------------------  [g/cm^2]
  1.000E+05 1.018E+05 2.489E+00 1.194E-04 1.863E-03 8.455E-03 1.044E-02 2.499E+00 2.000E+04  5.0812 0.99985
  1.122E+05 1.140E+05 2.510E+00 1.379E-04 2.254E-03 9.557E-03 1.195E-02 2.522E+00 2.486E+04  5.2965 0.99988
  1.259E+05 1.277E+05 2.531E+00 1.592E-04 2.716E-03 1.074E-02 1.362E-02 2.545E+00 3.027E+04  5.5137 0.99990
  1.413E+05 1.430E+05 2.552E+00 1.837E-04 3.260E-03 1.208E-02 1.553E-02 2.568E+00 3.628E+04  5.7326 0.99992
  1.585E+05 1.603E+05 2.573E+00 2.119E-04 3.901E-03 1.358E-02 1.770E-02 2.591E+00 4.296E+04  5.9531 0.99994
  1.778E+05 1.796E+05 2.594E+00 2.442E-04 4.653E-03 1.526E-02 2.016E-02 2.615E+00 5.039E+04  6.1750 0.99995
  1.995E+05 2.013E+05 2.615E+00 2.815E-04 5.535E-03 1.717E-02 2.299E-02 2.638E+00 5.865E+04  6.3981 0.99996
  2.239E+05 2.256E+05 2.636E+00 3.242E-04 6.567E-03 1.927E-02 2.616E-02 2.662E+00 6.784E+04  6.6224 0.99997
  2.512E+05 2.530E+05 2.657E+00 3.733E-04 7.771E-03 2.162E-02 2.976E-02 2.687E+00 7.805E+04  6.8477 0.99998
  2.818E+05 2.836E+05 2.678E+00 4.297E-04 9.174E-03 2.426E-02 3.387E-02 2.712E+00 8.940E+04  7.0739 0.99998
  3.162E+05 3.180E+05 2.699E+00 4.943E-04 1.081E-02 2.726E-02 3.856E-02 2.737E+00 1.020E+05  7.3008 0.99998
  3.548E+05 3.566E+05 2.719E+00 5.685E-04 1.270E-02 3.063E-02 4.389E-02 2.763E+00 1.161E+05  7.5284 0.99999
  3.981E+05 3.999E+05 2.740E+00 6.536E-04 1.490E-02 3.439E-02 4.994E-02 2.790E+00 1.317E+05  7.7565 0.99999
  4.467E+05 4.485E+05 2.760E+00 7.511E-04 1.744E-02 3.860E-02 5.680E-02 2.817E+00 1.490E+05  7.9850 0.99999
  5.012E+05 5.030E+05 2.781E+00 8.628E-04 2.039E-02 4.336E-02 6.461E-02 2.845E+00 1.682E+05  8.2139 0.99999
  5.623E+05 5.641E+05 2.801E+00 9.909E-04 2.378E-02 4.851E-02 7.328E-02 2.875E+00 1.896E+05  8.4431 1.00000
  6.310E+05 6.327E+05 2.822E+00 1.138E-03 2.770E-02 5.432E-02 8.316E-02 2.905E+00 2.134E+05  8.6725 1.00000
  7.079E+05 7.097E+05 2.842E+00 1.305E-03 3.222E-02 6.088E-02 9.441E-02 2.936E+00 2.397E+05  8.9021 1.00000
  7.943E+05 7.961E+05 2.862E+00 1.498E-03 3.741E-02 6.830E-02 1.072E-01 2.969E+00 2.690E+05  9.1318 1.00000
  8.913E+05 8.930E+05 2.882E+00 1.718E-03 4.337E-02 7.668E-02 1.218E-01 3.004E+00 3.014E+05  9.3616 1.00000
  1.000E+06 1.002E+06 2.902E+00 1.970E-03 5.022E-02 8.617E-02 1.384E-01 3.041E+00 3.374E+05  9.5914 1.00000
  1.122E+06 1.124E+06 2.922E+00 2.258E-03 5.807E-02 9.691E-02 1.572E-01 3.079E+00 3.773E+05  9.8213 1.00000
  1.259E+06 1.261E+06 2.942E+00 2.588E-03 6.706E-02 1.091E-01 1.787E-01 3.121E+00 4.215E+05 10.0512 1.00000
  1.413E+06 1.414E+06 2.962E+00 2.965E-03 7.735E-02 1.229E-01 2.032E-01 3.165E+00 4.703E+05 10.2811 1.00000
  1.585E+06 1.587E+06 2.981E+00 3.396E-03 8.910E-02 1.385E-01 2.310E-01 3.212E+00 5.244E+05 10.5111 1.00000
  1.778E+06 1.780E+06 3.001E+00 3.889E-03 1.025E-01 1.563E-01 2.627E-01 3.263E+00 5.841E+05 10.7411 1.00000
  1.995E+06 1.997E+06 3.020E+00 4.453E-03 1.178E-01 1.765E-01 2.987E-01 3.319E+00 6.501E+05 10.9712 1.00000
  2.239E+06 2.240E+06 3.039E+00 5.096E-03 1.353E-01 1.994E-01 3.397E-01 3.379E+00 7.228E+05 11.2013 1.00000
  2.512E+06 2.514E+06 3.058E+00 5.832E-03 1.551E-01 2.254E-01 3.864E-01 3.445E+00 8.028E+05 11.4313 1.00000
  2.818E+06 2.820E+06 3.077E+00 6.672E-03 1.777E-01 2.550E-01 4.394E-01 3.516E+00 8.909E+05 11.6614 1.00000
  3.162E+06 3.164E+06 3.096E+00 7.632E-03 2.034E-01 2.886E-01 4.997E-01 3.595E+00 9.876E+05 11.8916 1.00000
  3.548E+06 3.550E+06 3.114E+00 8.727E-03 2.326E-01 3.269E-01 5.682E-01 3.682E+00 1.094E+06 12.1217 1.00000
  3.981E+06 3.983E+06 3.132E+00 9.977E-03 2.657E-01 3.705E-01 6.462E-01 3.779E+00 1.210E+06 12.3519 1.00000
  4.467E+06 4.469E+06 3.151E+00 1.140E-02 3.032E-01 4.201E-01 7.347E-01 3.885E+00 1.337E+06 12.5820 1.00000
  5.012E+06 5.014E+06 3.168E+00 1.303E-02 3.458E-01 4.765E-01 8.353E-01 4.004E+00 1.475E+06 12.8122 1.00000
  5.623E+06 5.625E+06 3.186E+00 1.489E-02 3.940E-01 5.408E-01 9.497E-01 4.136E+00 1.625E+06 13.0424 1.00000
  6.310E+06 6.311E+06 3.204E+00 1.700E-02 4.485E-01 6.140E-01 1.080E+00 4.283E+00 1.788E+06 13.2726 1.00000
  7.079E+06 7.081E+06 3.221E+00 1.941E-02 5.102E-01 6.975E-01 1.227E+00 4.448E+00 1.965E+06 13.5028 1.00000
  7.943E+06 7.945E+06 3.238E+00 2.216E-02 5.799E-01 7.925E-01 1.395E+00 4.633E+00 2.155E+06 13.7330 1.00000
  8.913E+06 8.914E+06 3.255E+00 2.529E-02 6.587E-01 9.009E-01 1.585E+00 4.840E+00 2.360E+06 13.9632 1.00000
  1.000E+07 1.000E+07 3.272E+00 2.886E-02 7.477E-01 1.024E+00 1.801E+00 5.073E+00 2.579E+06 14.1934 1.00000
  1.122E+07 1.122E+07 3.289E+00 3.292E-02 8.482E-01 1.165E+00 2.046E+00 5.335E+00 2.814E+06 14.4236 1.00000
  1.259E+07 1.259E+07 3.306E+00 3.754E-02 9.615E-01 1.326E+00 2.325E+00 5.630E+00 3.064E+06 14.6538 1.00000
  1.413E+07 1.413E+07 3.322E+00 4.280E-02 1.089E+00 1.509E+00 2.641E+00 5.963E+00 3.329E+06 14.8841 1.00000
  1.585E+07 1.585E+07 3.338E+00 4.879E-02 1.233E+00 1.717E+00 3.000E+00 6.338E+00 3.609E+06 15.1143 1.00000
  1.778E+07 1.778E+07 3.355E+00 5.559E-02 1.396E+00 1.956E+00 3.407E+00 6.762E+00 3.905E+06 15.3445 1.00000
  1.995E+07 1.995E+07 3.371E+00 6.332E-02 1.579E+00 2.227E+00 3.869E+00 7.240E+00 4.215E+06 15.5748 1.00000
  2.239E+07 2.239E+07 3.387E+00 7.211E-02 1.785E+00 2.537E+00 4.394E+00 7.781E+00 4.540E+06 15.8050 1.00000
  2.512E+07 2.512E+07 3.403E+00 8.210E-02 2.017E+00 2.891E+00 4.989E+00 8.392E+00 4.878E+06 16.0352 1.00000
  2.818E+07 2.819E+07 3.419E+00 9.345E-02 2.278E+00 3.294E+00 5.665E+00 9.084E+00 5.229E+06 16.2655 1.00000
  3.162E+07 3.162E+07 3.434E+00 1.063E-01 2.571E+00 3.755E+00 6.432E+00 9.867E+00 5.593E+06 16.4957 1.00000
  3.548E+07 3.548E+07 3.450E+00 1.209E-01 2.902E+00 4.280E+00 7.303E+00 1.075E+01 5.968E+06 16.7260 1.00000
  3.981E+07 3.981E+07 3.466E+00 1.375E-01 3.274E+00 4.880E+00 8.291E+00 1.176E+01 6.353E+06 16.9562 1.00000
  4.467E+07 4.467E+07 3.482E+00 1.564E-01 3.691E+00 5.564E+00 9.412E+00 1.289E+01 6.748E+06 17.1865 1.00000
  5.012E+07 5.012E+07 3.497E+00 1.777E-01 4.161E+00 6.346E+00 1.068E+01 1.418E+01 7.152E+06 17.4167 1.00000
  5.623E+07 5.624E+07 3.513E+00 2.019E-01 4.689E+00 7.238E+00 1.213E+01 1.564E+01 7.563E+06 17.6470 1.00000
  6.310E+07 6.310E+07 3.529E+00 2.294E-01 5.283E+00 8.256E+00 1.377E+01 1.730E+01 7.980E+06 17.8772 1.00000
  7.079E+07 7.080E+07 3.544E+00 2.605E-01 5.949E+00 9.419E+00 1.563E+01 1.917E+01 8.404E+06 18.1075 1.00000
  7.943E+07 7.943E+07 3.560E+00 2.957E-01 6.698E+00 1.075E+01 1.774E+01 2.130E+01 8.832E+06 18.3377 1.00000
  8.913E+07 8.913E+07 3.576E+00 3.355E-01 7.540E+00 1.226E+01 2.014E+01 2.371E+01 9.264E+06 18.5680 1.00000
  1.000E+08 1.000E+08 3.592E+00 3.807E-01 8.485E+00 1.399E+01 2.286E+01 2.645E+01 9.699E+06 18.7982 1.00000
  1.122E+08 1.122E+08 3.607E+00 4.317E-01 9.547E+00 1.597E+01 2.595E+01 2.956E+01 1.014E+07 19.0285 1.00000
  1.259E+08 1.259E+08 3.623E+00 4.895E-01 1.074E+01 1.823E+01 2.946E+01 3.308E+01 1.057E+07 19.2587 1.00000
  1.413E+08 1.413E+08 3.639E+00 5.549E-01 1.208E+01 2.081E+01 3.344E+01 3.708E+01 1.101E+07 19.4890 1.00000
  1.585E+08 1.585E+08 3.655E+00 6.288E-01 1.358E+01 2.376E+01 3.796E+01 4.162E+01 1.145E+07 19.7193 1.00000
  1.778E+08 1.778E+08 3.671E+00 7.124E-01 1.527E+01 2.712E+01 4.310E+01 4.677E+01 1.189E+07 19.9495 1.00000
  1.995E+08 1.995E+08 3.687E+00 8.068E-01 1.716E+01 3.097E+01 4.893E+01 5.262E+01 1.233E+07 20.1798 1.00000
  2.239E+08 2.239E+08 3.703E+00 9.135E-01 1.929E+01 3.536E+01 5.556E+01 5.926E+01 1.277E+07 20.4100 1.00000
  2.512E+08 2.512E+08 3.719E+00 1.034E+00 2.168E+01 4.038E+01 6.309E+01 6.680E+01 1.320E+07 20.6403 1.00000
  2.818E+08 2.818E+08 3.736E+00 1.170E+00 2.436E+01 4.611E+01 7.163E+01 7.537E+01 1.363E+07 20.8705 1.00000
  3.162E+08 3.162E+08 3.752E+00 1.324E+00 2.736E+01 5.266E+01 8.135E+01 8.510E+01 1.406E+07 21.1008 1.00000
  3.548E+08 3.548E+08 3.768E+00 1.497E+00 3.074E+01 6.015E+01 9.238E+01 9.615E+01 1.449E+07 21.3311 1.00000
  3.981E+08 3.981E+08 3.785E+00 1.693E+00 3.453E+01 6.870E+01 1.049E+02 1.087E+02 1.492E+07 21.5613 1.00000
  4.467E+08 4.467E+08 3.801E+00 1.913E+00 3.878E+01 7.847E+01 1.192E+02 1.230E+02 1.534E+07 21.7916 1.00000
  5.012E+08 5.012E+08 3.818E+00 2.162E+00 4.355E+01 8.965E+01 1.354E+02 1.392E+02 1.575E+07 22.0218 1.00000
  5.623E+08 5.623E+08 3.835E+00 2.442E+00 4.891E+01 1.024E+02 1.538E+02 1.576E+02 1.617E+07 22.2521 1.00000
  6.310E+08 6.310E+08 3.851E+00 2.758E+00 5.492E+01 1.170E+02 1.747E+02 1.785E+02 1.658E+07 22.4823 1.00000
  7.079E+08 7.079E+08 3.868E+00 3.115E+00 6.166E+01 1.337E+02 1.985E+02 2.023E+02 1.698E+07 22.7126 1.00000
  7.943E+08 7.943E+08 3.885E+00 3.516E+00 6.923E+01 1.528E+02 2.255E+02 2.294E+02 1.739E+07 22.9429 1.00000
  8.913E+08 8.913E+08 3.902E+00 3.968E+00 7.772E+01 1.746E+02 2.563E+02 2.602E+02 1.778E+07 23.1731 1.00000
  1.000E+09 1.000E+09 3.919E+00 4.477E+00 8.726E+01 1.995E+02 2.912E+02 2.951E+02 1.818E+07 23.4034 1.00000
  1.122E+09 1.122E+09 3.936E+00 5.051E+00 9.795E+01 2.280E+02 3.310E+02 3.349E+02 1.857E+07 23.6336 1.00000
  1.259E+09 1.259E+09 3.954E+00 5.696E+00 1.100E+02 2.605E+02 3.762E+02 3.801E+02 1.895E+07 23.8639 1.00000
  1.413E+09 1.413E+09 3.971E+00 6.423E+00 1.234E+02 2.978E+02 4.276E+02 4.316E+02 1.933E+07 24.0941 1.00000
  1.585E+09 1.585E+09 3.989E+00 7.240E+00 1.385E+02 3.404E+02 4.862E+02 4.901E+02 1.971E+07 24.3244 1.00000
  1.778E+09 1.778E+09 4.006E+00 8.160E+00 1.555E+02 3.891E+02 5.527E+02 5.567E+02 2.008E+07 24.5547 1.00000
  1.995E+09 1.995E+09 4.024E+00 9.195E+00 1.745E+02 4.448E+02 6.285E+02 6.325E+02 2.044E+07 24.7849 1.00000
  2.239E+09 2.239E+09 4.042E+00 1.036E+01 1.959E+02 5.085E+02 7.147E+02 7.187E+02 2.080E+07 25.0152 1.00000
  2.512E+09 2.512E+09 4.060E+00 1.167E+01 2.198E+02 5.813E+02 8.128E+02 8.169E+02 2.116E+07 25.2454 1.00000
  2.818E+09 2.818E+09 4.078E+00 1.314E+01 2.467E+02 6.646E+02 9.245E+02 9.285E+02 2.151E+07 25.4757 1.00000
  3.162E+09 3.162E+09 4.096E+00 1.480E+01 2.768E+02 7.599E+02 1.052E+03 1.056E+03 2.186E+07 25.7060 1.00000
  3.548E+09 3.548E+09 4.114E+00 1.666E+01 3.107E+02 8.689E+02 1.196E+03 1.200E+03 2.221E+07 25.9362 1.00000
  3.981E+09 3.981E+09 4.132E+00 1.875E+01 3.487E+02 9.936E+02 1.361E+03 1.365E+03 2.255E+07 26.1665 1.00000
  4.467E+09 4.467E+09 4.150E+00 2.110E+01 3.913E+02 1.136E+03 1.549E+03 1.553E+03 2.288E+07 26.3967 1.00000
  5.012E+09 5.012E+09 4.169E+00 2.374E+01 4.391E+02 1.300E+03 1.762E+03 1.766E+03 2.321E+07 26.6270 1.00000
  5.623E+09 5.623E+09 4.188E+00 2.671E+01 4.927E+02 1.486E+03 2.006E+03 2.010E+03 2.353E+07 26.8572 1.00000
  6.310E+09 6.310E+09 4.206E+00 3.004E+01 5.529E+02 1.700E+03 2.283E+03 2.287E+03 2.386E+07 27.0875 1.00000
  7.079E+09 7.079E+09 4.225E+00 3.378E+01 6.204E+02 1.944E+03 2.598E+03 2.603E+03 2.417E+07 27.3178 1.00000
  7.943E+09 7.943E+09 4.244E+00 3.799E+01 6.961E+02 2.224E+03 2.958E+03 2.962E+03 2.448E+07 27.5480 1.00000
  8.913E+09 8.913E+09 4.263E+00 4.272E+01 7.811E+02 2.544E+03 3.368E+03 3.372E+03 2.479E+07 27.7783 1.00000
  1.000E+10 1.000E+10 4.282E+00 4.802E+01 8.765E+02 2.910E+03 3.835E+03 3.839E+03 2.509E+07 28.0085 1.00000
  1.122E+10 1.122E+10 4.301E+00 5.398E+01 9.835E+02 3.330E+03 4.367E+03 4.372E+03 2.539E+07 28.2388 1.00000
  1.259E+10 1.259E+10 4.321E+00 6.068E+01 1.104E+03 3.810E+03 4.974E+03 4.978E+03 2.569E+07 28.4691 1.00000
  1.413E+10 1.413E+10 4.340E+00 6.819E+01 1.238E+03 4.359E+03 5.665E+03 5.670E+03 2.598E+07 28.6993 1.00000
  1.585E+10 1.585E+10 4.360E+00 7.663E+01 1.389E+03 4.987E+03 6.454E+03 6.458E+03 2.626E+07 28.9296 1.00000
  1.778E+10 1.778E+10 4.379E+00 8.610E+01 1.559E+03 5.707E+03 7.352E+03 7.357E+03 2.654E+07 29.1598 1.00000
  1.995E+10 1.995E+10 4.399E+00 9.674E+01 1.749E+03 6.531E+03 8.377E+03 8.381E+03 2.682E+07 29.3901 1.00000
  2.239E+10 2.239E+10 4.419E+00 1.087E+02 1.963E+03 7.474E+03 9.545E+03 9.550E+03 2.709E+07 29.6204 1.00000
  2.512E+10 2.512E+10 4.439E+00 1.221E+02 2.202E+03 8.554E+03 1.088E+04 1.088E+04 2.736E+07 29.8506 1.00000
  2.818E+10 2.818E+10 4.459E+00 1.371E+02 2.471E+03 9.790E+03 1.240E+04 1.240E+04 2.762E+07 30.0809 1.00000
  3.162E+10 3.162E+10 4.479E+00 1.540E+02 2.773E+03 1.121E+04 1.413E+04 1.414E+04 2.788E+07 30.3111 1.00000
  3.548E+10 3.548E+10 4.500E+00 1.730E+02 3.111E+03 1.283E+04 1.611E+04 1.611E+04 2.814E+07 30.5414 1.00000
  3.981E+10 3.981E+10 4.520E+00 1.943E+02 3.491E+03 1.468E+04 1.837E+04 1.837E+04 2.839E+07 30.7716 1.00000
  4.467E+10 4.467E+10 4.541E+00 2.181E+02 3.917E+03 1.681E+04 2.094E+04 2.095E+04 2.864E+07 31.0019 1.00000
  5.012E+10 5.012E+10 4.561E+00 2.449E+02 4.394E+03 1.924E+04 2.388E+04 2.389E+04 2.889E+07 31.2322 1.00000
  5.623E+10 5.623E+10 4.582E+00 2.750E+02 4.931E+03 2.203E+04 2.724E+04 2.724E+04 2.913E+07 31.4624 1.00000
  6.310E+10 6.310E+10 4.603E+00 3.088E+02 5.532E+03 2.522E+04 3.106E+04 3.107E+04 2.936E+07 31.6927 1.00000
  7.079E+10 7.079E+10 4.624E+00 3.467E+02 6.207E+03 2.888E+04 3.543E+04 3.544E+04 2.959E+07 31.9229 1.00000
  7.943E+10 7.943E+10 4.645E+00 3.892E+02 6.964E+03 3.307E+04 4.042E+04 4.043E+04 2.982E+07 32.1532 1.00000
  8.913E+10 8.913E+10 4.666E+00 4.369E+02 7.814E+03 3.787E+04 4.612E+04 4.613E+04 3.005E+07 32.3835 1.00000
  1.000E+11 1.000E+11 4.688E+00 4.904E+02 8.767E+03 4.337E+04 5.263E+04 5.263E+04 3.027E+07 32.6137 1.00000
  1.122E+11 1.122E+11 4.709E+00 5.505E+02 9.837E+03 4.967E+04 6.005E+04 6.006E+04 3.049E+07 32.8440 1.00000
  1.259E+11 1.259E+11 4.731E+00 6.179E+02 1.104E+04 5.688E+04 6.854E+04 6.854E+04 3.070E+07 33.0742 1.00000
  1.413E+11 1.413E+11 4.753E+00 6.936E+02 1.238E+04 6.515E+04 7.823E+04 7.823E+04 3.091E+07 33.3045 1.00000
  1.585E+11 1.585E+11 4.775E+00 7.785E+02 1.389E+04 7.463E+04 8.930E+04 8.930E+04 3.112E+07 33.5347 1.00000
  1.778E+11 1.778E+11 4.797E+00 8.738E+02 1.559E+04 8.548E+04 1.019E+05 1.020E+05 3.132E+07 33.7650 1.00000
  1.995E+11 1.995E+11 4.819E+00 9.807E+02 1.749E+04 9.793E+04 1.164E+05 1.164E+05 3.152E+07 33.9953 1.00000
  2.239E+11 2.239E+11 4.841E+00 1.101E+03 1.962E+04 1.122E+05 1.329E+05 1.329E+05 3.172E+07 34.2255 1.00000
  2.512E+11 2.512E+11 4.863E+00 1.235E+03 2.202E+04 1.285E+05 1.518E+05 1.518E+05 3.191E+07 34.4558 1.00000
  2.818E+11 2.818E+11 4.886E+00 1.386E+03 2.470E+04 1.473E+05 1.733E+05 1.733E+05 3.210E+07 34.6860 1.00000
  3.162E+11 3.162E+11 4.909E+00 1.556E+03 2.772E+04 1.687E+05 1.980E+05 1.980E+05 3.228E+07 34.9163 1.00000
  3.548E+11 3.548E+11 4.931E+00 1.746E+03 3.110E+04 1.933E+05 2.262E+05 2.262E+05 3.247E+07 35.1466 1.00000
  3.981E+11 3.981E+11 4.954E+00 1.959E+03 3.489E+04 2.215E+05 2.584E+05 2.584E+05 3.265E+07 35.3768 1.00000
  4.467E+11 4.467E+11 4.977E+00 2.199E+03 3.915E+04 2.539E+05 2.952E+05 2.952E+05 3.282E+07 35.6071 1.00000
  5.012E+11 5.012E+11 5.000E+00 2.467E+03 4.393E+04 2.909E+05 3.373E+05 3.373E+05 3.300E+07 35.8373 1.00000
  5.623E+11 5.623E+11 5.024E+00 2.769E+03 4.928E+04 3.334E+05 3.855E+05 3.855E+05 3.317E+07 36.0676 1.00000
  6.310E+11 6.310E+11 5.047E+00 3.107E+03 5.529E+04 3.822E+05 4.406E+05 4.406E+05 3.333E+07 36.2978 1.00000
  7.079E+11 7.079E+11 5.071E+00 3.486E+03 6.204E+04 4.380E+05 5.036E+05 5.036E+05 3.350E+07 36.5281 1.00000
  7.943E+11 7.943E+11 5.094E+00 3.912E+03 6.961E+04 5.021E+05 5.756E+05 5.756E+05 3.366E+07 36.7584 1.00000
  8.913E+11 8.913E+11 5.118E+00 4.390E+03 7.810E+04 5.756E+05 6.580E+05 6.580E+05 3.382E+07 36.9886 1.00000
  1.000E+12 1.000E+12 5.142E+00 4.926E+03 8.762E+04 6.598E+05 7.523E+05 7.523E+05 3.397E+07 37.2189 1.00000
  1.122E+12 1.122E+12 5.166E+00 5.527E+03 9.831E+04 7.564E+05 8.602E+05 8.603E+05 3.412E+07 37.4491 1.00000
  1.259E+12 1.259E+12 5.190E+00 6.202E+03 1.103E+05 8.672E+05 9.837E+05 9.837E+05 3.427E+07 37.6794 1.00000
  1.413E+12 1.413E+12 5.215E+00 6.959E+03 1.238E+05 9.943E+05 1.125E+06 1.125E+06 3.442E+07 37.9097 1.00000
  1.585E+12 1.585E+12 5.239E+00 7.809E+03 1.389E+05 1.140E+06 1.287E+06 1.287E+06 3.456E+07 38.1399 1.00000
  1.778E+12 1.778E+12 5.264E+00 8.762E+03 1.558E+05 1.307E+06 1.472E+06 1.472E+06 3.470E+07 38.3702 1.00000
  1.995E+12 1.995E+12 5.288E+00 9.832E+03 1.748E+05 1.499E+06 1.684E+06 1.684E+06 3.484E+07 38.6004 1.00000
  2.239E+12 2.239E+12 5.313E+00 1.103E+04 1.961E+05 1.719E+06 1.926E+06 1.926E+06 3.498E+07 38.8307 1.00000
  2.512E+12 2.512E+12 5.338E+00 1.238E+04 2.200E+05 1.972E+06 2.204E+06 2.204E+06 3.511E+07 39.0609 1.00000
  2.818E+12 2.818E+12 5.363E+00 1.389E+04 2.469E+05 2.261E+06 2.522E+06 2.522E+06 3.524E+07 39.2912 1.00000
  3.162E+12 3.162E+12 5.389E+00 1.558E+04 2.770E+05 2.593E+06 2.886E+06 2.886E+06 3.537E+07 39.5215 1.00000
  3.548E+12 3.548E+12 5.414E+00 1.749E+04 3.108E+05 2.975E+06 3.303E+06 3.303E+06 3.549E+07 39.7517 1.00000
  3.981E+12 3.981E+12 5.440E+00 1.962E+04 3.487E+05 3.412E+06 3.780E+06 3.780E+06 3.562E+07 39.9820 1.00000
  4.467E+12 4.467E+12 5.465E+00 2.202E+04 3.912E+05 3.914E+06 4.327E+06 4.327E+06 3.574E+07 40.2122 1.00000
  5.012E+12 5.012E+12 5.491E+00 2.470E+04 4.389E+05 4.490E+06 4.954E+06 4.954E+06 3.585E+07 40.4425 1.00000
  5.623E+12 5.623E+12 5.517E+00 2.772E+04 4.924E+05 5.151E+06 5.671E+06 5.671E+06 3.597E+07 40.6728 1.00000
  6.310E+12 6.310E+12 5.543E+00 3.110E+04 5.525E+05 5.910E+06 6.494E+06 6.494E+06 3.608E+07 40.9030 1.00000
  7.079E+12 7.079E+12 5.570E+00 3.489E+04 6.199E+05 6.781E+06 7.436E+06 7.436E+06 3.619E+07 41.1333 1.00000
  7.943E+12 7.943E+12 5.596E+00 3.915E+04 6.955E+05 7.780E+06 8.515E+06 8.515E+06 3.630E+07 41.3635 1.00000
  8.913E+12 8.913E+12 5.623E+00 4.393E+04 7.803E+05 8.928E+06 9.752E+06 9.752E+06 3.641E+07 41.5938 1.00000
  1.000E+13 1.000E+13 5.649E+00 4.929E+04 8.755E+05 1.024E+07 1.117E+07 1.117E+07 3.651E+07 41.8241 1.00000
  1.122E+13 1.122E+13 5.676E+00 5.531E+04 9.823E+05 1.176E+07 1.279E+07 1.279E+07 3.662E+07 42.0543 1.00000
  1.259E+13 1.259E+13 5.703E+00 6.206E+04 1.102E+06 1.349E+07 1.466E+07 1.466E+07 3.672E+07 42.2846 1.00000
  1.413E+13 1.413E+13 5.730E+00 6.963E+04 1.236E+06 1.548E+07 1.679E+07 1.679E+07 3.681E+07 42.5148 1.00000
  1.585E+13 1.585E+13 5.758E+00 7.812E+04 1.387E+06 1.777E+07 1.924E+07 1.924E+07 3.691E+07 42.7451 1.00000
  1.778E+13 1.778E+13 5.785E+00 8.766E+04 1.556E+06 2.040E+07 2.204E+07 2.204E+07 3.700E+07 42.9753 1.00000
  1.995E+13 1.995E+13 5.813E+00 9.835E+04 1.746E+06 2.342E+07 2.526E+07 2.526E+07 3.710E+07 43.2056 1.00000
  2.239E+13 2.239E+13 5.840E+00 1.104E+05 1.959E+06 2.688E+07 2.895E+07 2.895E+07 3.719E+07 43.4359 1.00000
  2.512E+13 2.512E+13 5.868E+00 1.238E+05 2.198E+06 3.086E+07 3.318E+07 3.318E+07 3.728E+07 43.6661 1.00000
  2.818E+13 2.818E+13 5.896E+00 1.389E+05 2.466E+06 3.542E+07 3.803E+07 3.803E+07 3.736E+07 43.8964 1.00000
  3.162E+13 3.162E+13 5.924E+00 1.559E+05 2.767E+06 4.067E+07 4.359E+07 4.359E+07 3.745E+07 44.1266 1.00000
  3.548E+13 3.548E+13 5.953E+00 1.749E+05 3.105E+06 4.669E+07 4.997E+07 4.997E+07 3.753E+07 44.3569 1.00000
  3.981E+13 3.981E+13 5.981E+00 1.962E+05 3.483E+06 5.361E+07 5.729E+07 5.729E+07 3.761E+07 44.5872 1.00000
  4.467E+13 4.467E+13 6.010E+00 2.202E+05 3.908E+06 6.156E+07 6.569E+07 6.569E+07 3.769E+07 44.8174 1.00000
  5.012E+13 5.012E+13 6.039E+00 2.471E+05 4.385E+06 7.069E+07 7.532E+07 7.532E+07 3.777E+07 45.0477 1.00000
  5.623E+13 5.623E+13 6.068E+00 2.772E+05 4.919E+06 8.117E+07 8.637E+07 8.637E+07 3.784E+07 45.2779 1.00000
  6.310E+13 6.310E+13 6.097E+00 3.110E+05 5.519E+06 9.322E+07 9.905E+07 9.905E+07 3.792E+07 45.5082 1.00000
  7.079E+13 7.079E+13 6.126E+00 3.490E+05 6.192E+06 1.071E+08 1.136E+08 1.136E+08 3.799E+07 45.7384 1.00000
  7.943E+13 7.943E+13 6.155E+00 3.916E+05 6.947E+06 1.230E+08 1.303E+08 1.303E+08 3.806E+07 45.9687 1.00000
  8.913E+13 8.913E+13 6.185E+00 4.393E+05 7.795E+06 1.412E+08 1.495E+08 1.495E+08 3.813E+07 46.1990 1.00000
