 Incident particle is a Tau with M = 1776.82000 MeV
 Index = 0: Molybdenum
      Absorber with <Z/A> = 0.43772
 Sternheimer coef:  a     k=m_s   x_0    x_1    I[eV]   Cbar  delta0
                 0.1053  3.2549  0.2267  3.2784  424.0  4.8793 0.14

 *** Table generated with PUMAS v1.00 ***

      T         p     Ionization  brems     pair     photonuc  Radloss    dE/dx   CSDA Range  delta   beta
    [MeV]    [MeV/c]  -----------------------[MeV cm^2/g]------------------------  [g/cm^2]
  1.000E+05 1.018E+05 1.766E+00 6.292E-04 1.067E-02 7.752E-03 1.905E-02 1.785E+00 2.801E+04  3.6282 0.99985
  1.122E+05 1.140E+05 1.785E+00 7.288E-04 1.278E-02 8.714E-03 2.223E-02 1.807E+00 3.480E+04  3.8129 0.99988
  1.259E+05 1.277E+05 1.803E+00 8.437E-04 1.527E-02 9.745E-03 2.586E-02 1.829E+00 4.233E+04  4.0010 0.99990
  1.413E+05 1.430E+05 1.821E+00 9.761E-04 1.820E-02 1.090E-02 3.007E-02 1.851E+00 5.068E+04  4.1922 0.99992
  1.585E+05 1.603E+05 1.839E+00 1.129E-03 2.162E-02 1.219E-02 3.494E-02 1.874E+00 5.993E+04  4.3866 0.99994
  1.778E+05 1.796E+05 1.857E+00 1.305E-03 2.563E-02 1.362E-02 4.055E-02 1.898E+00 7.019E+04  4.5839 0.99995
  1.995E+05 2.013E+05 1.875E+00 1.507E-03 3.031E-02 1.524E-02 4.706E-02 1.922E+00 8.155E+04  4.7840 0.99996
  2.239E+05 2.256E+05 1.893E+00 1.740E-03 3.577E-02 1.701E-02 5.452E-02 1.947E+00 9.414E+04  4.9868 0.99997
  2.512E+05 2.530E+05 1.910E+00 2.007E-03 4.211E-02 1.898E-02 6.310E-02 1.973E+00 1.081E+05  5.1920 0.99998
  2.818E+05 2.836E+05 1.927E+00 2.315E-03 4.947E-02 2.120E-02 7.298E-02 2.000E+00 1.235E+05  5.3996 0.99998
  3.162E+05 3.180E+05 1.945E+00 2.668E-03 5.800E-02 2.369E-02 8.436E-02 2.029E+00 1.406E+05  5.6095 0.99998
  3.548E+05 3.566E+05 1.962E+00 3.073E-03 6.787E-02 2.648E-02 9.743E-02 2.059E+00 1.594E+05  5.8215 0.99999
  3.981E+05 3.999E+05 1.979E+00 3.538E-03 7.927E-02 2.959E-02 1.124E-01 2.091E+00 1.803E+05  6.0354 0.99999
  4.467E+05 4.485E+05 1.995E+00 4.072E-03 9.242E-02 3.305E-02 1.295E-01 2.125E+00 2.034E+05  6.2512 0.99999
  5.012E+05 5.030E+05 2.012E+00 4.684E-03 1.076E-01 3.695E-02 1.492E-01 2.161E+00 2.288E+05  6.4687 0.99999
  5.623E+05 5.641E+05 2.029E+00 5.384E-03 1.250E-01 4.114E-02 1.715E-01 2.200E+00 2.568E+05  6.6878 1.00000
  6.310E+05 6.327E+05 2.045E+00 6.187E-03 1.450E-01 4.586E-02 1.970E-01 2.242E+00 2.877E+05  6.9084 1.00000
  7.079E+05 7.097E+05 2.061E+00 7.106E-03 1.680E-01 5.118E-02 2.262E-01 2.287E+00 3.217E+05  7.1304 1.00000
  7.943E+05 7.961E+05 2.077E+00 8.159E-03 1.943E-01 5.716E-02 2.596E-01 2.337E+00 3.591E+05  7.3536 1.00000
  8.913E+05 8.930E+05 2.093E+00 9.362E-03 2.244E-01 6.392E-02 2.976E-01 2.391E+00 4.001E+05  7.5779 1.00000
  1.000E+06 1.002E+06 2.109E+00 1.074E-02 2.588E-01 7.154E-02 3.410E-01 2.450E+00 4.450E+05  7.8032 1.00000
  1.122E+06 1.124E+06 2.125E+00 1.231E-02 2.980E-01 8.015E-02 3.905E-01 2.515E+00 4.942E+05  8.0295 1.00000
  1.259E+06 1.261E+06 2.140E+00 1.411E-02 3.429E-01 8.989E-02 4.469E-01 2.587E+00 5.479E+05  8.2565 1.00000
  1.413E+06 1.414E+06 2.156E+00 1.616E-02 3.939E-01 1.009E-01 5.110E-01 2.667E+00 6.064E+05  8.4843 1.00000
  1.585E+06 1.587E+06 2.171E+00 1.851E-02 4.520E-01 1.134E-01 5.839E-01 2.755E+00 6.700E+05  8.7126 1.00000
  1.778E+06 1.780E+06 2.186E+00 2.119E-02 5.181E-01 1.275E-01 6.669E-01 2.853E+00 7.389E+05  8.9415 1.00000
  1.995E+06 1.997E+06 2.201E+00 2.424E-02 5.932E-01 1.436E-01 7.611E-01 2.962E+00 8.136E+05  9.1707 1.00000
  2.239E+06 2.240E+06 2.216E+00 2.773E-02 6.785E-01 1.618E-01 8.680E-01 3.084E+00 8.942E+05  9.4003 1.00000
  2.512E+06 2.514E+06 2.231E+00 3.171E-02 7.752E-01 1.825E-01 9.894E-01 3.220E+00 9.809E+05  9.6302 1.00000
  2.818E+06 2.820E+06 2.245E+00 3.624E-02 8.848E-01 2.059E-01 1.127E+00 3.372E+00 1.074E+06  9.8602 1.00000
  3.162E+06 3.164E+06 2.260E+00 4.141E-02 1.009E+00 2.326E-01 1.283E+00 3.543E+00 1.173E+06 10.0903 1.00000
  3.548E+06 3.550E+06 2.274E+00 4.729E-02 1.150E+00 2.629E-01 1.460E+00 3.734E+00 1.280E+06 10.3204 1.00000
  3.981E+06 3.983E+06 2.288E+00 5.400E-02 1.308E+00 2.974E-01 1.660E+00 3.948E+00 1.392E+06 10.5506 1.00000
  4.467E+06 4.469E+06 2.302E+00 6.163E-02 1.488E+00 3.366E-01 1.886E+00 4.189E+00 1.512E+06 10.7807 1.00000
  5.012E+06 5.014E+06 2.316E+00 7.032E-02 1.691E+00 3.812E-01 2.143E+00 4.459E+00 1.638E+06 11.0109 1.00000
  5.623E+06 5.625E+06 2.330E+00 8.020E-02 1.920E+00 4.320E-01 2.433E+00 4.763E+00 1.771E+06 11.2411 1.00000
  6.310E+06 6.311E+06 2.344E+00 9.145E-02 2.179E+00 4.898E-01 2.760E+00 5.104E+00 1.910E+06 11.4713 1.00000
  7.079E+06 7.081E+06 2.357E+00 1.042E-01 2.471E+00 5.557E-01 3.131E+00 5.488E+00 2.056E+06 11.7015 1.00000
  7.943E+06 7.945E+06 2.371E+00 1.188E-01 2.800E+00 6.307E-01 3.549E+00 5.920E+00 2.207E+06 11.9317 1.00000
  8.913E+06 8.914E+06 2.384E+00 1.353E-01 3.171E+00 7.161E-01 4.022E+00 6.406E+00 2.365E+06 12.1619 1.00000
  1.000E+07 1.000E+07 2.397E+00 1.541E-01 3.589E+00 8.135E-01 4.556E+00 6.953E+00 2.528E+06 12.3921 1.00000
  1.122E+07 1.122E+07 2.410E+00 1.754E-01 4.059E+00 9.245E-01 5.159E+00 7.569E+00 2.696E+06 12.6223 1.00000
  1.259E+07 1.259E+07 2.423E+00 1.996E-01 4.589E+00 1.051E+00 5.840E+00 8.263E+00 2.869E+06 12.8525 1.00000
  1.413E+07 1.413E+07 2.435E+00 2.270E-01 5.186E+00 1.195E+00 6.608E+00 9.044E+00 3.047E+06 13.0828 1.00000
  1.585E+07 1.585E+07 2.448E+00 2.582E-01 5.857E+00 1.360E+00 7.475E+00 9.923E+00 3.230E+06 13.3130 1.00000
  1.778E+07 1.778E+07 2.461E+00 2.935E-01 6.612E+00 1.547E+00 8.453E+00 1.091E+01 3.416E+06 13.5432 1.00000
  1.995E+07 1.995E+07 2.473E+00 3.336E-01 7.461E+00 1.761E+00 9.556E+00 1.203E+01 3.605E+06 13.7735 1.00000
  2.239E+07 2.239E+07 2.486E+00 3.790E-01 8.416E+00 2.005E+00 1.080E+01 1.329E+01 3.798E+06 14.0037 1.00000
  2.512E+07 2.512E+07 2.498E+00 4.305E-01 9.490E+00 2.284E+00 1.220E+01 1.470E+01 3.994E+06 14.2339 1.00000
  2.818E+07 2.819E+07 2.510E+00 4.889E-01 1.070E+01 2.602E+00 1.379E+01 1.630E+01 4.192E+06 14.4642 1.00000
  3.162E+07 3.162E+07 2.522E+00 5.549E-01 1.205E+01 2.964E+00 1.557E+01 1.810E+01 4.392E+06 14.6944 1.00000
  3.548E+07 3.548E+07 2.535E+00 6.297E-01 1.358E+01 3.378E+00 1.759E+01 2.012E+01 4.595E+06 14.9247 1.00000
  3.981E+07 3.981E+07 2.547E+00 7.143E-01 1.529E+01 3.850E+00 1.985E+01 2.240E+01 4.799E+06 15.1549 1.00000
  4.467E+07 4.467E+07 2.559E+00 8.101E-01 1.721E+01 4.389E+00 2.241E+01 2.497E+01 5.005E+06 15.3852 1.00000
  5.012E+07 5.012E+07 2.571E+00 9.184E-01 1.938E+01 5.004E+00 2.530E+01 2.787E+01 5.212E+06 15.6154 1.00000
  5.623E+07 5.624E+07 2.583E+00 1.041E+00 2.180E+01 5.707E+00 2.855E+01 3.113E+01 5.420E+06 15.8457 1.00000
  6.310E+07 6.310E+07 2.596E+00 1.179E+00 2.453E+01 6.508E+00 3.222E+01 3.481E+01 5.628E+06 16.0759 1.00000
  7.079E+07 7.080E+07 2.608E+00 1.336E+00 2.759E+01 7.424E+00 3.635E+01 3.896E+01 5.838E+06 16.3062 1.00000
  7.943E+07 7.943E+07 2.620E+00 1.513E+00 3.103E+01 8.469E+00 4.101E+01 4.363E+01 6.048E+06 16.5364 1.00000
  8.913E+07 8.913E+07 2.632E+00 1.712E+00 3.489E+01 9.662E+00 4.626E+01 4.889E+01 6.258E+06 16.7667 1.00000
  1.000E+08 1.000E+08 2.644E+00 1.938E+00 3.922E+01 1.103E+01 5.218E+01 5.483E+01 6.468E+06 16.9969 1.00000
  1.122E+08 1.122E+08 2.657E+00 2.192E+00 4.408E+01 1.258E+01 5.886E+01 6.151E+01 6.679E+06 17.2272 1.00000
  1.259E+08 1.259E+08 2.669E+00 2.479E+00 4.954E+01 1.436E+01 6.638E+01 6.905E+01 6.889E+06 17.4574 1.00000
  1.413E+08 1.413E+08 2.681E+00 2.803E+00 5.567E+01 1.639E+01 7.487E+01 7.755E+01 7.099E+06 17.6877 1.00000
  1.585E+08 1.585E+08 2.693E+00 3.169E+00 6.255E+01 1.871E+01 8.443E+01 8.712E+01 7.309E+06 17.9180 1.00000
  1.778E+08 1.778E+08 2.706E+00 3.581E+00 7.028E+01 2.136E+01 9.521E+01 9.792E+01 7.519E+06 18.1482 1.00000
  1.995E+08 1.995E+08 2.718E+00 4.045E+00 7.894E+01 2.438E+01 1.074E+02 1.101E+02 7.729E+06 18.3785 1.00000
  2.239E+08 2.239E+08 2.731E+00 4.569E+00 8.867E+01 2.784E+01 1.211E+02 1.238E+02 7.937E+06 18.6087 1.00000
  2.512E+08 2.512E+08 2.743E+00 5.159E+00 9.959E+01 3.179E+01 1.365E+02 1.393E+02 8.146E+06 18.8390 1.00000
  2.818E+08 2.818E+08 2.756E+00 5.823E+00 1.118E+02 3.630E+01 1.540E+02 1.567E+02 8.354E+06 19.0692 1.00000
  3.162E+08 3.162E+08 2.768E+00 6.572E+00 1.256E+02 4.146E+01 1.736E+02 1.764E+02 8.561E+06 19.2995 1.00000
  3.548E+08 3.548E+08 2.781E+00 7.414E+00 1.410E+02 4.735E+01 1.958E+02 1.986E+02 8.767E+06 19.5298 1.00000
  3.981E+08 3.981E+08 2.794E+00 8.363E+00 1.583E+02 5.408E+01 2.208E+02 2.236E+02 8.973E+06 19.7600 1.00000
  4.467E+08 4.467E+08 2.807E+00 9.430E+00 1.778E+02 6.178E+01 2.490E+02 2.518E+02 9.178E+06 19.9903 1.00000
  5.012E+08 5.012E+08 2.820E+00 1.063E+01 1.996E+02 7.057E+01 2.808E+02 2.836E+02 9.383E+06 20.2205 1.00000
  5.623E+08 5.623E+08 2.833E+00 1.198E+01 2.241E+02 8.062E+01 3.167E+02 3.195E+02 9.586E+06 20.4508 1.00000
  6.310E+08 6.310E+08 2.846E+00 1.350E+01 2.515E+02 9.211E+01 3.571E+02 3.600E+02 9.789E+06 20.6810 1.00000
  7.079E+08 7.079E+08 2.859E+00 1.521E+01 2.823E+02 1.052E+02 4.028E+02 4.056E+02 9.991E+06 20.9113 1.00000
  7.943E+08 7.943E+08 2.872E+00 1.714E+01 3.169E+02 1.202E+02 4.543E+02 4.572E+02 1.019E+07 21.1416 1.00000
  8.913E+08 8.913E+08 2.885E+00 1.930E+01 3.557E+02 1.374E+02 5.124E+02 5.153E+02 1.039E+07 21.3718 1.00000
  1.000E+09 1.000E+09 2.898E+00 2.173E+01 3.993E+02 1.570E+02 5.780E+02 5.809E+02 1.059E+07 21.6021 1.00000
  1.122E+09 1.122E+09 2.912E+00 2.446E+01 4.481E+02 1.794E+02 6.520E+02 6.549E+02 1.079E+07 21.8323 1.00000
  1.259E+09 1.259E+09 2.925E+00 2.753E+01 5.029E+02 2.051E+02 7.355E+02 7.385E+02 1.099E+07 22.0626 1.00000
  1.413E+09 1.413E+09 2.938E+00 3.098E+01 5.644E+02 2.344E+02 8.298E+02 8.327E+02 1.118E+07 22.2928 1.00000
  1.585E+09 1.585E+09 2.952E+00 3.486E+01 6.335E+02 2.679E+02 9.362E+02 9.392E+02 1.138E+07 22.5231 1.00000
  1.778E+09 1.778E+09 2.966E+00 3.921E+01 7.109E+02 3.062E+02 1.056E+03 1.059E+03 1.157E+07 22.7534 1.00000
  1.995E+09 1.995E+09 2.979E+00 4.411E+01 7.978E+02 3.501E+02 1.192E+03 1.195E+03 1.177E+07 22.9836 1.00000
  2.239E+09 2.239E+09 2.993E+00 4.960E+01 8.953E+02 4.002E+02 1.345E+03 1.348E+03 1.196E+07 23.2139 1.00000
  2.512E+09 2.512E+09 3.007E+00 5.578E+01 1.005E+03 4.575E+02 1.518E+03 1.521E+03 1.215E+07 23.4441 1.00000
  2.818E+09 2.818E+09 3.021E+00 6.271E+01 1.127E+03 5.231E+02 1.713E+03 1.716E+03 1.234E+07 23.6744 1.00000
  3.162E+09 3.162E+09 3.035E+00 7.050E+01 1.265E+03 5.981E+02 1.934E+03 1.937E+03 1.253E+07 23.9047 1.00000
  3.548E+09 3.548E+09 3.049E+00 7.924E+01 1.420E+03 6.839E+02 2.183E+03 2.186E+03 1.272E+07 24.1349 1.00000
  3.981E+09 3.981E+09 3.063E+00 8.906E+01 1.593E+03 7.820E+02 2.464E+03 2.467E+03 1.290E+07 24.3652 1.00000
  4.467E+09 4.467E+09 3.077E+00 1.001E+02 1.788E+03 8.943E+02 2.782E+03 2.785E+03 1.309E+07 24.5954 1.00000
  5.012E+09 5.012E+09 3.092E+00 1.125E+02 2.006E+03 1.023E+03 3.141E+03 3.144E+03 1.327E+07 24.8257 1.00000
  5.623E+09 5.623E+09 3.106E+00 1.263E+02 2.251E+03 1.170E+03 3.547E+03 3.550E+03 1.346E+07 25.0559 1.00000
  6.310E+09 6.310E+09 3.121E+00 1.419E+02 2.526E+03 1.338E+03 4.005E+03 4.008E+03 1.364E+07 25.2862 1.00000
  7.079E+09 7.079E+09 3.135E+00 1.594E+02 2.834E+03 1.530E+03 4.524E+03 4.527E+03 1.382E+07 25.5165 1.00000
  7.943E+09 7.943E+09 3.150E+00 1.791E+02 3.180E+03 1.750E+03 5.109E+03 5.112E+03 1.400E+07 25.7467 1.00000
  8.913E+09 8.913E+09 3.165E+00 2.012E+02 3.568E+03 2.002E+03 5.771E+03 5.775E+03 1.418E+07 25.9770 1.00000
  1.000E+10 1.000E+10 3.179E+00 2.259E+02 4.003E+03 2.291E+03 6.520E+03 6.523E+03 1.436E+07 26.2072 1.00000
  1.122E+10 1.122E+10 3.194E+00 2.537E+02 4.492E+03 2.621E+03 7.366E+03 7.370E+03 1.453E+07 26.4375 1.00000
  1.259E+10 1.259E+10 3.209E+00 2.849E+02 5.040E+03 2.998E+03 8.323E+03 8.327E+03 1.471E+07 26.6678 1.00000
  1.413E+10 1.413E+10 3.224E+00 3.199E+02 5.655E+03 3.430E+03 9.406E+03 9.409E+03 1.488E+07 26.8980 1.00000
  1.585E+10 1.585E+10 3.240E+00 3.592E+02 6.346E+03 3.925E+03 1.063E+04 1.063E+04 1.505E+07 27.1283 1.00000
  1.778E+10 1.778E+10 3.255E+00 4.032E+02 7.120E+03 4.492E+03 1.201E+04 1.202E+04 1.522E+07 27.3585 1.00000
  1.995E+10 1.995E+10 3.270E+00 4.527E+02 7.989E+03 5.140E+03 1.358E+04 1.358E+04 1.539E+07 27.5888 1.00000
  2.239E+10 2.239E+10 3.286E+00 5.082E+02 8.964E+03 5.882E+03 1.535E+04 1.536E+04 1.556E+07 27.8191 1.00000
  2.512E+10 2.512E+10 3.301E+00 5.705E+02 1.006E+04 6.732E+03 1.736E+04 1.736E+04 1.573E+07 28.0493 1.00000
  2.818E+10 2.818E+10 3.317E+00 6.405E+02 1.128E+04 7.705E+03 1.963E+04 1.963E+04 1.590E+07 28.2796 1.00000
  3.162E+10 3.162E+10 3.332E+00 7.189E+02 1.266E+04 8.819E+03 2.220E+04 2.220E+04 1.606E+07 28.5098 1.00000
  3.548E+10 3.548E+10 3.348E+00 8.069E+02 1.421E+04 1.009E+04 2.511E+04 2.511E+04 1.623E+07 28.7401 1.00000
  3.981E+10 3.981E+10 3.364E+00 9.057E+02 1.594E+04 1.156E+04 2.840E+04 2.840E+04 1.639E+07 28.9703 1.00000
  4.467E+10 4.467E+10 3.380E+00 1.017E+03 1.788E+04 1.323E+04 3.213E+04 3.213E+04 1.655E+07 29.2006 1.00000
  5.012E+10 5.012E+10 3.396E+00 1.141E+03 2.007E+04 1.514E+04 3.635E+04 3.635E+04 1.671E+07 29.4309 1.00000
  5.623E+10 5.623E+10 3.412E+00 1.281E+03 2.251E+04 1.734E+04 4.113E+04 4.114E+04 1.687E+07 29.6611 1.00000
  6.310E+10 6.310E+10 3.428E+00 1.437E+03 2.526E+04 1.985E+04 4.655E+04 4.655E+04 1.702E+07 29.8914 1.00000
  7.079E+10 7.079E+10 3.445E+00 1.613E+03 2.834E+04 2.273E+04 5.269E+04 5.269E+04 1.718E+07 30.1216 1.00000
  7.943E+10 7.943E+10 3.461E+00 1.810E+03 3.180E+04 2.603E+04 5.964E+04 5.964E+04 1.733E+07 30.3519 1.00000
  8.913E+10 8.913E+10 3.477E+00 2.031E+03 3.568E+04 2.980E+04 6.752E+04 6.752E+04 1.749E+07 30.5822 1.00000
  1.000E+11 1.000E+11 3.494E+00 2.280E+03 4.003E+04 3.413E+04 7.644E+04 7.645E+04 1.764E+07 30.8124 1.00000
  1.122E+11 1.122E+11 3.511E+00 2.558E+03 4.492E+04 3.909E+04 8.656E+04 8.657E+04 1.779E+07 31.0427 1.00000
  1.259E+11 1.259E+11 3.528E+00 2.871E+03 5.040E+04 4.477E+04 9.804E+04 9.804E+04 1.794E+07 31.2729 1.00000
  1.413E+11 1.413E+11 3.544E+00 3.222E+03 5.654E+04 5.128E+04 1.110E+05 1.110E+05 1.809E+07 31.5032 1.00000
  1.585E+11 1.585E+11 3.561E+00 3.615E+03 6.344E+04 5.873E+04 1.258E+05 1.258E+05 1.823E+07 31.7334 1.00000
  1.778E+11 1.778E+11 3.578E+00 4.057E+03 7.118E+04 6.728E+04 1.425E+05 1.425E+05 1.838E+07 31.9637 1.00000
  1.995E+11 1.995E+11 3.596E+00 4.552E+03 7.986E+04 7.707E+04 1.615E+05 1.615E+05 1.852E+07 32.1940 1.00000
  2.239E+11 2.239E+11 3.613E+00 5.108E+03 8.961E+04 8.829E+04 1.830E+05 1.830E+05 1.866E+07 32.4242 1.00000
  2.512E+11 2.512E+11 3.630E+00 5.732E+03 1.005E+05 1.012E+05 2.074E+05 2.074E+05 1.880E+07 32.6545 1.00000
  2.818E+11 2.818E+11 3.648E+00 6.432E+03 1.128E+05 1.159E+05 2.351E+05 2.351E+05 1.894E+07 32.8847 1.00000
  3.162E+11 3.162E+11 3.665E+00 7.217E+03 1.266E+05 1.328E+05 2.666E+05 2.666E+05 1.908E+07 33.1150 1.00000
  3.548E+11 3.548E+11 3.683E+00 8.098E+03 1.420E+05 1.522E+05 3.023E+05 3.023E+05 1.922E+07 33.3453 1.00000
  3.981E+11 3.981E+11 3.701E+00 9.087E+03 1.593E+05 1.743E+05 3.428E+05 3.428E+05 1.935E+07 33.5755 1.00000
  4.467E+11 4.467E+11 3.718E+00 1.020E+04 1.788E+05 1.998E+05 3.888E+05 3.888E+05 1.948E+07 33.8058 1.00000
  5.012E+11 5.012E+11 3.736E+00 1.144E+04 2.006E+05 2.290E+05 4.410E+05 4.410E+05 1.962E+07 34.0360 1.00000
  5.623E+11 5.623E+11 3.754E+00 1.284E+04 2.250E+05 2.624E+05 5.003E+05 5.003E+05 1.975E+07 34.2663 1.00000
  6.310E+11 6.310E+11 3.772E+00 1.440E+04 2.525E+05 3.008E+05 5.676E+05 5.677E+05 1.988E+07 34.4965 1.00000
  7.079E+11 7.079E+11 3.791E+00 1.616E+04 2.833E+05 3.447E+05 6.442E+05 6.442E+05 2.000E+07 34.7268 1.00000
  7.943E+11 7.943E+11 3.809E+00 1.813E+04 3.178E+05 3.952E+05 7.311E+05 7.311E+05 2.013E+07 34.9571 1.00000
  8.913E+11 8.913E+11 3.827E+00 2.035E+04 3.566E+05 4.530E+05 8.299E+05 8.299E+05 2.025E+07 35.1873 1.00000
  1.000E+12 1.000E+12 3.846E+00 2.283E+04 4.001E+05 5.193E+05 9.422E+05 9.422E+05 2.038E+07 35.4176 1.00000
  1.122E+12 1.122E+12 3.865E+00 2.562E+04 4.489E+05 5.953E+05 1.070E+06 1.070E+06 2.050E+07 35.6478 1.00000
  1.259E+12 1.259E+12 3.883E+00 2.874E+04 5.036E+05 6.825E+05 1.215E+06 1.215E+06 2.062E+07 35.8781 1.00000
  1.413E+12 1.413E+12 3.902E+00 3.225E+04 5.651E+05 7.825E+05 1.380E+06 1.380E+06 2.074E+07 36.1084 1.00000
  1.585E+12 1.585E+12 3.921E+00 3.619E+04 6.340E+05 8.973E+05 1.567E+06 1.567E+06 2.086E+07 36.3386 1.00000
  1.778E+12 1.778E+12 3.940E+00 4.060E+04 7.113E+05 1.029E+06 1.781E+06 1.781E+06 2.097E+07 36.5689 1.00000
  1.995E+12 1.995E+12 3.960E+00 4.556E+04 7.981E+05 1.180E+06 2.023E+06 2.023E+06 2.109E+07 36.7991 1.00000
  2.239E+12 2.239E+12 3.979E+00 5.112E+04 8.954E+05 1.353E+06 2.300E+06 2.300E+06 2.120E+07 37.0294 1.00000
  2.512E+12 2.512E+12 3.998E+00 5.736E+04 1.005E+06 1.552E+06 2.614E+06 2.614E+06 2.131E+07 37.2596 1.00000
  2.818E+12 2.818E+12 4.018E+00 6.436E+04 1.127E+06 1.780E+06 2.971E+06 2.971E+06 2.142E+07 37.4899 1.00000
  3.162E+12 3.162E+12 4.037E+00 7.221E+04 1.265E+06 2.041E+06 3.378E+06 3.378E+06 2.153E+07 37.7202 1.00000
  3.548E+12 3.548E+12 4.057E+00 8.102E+04 1.419E+06 2.341E+06 3.841E+06 3.841E+06 2.164E+07 37.9504 1.00000
  3.981E+12 3.981E+12 4.077E+00 9.091E+04 1.592E+06 2.685E+06 4.368E+06 4.368E+06 2.174E+07 38.1807 1.00000
  4.467E+12 4.467E+12 4.097E+00 1.020E+05 1.786E+06 3.080E+06 4.969E+06 4.969E+06 2.185E+07 38.4109 1.00000
  5.012E+12 5.012E+12 4.117E+00 1.144E+05 2.004E+06 3.534E+06 5.652E+06 5.652E+06 2.195E+07 38.6412 1.00000
  5.623E+12 5.623E+12 4.137E+00 1.284E+05 2.248E+06 4.054E+06 6.431E+06 6.431E+06 2.205E+07 38.8715 1.00000
  6.310E+12 6.310E+12 4.157E+00 1.441E+05 2.523E+06 4.651E+06 7.318E+06 7.318E+06 2.215E+07 39.1017 1.00000
  7.079E+12 7.079E+12 4.178E+00 1.617E+05 2.830E+06 5.337E+06 8.329E+06 8.329E+06 2.225E+07 39.3320 1.00000
  7.943E+12 7.943E+12 4.198E+00 1.814E+05 3.176E+06 6.123E+06 9.480E+06 9.480E+06 2.235E+07 39.5622 1.00000
  8.913E+12 8.913E+12 4.219E+00 2.035E+05 3.563E+06 7.026E+06 1.079E+07 1.079E+07 2.244E+07 39.7925 1.00000
  1.000E+13 1.000E+13 4.239E+00 2.284E+05 3.997E+06 8.063E+06 1.229E+07 1.229E+07 2.254E+07 40.0228 1.00000
  1.122E+13 1.122E+13 4.260E+00 2.562E+05 4.485E+06 9.253E+06 1.399E+07 1.399E+07 2.263E+07 40.2530 1.00000
  1.259E+13 1.259E+13 4.281E+00 2.875E+05 5.032E+06 1.062E+07 1.594E+07 1.594E+07 2.272E+07 40.4833 1.00000
  1.413E+13 1.413E+13 4.302E+00 3.226E+05 5.646E+06 1.219E+07 1.816E+07 1.816E+07 2.281E+07 40.7135 1.00000
  1.585E+13 1.585E+13 4.323E+00 3.619E+05 6.334E+06 1.399E+07 2.068E+07 2.068E+07 2.290E+07 40.9438 1.00000
  1.778E+13 1.778E+13 4.344E+00 4.061E+05 7.107E+06 1.605E+07 2.357E+07 2.357E+07 2.299E+07 41.1740 1.00000
  1.995E+13 1.995E+13 4.366E+00 4.556E+05 7.974E+06 1.843E+07 2.686E+07 2.686E+07 2.308E+07 41.4043 1.00000
  2.239E+13 2.239E+13 4.387E+00 5.112E+05 8.946E+06 2.115E+07 3.061E+07 3.061E+07 2.316E+07 41.6346 1.00000
  2.512E+13 2.512E+13 4.409E+00 5.736E+05 1.004E+07 2.428E+07 3.489E+07 3.489E+07 2.325E+07 41.8648 1.00000
  2.818E+13 2.818E+13 4.431E+00 6.436E+05 1.126E+07 2.788E+07 3.978E+07 3.978E+07 2.333E+07 42.0951 1.00000
  3.162E+13 3.162E+13 4.453E+00 7.221E+05 1.263E+07 3.201E+07 4.536E+07 4.536E+07 2.341E+07 42.3253 1.00000
  3.548E+13 3.548E+13 4.475E+00 8.103E+05 1.418E+07 3.675E+07 5.173E+07 5.173E+07 2.349E+07 42.5556 1.00000
  3.981E+13 3.981E+13 4.497E+00 9.091E+05 1.590E+07 4.219E+07 5.901E+07 5.901E+07 2.357E+07 42.7859 1.00000
  4.467E+13 4.467E+13 4.519E+00 1.020E+06 1.784E+07 4.845E+07 6.731E+07 6.731E+07 2.365E+07 43.0161 1.00000
  5.012E+13 5.012E+13 4.541E+00 1.145E+06 2.002E+07 5.563E+07 7.680E+07 7.680E+07 2.372E+07 43.2464 1.00000
  5.623E+13 5.623E+13 4.564E+00 1.284E+06 2.246E+07 6.388E+07 8.763E+07 8.763E+07 2.380E+07 43.4766 1.00000
  6.310E+13 6.310E+13 4.586E+00 1.441E+06 2.520E+07 7.336E+07 1.000E+08 1.000E+08 2.387E+07 43.7069 1.00000
  7.079E+13 7.079E+13 4.609E+00 1.617E+06 2.827E+07 8.426E+07 1.141E+08 1.141E+08 2.394E+07 43.9371 1.00000
  7.943E+13 7.943E+13 4.632E+00 1.814E+06 3.172E+07 9.677E+07 1.303E+08 1.303E+08 2.401E+07 44.1674 1.00000
  8.913E+13 8.913E+13 4.655E+00 2.035E+06 3.559E+07 1.111E+08 1.488E+08 1.488E+08 2.408E+07 44.3977 1.00000
