 Incident particle is a Tau with M = 1776.82000 MeV
 Index = 0: Ms20TissueSubstitute
      Absorber with <Z/A> = 0.53880
 Sternheimer coef:  a     k=m_s   x_0    x_1    I[eV]   Cbar  delta0
                 0.0829  3.6061  0.1997  2.8033   75.1  3.5341 0.00

 *** Table generated with PUMAS v1.00 ***

      T         p     Ionization  brems     pair     photonuc  Radloss    dE/dx   CSDA Range  delta   beta
    [MeV]    [MeV/c]  -----------------------[MeV cm^2/g]------------------------  [g/cm^2]
  1.000E+05 1.018E+05 2.375E+00 1.354E-04 2.111E-03 8.382E-03 1.063E-02 2.386E+00 2.096E+04  4.6588 0.99985
  1.122E+05 1.140E+05 2.396E+00 1.564E-04 2.550E-03 9.469E-03 1.218E-02 2.408E+00 2.605E+04  4.8698 0.99988
  1.259E+05 1.277E+05 2.416E+00 1.806E-04 3.068E-03 1.064E-02 1.389E-02 2.430E+00 3.171E+04  5.0830 0.99990
  1.413E+05 1.430E+05 2.437E+00 2.084E-04 3.679E-03 1.196E-02 1.585E-02 2.452E+00 3.800E+04  5.2984 0.99992
  1.585E+05 1.603E+05 2.457E+00 2.404E-04 4.397E-03 1.344E-02 1.807E-02 2.475E+00 4.500E+04  5.5156 0.99994
  1.778E+05 1.796E+05 2.477E+00 2.772E-04 5.239E-03 1.509E-02 2.060E-02 2.498E+00 5.277E+04  5.7345 0.99995
  1.995E+05 2.013E+05 2.497E+00 3.195E-04 6.226E-03 1.697E-02 2.352E-02 2.521E+00 6.142E+04  5.9550 0.99996
  2.239E+05 2.256E+05 2.517E+00 3.681E-04 7.381E-03 1.903E-02 2.678E-02 2.544E+00 7.103E+04  6.1770 0.99997
  2.512E+05 2.530E+05 2.538E+00 4.238E-04 8.727E-03 2.134E-02 3.049E-02 2.568E+00 8.172E+04  6.4002 0.99998
  2.818E+05 2.836E+05 2.557E+00 4.878E-04 1.030E-02 2.394E-02 3.472E-02 2.592E+00 9.360E+04  6.6246 0.99998
  3.162E+05 3.180E+05 2.577E+00 5.612E-04 1.212E-02 2.688E-02 3.956E-02 2.617E+00 1.068E+05  6.8500 0.99998
  3.548E+05 3.566E+05 2.597E+00 6.455E-04 1.424E-02 3.019E-02 4.507E-02 2.642E+00 1.215E+05  7.0762 0.99999
  3.981E+05 3.999E+05 2.617E+00 7.420E-04 1.669E-02 3.388E-02 5.131E-02 2.668E+00 1.378E+05  7.3033 0.99999
  4.467E+05 4.485E+05 2.637E+00 8.527E-04 1.953E-02 3.801E-02 5.840E-02 2.695E+00 1.559E+05  7.5310 0.99999
  5.012E+05 5.030E+05 2.656E+00 9.796E-04 2.281E-02 4.267E-02 6.647E-02 2.723E+00 1.760E+05  7.7592 0.99999
  5.623E+05 5.641E+05 2.676E+00 1.125E-03 2.660E-02 4.772E-02 7.545E-02 2.751E+00 1.984E+05  7.9879 1.00000
  6.310E+05 6.327E+05 2.695E+00 1.291E-03 3.097E-02 5.342E-02 8.568E-02 2.781E+00 2.232E+05  8.2169 1.00000
  7.079E+05 7.097E+05 2.715E+00 1.482E-03 3.600E-02 5.985E-02 9.733E-02 2.812E+00 2.507E+05  8.4463 1.00000
  7.943E+05 7.961E+05 2.734E+00 1.700E-03 4.178E-02 6.711E-02 1.106E-01 2.845E+00 2.812E+05  8.6758 1.00000
  8.913E+05 8.930E+05 2.753E+00 1.949E-03 4.843E-02 7.532E-02 1.257E-01 2.879E+00 3.151E+05  8.9055 1.00000
  1.000E+06 1.002E+06 2.772E+00 2.235E-03 5.605E-02 8.460E-02 1.429E-01 2.915E+00 3.527E+05  9.1353 1.00000
  1.122E+06 1.124E+06 2.791E+00 2.562E-03 6.478E-02 9.511E-02 1.625E-01 2.954E+00 3.942E+05  9.3652 1.00000
  1.259E+06 1.261E+06 2.810E+00 2.935E-03 7.478E-02 1.070E-01 1.847E-01 2.995E+00 4.403E+05  9.5951 1.00000
  1.413E+06 1.414E+06 2.829E+00 3.362E-03 8.621E-02 1.205E-01 2.101E-01 3.039E+00 4.912E+05  9.8250 1.00000
  1.585E+06 1.587E+06 2.848E+00 3.850E-03 9.927E-02 1.358E-01 2.390E-01 3.087E+00 5.475E+05 10.0550 1.00000
  1.778E+06 1.780E+06 2.866E+00 4.408E-03 1.142E-01 1.532E-01 2.718E-01 3.138E+00 6.096E+05 10.2850 1.00000
  1.995E+06 1.997E+06 2.885E+00 5.045E-03 1.312E-01 1.729E-01 3.091E-01 3.194E+00 6.782E+05 10.5151 1.00000
  2.239E+06 2.240E+06 2.903E+00 5.773E-03 1.505E-01 1.953E-01 3.516E-01 3.255E+00 7.537E+05 10.7452 1.00000
  2.512E+06 2.514E+06 2.921E+00 6.604E-03 1.726E-01 2.208E-01 3.999E-01 3.321E+00 8.368E+05 10.9752 1.00000
  2.818E+06 2.820E+06 2.939E+00 7.553E-03 1.976E-01 2.497E-01 4.549E-01 3.394E+00 9.281E+05 11.2053 1.00000
  3.162E+06 3.164E+06 2.957E+00 8.637E-03 2.261E-01 2.826E-01 5.173E-01 3.474E+00 1.028E+06 11.4355 1.00000
  3.548E+06 3.550E+06 2.974E+00 9.873E-03 2.584E-01 3.200E-01 5.883E-01 3.563E+00 1.138E+06 11.6656 1.00000
  3.981E+06 3.983E+06 2.992E+00 1.128E-02 2.951E-01 3.626E-01 6.690E-01 3.661E+00 1.258E+06 11.8958 1.00000
  4.467E+06 4.469E+06 3.009E+00 1.289E-02 3.367E-01 4.111E-01 7.606E-01 3.770E+00 1.389E+06 12.1259 1.00000
  5.012E+06 5.014E+06 3.026E+00 1.473E-02 3.838E-01 4.662E-01 8.647E-01 3.891E+00 1.531E+06 12.3561 1.00000
  5.623E+06 5.625E+06 3.043E+00 1.682E-02 4.371E-01 5.290E-01 9.830E-01 4.026E+00 1.685E+06 12.5863 1.00000
  6.310E+06 6.311E+06 3.060E+00 1.920E-02 4.975E-01 6.006E-01 1.117E+00 4.177E+00 1.853E+06 12.8165 1.00000
  7.079E+06 7.081E+06 3.077E+00 2.191E-02 5.657E-01 6.821E-01 1.270E+00 4.346E+00 2.034E+06 13.0467 1.00000
  7.943E+06 7.945E+06 3.093E+00 2.501E-02 6.428E-01 7.750E-01 1.443E+00 4.536E+00 2.228E+06 13.2769 1.00000
  8.913E+06 8.914E+06 3.109E+00 2.853E-02 7.299E-01 8.808E-01 1.639E+00 4.749E+00 2.437E+06 13.5071 1.00000
  1.000E+07 1.000E+07 3.125E+00 3.254E-02 8.282E-01 1.002E+00 1.862E+00 4.988E+00 2.661E+06 13.7373 1.00000
  1.122E+07 1.122E+07 3.141E+00 3.710E-02 9.392E-01 1.139E+00 2.115E+00 5.257E+00 2.899E+06 13.9675 1.00000
  1.259E+07 1.259E+07 3.157E+00 4.229E-02 1.064E+00 1.296E+00 2.403E+00 5.560E+00 3.152E+06 14.1977 1.00000
  1.413E+07 1.413E+07 3.173E+00 4.819E-02 1.206E+00 1.475E+00 2.728E+00 5.901E+00 3.421E+06 14.4280 1.00000
  1.585E+07 1.585E+07 3.188E+00 5.490E-02 1.365E+00 1.679E+00 3.098E+00 6.287E+00 3.704E+06 14.6582 1.00000
  1.778E+07 1.778E+07 3.204E+00 6.253E-02 1.544E+00 1.911E+00 3.518E+00 6.722E+00 4.001E+06 14.8884 1.00000
  1.995E+07 1.995E+07 3.219E+00 7.120E-02 1.746E+00 2.177E+00 3.994E+00 7.213E+00 4.313E+06 15.1187 1.00000
  2.239E+07 2.239E+07 3.235E+00 8.105E-02 1.973E+00 2.479E+00 4.534E+00 7.768E+00 4.639E+06 15.3489 1.00000
  2.512E+07 2.512E+07 3.250E+00 9.224E-02 2.229E+00 2.825E+00 5.146E+00 8.396E+00 4.977E+06 15.5791 1.00000
  2.818E+07 2.819E+07 3.265E+00 1.049E-01 2.517E+00 3.219E+00 5.841E+00 9.106E+00 5.328E+06 15.8094 1.00000
  3.162E+07 3.162E+07 3.280E+00 1.194E-01 2.841E+00 3.669E+00 6.629E+00 9.909E+00 5.690E+06 16.0396 1.00000
  3.548E+07 3.548E+07 3.295E+00 1.357E-01 3.205E+00 4.182E+00 7.523E+00 1.082E+01 6.063E+06 16.2699 1.00000
  3.981E+07 3.981E+07 3.310E+00 1.543E-01 3.615E+00 4.768E+00 8.537E+00 1.185E+01 6.446E+06 16.5001 1.00000
  4.467E+07 4.467E+07 3.325E+00 1.753E-01 4.076E+00 5.437E+00 9.688E+00 1.301E+01 6.838E+06 16.7304 1.00000
  5.012E+07 5.012E+07 3.340E+00 1.992E-01 4.593E+00 6.200E+00 1.099E+01 1.433E+01 7.237E+06 16.9606 1.00000
  5.623E+07 5.624E+07 3.355E+00 2.262E-01 5.175E+00 7.071E+00 1.247E+01 1.583E+01 7.644E+06 17.1909 1.00000
  6.310E+07 6.310E+07 3.370E+00 2.568E-01 5.829E+00 8.066E+00 1.415E+01 1.752E+01 8.056E+06 17.4211 1.00000
  7.079E+07 7.080E+07 3.385E+00 2.915E-01 6.564E+00 9.202E+00 1.606E+01 1.944E+01 8.474E+06 17.6514 1.00000
  7.943E+07 7.943E+07 3.400E+00 3.308E-01 7.389E+00 1.050E+01 1.822E+01 2.162E+01 8.896E+06 17.8816 1.00000
  8.913E+07 8.913E+07 3.415E+00 3.753E-01 8.317E+00 1.198E+01 2.067E+01 2.409E+01 9.321E+06 18.1119 1.00000
  1.000E+08 1.000E+08 3.430E+00 4.256E-01 9.358E+00 1.367E+01 2.346E+01 2.689E+01 9.749E+06 18.3421 1.00000
  1.122E+08 1.122E+08 3.445E+00 4.825E-01 1.053E+01 1.560E+01 2.661E+01 3.006E+01 1.018E+07 18.5724 1.00000
  1.259E+08 1.259E+08 3.460E+00 5.469E-01 1.184E+01 1.781E+01 3.020E+01 3.366E+01 1.061E+07 18.8026 1.00000
  1.413E+08 1.413E+08 3.475E+00 6.197E-01 1.332E+01 2.033E+01 3.426E+01 3.774E+01 1.104E+07 19.0329 1.00000
  1.585E+08 1.585E+08 3.490E+00 7.020E-01 1.497E+01 2.321E+01 3.888E+01 4.237E+01 1.147E+07 19.2632 1.00000
  1.778E+08 1.778E+08 3.506E+00 7.950E-01 1.683E+01 2.649E+01 4.412E+01 4.762E+01 1.191E+07 19.4934 1.00000
  1.995E+08 1.995E+08 3.521E+00 9.000E-01 1.892E+01 3.025E+01 5.007E+01 5.359E+01 1.234E+07 19.7237 1.00000
  2.239E+08 2.239E+08 3.536E+00 1.019E+00 2.126E+01 3.454E+01 5.682E+01 6.035E+01 1.276E+07 19.9539 1.00000
  2.512E+08 2.512E+08 3.552E+00 1.153E+00 2.389E+01 3.944E+01 6.448E+01 6.804E+01 1.319E+07 20.1842 1.00000
  2.818E+08 2.818E+08 3.567E+00 1.304E+00 2.684E+01 4.504E+01 7.319E+01 7.675E+01 1.362E+07 20.4144 1.00000
  3.162E+08 3.162E+08 3.583E+00 1.474E+00 3.015E+01 5.144E+01 8.307E+01 8.665E+01 1.404E+07 20.6447 1.00000
  3.548E+08 3.548E+08 3.598E+00 1.667E+00 3.387E+01 5.876E+01 9.429E+01 9.789E+01 1.446E+07 20.8750 1.00000
  3.981E+08 3.981E+08 3.614E+00 1.884E+00 3.804E+01 6.711E+01 1.070E+02 1.107E+02 1.488E+07 21.1052 1.00000
  4.467E+08 4.467E+08 3.630E+00 2.129E+00 4.273E+01 7.666E+01 1.215E+02 1.251E+02 1.529E+07 21.3355 1.00000
  5.012E+08 5.012E+08 3.646E+00 2.405E+00 4.798E+01 8.757E+01 1.380E+02 1.416E+02 1.570E+07 21.5657 1.00000
  5.623E+08 5.623E+08 3.662E+00 2.716E+00 5.388E+01 1.000E+02 1.566E+02 1.603E+02 1.611E+07 21.7960 1.00000
  6.310E+08 6.310E+08 3.678E+00 3.067E+00 6.050E+01 1.143E+02 1.779E+02 1.815E+02 1.651E+07 22.0262 1.00000
  7.079E+08 7.079E+08 3.694E+00 3.462E+00 6.793E+01 1.306E+02 2.020E+02 2.057E+02 1.691E+07 22.2565 1.00000
  7.943E+08 7.943E+08 3.710E+00 3.906E+00 7.626E+01 1.492E+02 2.294E+02 2.331E+02 1.730E+07 22.4868 1.00000
  8.913E+08 8.913E+08 3.726E+00 4.408E+00 8.561E+01 1.705E+02 2.605E+02 2.643E+02 1.769E+07 22.7170 1.00000
  1.000E+09 1.000E+09 3.743E+00 4.972E+00 9.611E+01 1.949E+02 2.959E+02 2.997E+02 1.808E+07 22.9473 1.00000
  1.122E+09 1.122E+09 3.759E+00 5.607E+00 1.079E+02 2.227E+02 3.362E+02 3.400E+02 1.846E+07 23.1775 1.00000
  1.259E+09 1.259E+09 3.775E+00 6.322E+00 1.211E+02 2.545E+02 3.819E+02 3.857E+02 1.884E+07 23.4078 1.00000
  1.413E+09 1.413E+09 3.792E+00 7.126E+00 1.359E+02 2.909E+02 4.340E+02 4.378E+02 1.922E+07 23.6380 1.00000
  1.585E+09 1.585E+09 3.809E+00 8.031E+00 1.526E+02 3.325E+02 4.931E+02 4.969E+02 1.959E+07 23.8683 1.00000
  1.778E+09 1.778E+09 3.826E+00 9.049E+00 1.712E+02 3.801E+02 5.604E+02 5.642E+02 1.995E+07 24.0986 1.00000
  1.995E+09 1.995E+09 3.842E+00 1.019E+01 1.922E+02 4.345E+02 6.369E+02 6.407E+02 2.032E+07 24.3288 1.00000
  2.239E+09 2.239E+09 3.859E+00 1.148E+01 2.157E+02 4.967E+02 7.239E+02 7.278E+02 2.067E+07 24.5591 1.00000
  2.512E+09 2.512E+09 3.876E+00 1.293E+01 2.421E+02 5.679E+02 8.229E+02 8.268E+02 2.103E+07 24.7893 1.00000
  2.818E+09 2.818E+09 3.894E+00 1.456E+01 2.717E+02 6.493E+02 9.355E+02 9.394E+02 2.137E+07 25.0196 1.00000
  3.162E+09 3.162E+09 3.911E+00 1.639E+01 3.049E+02 7.424E+02 1.064E+03 1.068E+03 2.172E+07 25.2499 1.00000
  3.548E+09 3.548E+09 3.928E+00 1.844E+01 3.422E+02 8.488E+02 1.209E+03 1.213E+03 2.206E+07 25.4801 1.00000
  3.981E+09 3.981E+09 3.946E+00 2.075E+01 3.840E+02 9.707E+02 1.375E+03 1.379E+03 2.239E+07 25.7104 1.00000
  4.467E+09 4.467E+09 3.963E+00 2.335E+01 4.309E+02 1.110E+03 1.564E+03 1.568E+03 2.272E+07 25.9406 1.00000
  5.012E+09 5.012E+09 3.981E+00 2.627E+01 4.835E+02 1.269E+03 1.779E+03 1.783E+03 2.305E+07 26.1709 1.00000
  5.623E+09 5.623E+09 3.999E+00 2.955E+01 5.426E+02 1.452E+03 2.024E+03 2.028E+03 2.337E+07 26.4011 1.00000
  6.310E+09 6.310E+09 4.016E+00 3.323E+01 6.088E+02 1.661E+03 2.303E+03 2.307E+03 2.369E+07 26.6314 1.00000
  7.079E+09 7.079E+09 4.034E+00 3.737E+01 6.832E+02 1.899E+03 2.620E+03 2.624E+03 2.400E+07 26.8617 1.00000
  7.943E+09 7.943E+09 4.052E+00 4.201E+01 7.666E+02 2.173E+03 2.981E+03 2.985E+03 2.431E+07 27.0919 1.00000
  8.913E+09 8.913E+09 4.070E+00 4.723E+01 8.602E+02 2.485E+03 3.393E+03 3.397E+03 2.462E+07 27.3222 1.00000
  1.000E+10 1.000E+10 4.089E+00 5.309E+01 9.653E+02 2.843E+03 3.861E+03 3.866E+03 2.492E+07 27.5524 1.00000
  1.122E+10 1.122E+10 4.107E+00 5.967E+01 1.083E+03 3.253E+03 4.395E+03 4.400E+03 2.522E+07 27.7827 1.00000
  1.259E+10 1.259E+10 4.126E+00 6.706E+01 1.215E+03 3.721E+03 5.004E+03 5.008E+03 2.551E+07 28.0130 1.00000
  1.413E+10 1.413E+10 4.144E+00 7.536E+01 1.364E+03 4.258E+03 5.697E+03 5.701E+03 2.580E+07 28.2432 1.00000
  1.585E+10 1.585E+10 4.163E+00 8.467E+01 1.530E+03 4.872E+03 6.487E+03 6.491E+03 2.608E+07 28.4735 1.00000
  1.778E+10 1.778E+10 4.181E+00 9.513E+01 1.717E+03 5.575E+03 7.387E+03 7.391E+03 2.636E+07 28.7037 1.00000
  1.995E+10 1.995E+10 4.200E+00 1.069E+02 1.926E+03 6.380E+03 8.413E+03 8.417E+03 2.664E+07 28.9340 1.00000
  2.239E+10 2.239E+10 4.219E+00 1.200E+02 2.161E+03 7.301E+03 9.583E+03 9.587E+03 2.691E+07 29.1643 1.00000
  2.512E+10 2.512E+10 4.238E+00 1.348E+02 2.425E+03 8.356E+03 1.092E+04 1.092E+04 2.718E+07 29.3945 1.00000
  2.818E+10 2.818E+10 4.258E+00 1.514E+02 2.721E+03 9.563E+03 1.244E+04 1.244E+04 2.744E+07 29.6248 1.00000
  3.162E+10 3.162E+10 4.277E+00 1.701E+02 3.053E+03 1.095E+04 1.417E+04 1.417E+04 2.770E+07 29.8550 1.00000
  3.548E+10 3.548E+10 4.296E+00 1.910E+02 3.426E+03 1.253E+04 1.615E+04 1.615E+04 2.795E+07 30.0853 1.00000
  3.981E+10 3.981E+10 4.316E+00 2.145E+02 3.844E+03 1.434E+04 1.840E+04 1.841E+04 2.821E+07 30.3155 1.00000
  4.467E+10 4.467E+10 4.335E+00 2.408E+02 4.313E+03 1.642E+04 2.097E+04 2.098E+04 2.845E+07 30.5458 1.00000
  5.012E+10 5.012E+10 4.355E+00 2.704E+02 4.839E+03 1.880E+04 2.391E+04 2.391E+04 2.870E+07 30.7761 1.00000
  5.623E+10 5.623E+10 4.375E+00 3.036E+02 5.430E+03 2.152E+04 2.725E+04 2.726E+04 2.894E+07 31.0063 1.00000
  6.310E+10 6.310E+10 4.395E+00 3.408E+02 6.092E+03 2.464E+04 3.107E+04 3.108E+04 2.917E+07 31.2366 1.00000
  7.079E+10 7.079E+10 4.415E+00 3.826E+02 6.835E+03 2.821E+04 3.543E+04 3.543E+04 2.941E+07 31.4668 1.00000
  7.943E+10 7.943E+10 4.435E+00 4.296E+02 7.669E+03 3.231E+04 4.040E+04 4.041E+04 2.963E+07 31.6971 1.00000
  8.913E+10 8.913E+10 4.456E+00 4.822E+02 8.605E+03 3.699E+04 4.608E+04 4.608E+04 2.986E+07 31.9274 1.00000
  1.000E+11 1.000E+11 4.476E+00 5.413E+02 9.655E+03 4.236E+04 5.256E+04 5.256E+04 3.008E+07 32.1576 1.00000
  1.122E+11 1.122E+11 4.496E+00 6.075E+02 1.083E+04 4.852E+04 5.996E+04 5.996E+04 3.030E+07 32.3879 1.00000
  1.259E+11 1.259E+11 4.517E+00 6.819E+02 1.215E+04 5.557E+04 6.840E+04 6.841E+04 3.051E+07 32.6181 1.00000
  1.413E+11 1.413E+11 4.538E+00 7.654E+02 1.364E+04 6.364E+04 7.805E+04 7.805E+04 3.072E+07 32.8484 1.00000
  1.585E+11 1.585E+11 4.559E+00 8.591E+02 1.530E+04 7.290E+04 8.906E+04 8.906E+04 3.093E+07 33.0786 1.00000
  1.778E+11 1.778E+11 4.580E+00 9.642E+02 1.717E+04 8.351E+04 1.016E+05 1.016E+05 3.113E+07 33.3089 1.00000
  1.995E+11 1.995E+11 4.601E+00 1.082E+03 1.926E+04 9.566E+04 1.160E+05 1.160E+05 3.134E+07 33.5392 1.00000
  2.239E+11 2.239E+11 4.622E+00 1.214E+03 2.161E+04 1.096E+05 1.324E+05 1.324E+05 3.153E+07 33.7694 1.00000
  2.512E+11 2.512E+11 4.643E+00 1.363E+03 2.425E+04 1.256E+05 1.512E+05 1.512E+05 3.173E+07 33.9997 1.00000
  2.818E+11 2.818E+11 4.665E+00 1.530E+03 2.720E+04 1.438E+05 1.726E+05 1.726E+05 3.192E+07 34.2299 1.00000
  3.162E+11 3.162E+11 4.687E+00 1.716E+03 3.052E+04 1.648E+05 1.971E+05 1.971E+05 3.210E+07 34.4602 1.00000
  3.548E+11 3.548E+11 4.708E+00 1.926E+03 3.425E+04 1.889E+05 2.250E+05 2.250E+05 3.229E+07 34.6905 1.00000
  3.981E+11 3.981E+11 4.730E+00 2.162E+03 3.842E+04 2.164E+05 2.570E+05 2.570E+05 3.247E+07 34.9207 1.00000
  4.467E+11 4.467E+11 4.752E+00 2.426E+03 4.311E+04 2.480E+05 2.935E+05 2.935E+05 3.264E+07 35.1510 1.00000
  5.012E+11 5.012E+11 4.774E+00 2.722E+03 4.837E+04 2.842E+05 3.353E+05 3.353E+05 3.282E+07 35.3812 1.00000
  5.623E+11 5.623E+11 4.796E+00 3.054E+03 5.427E+04 3.257E+05 3.830E+05 3.830E+05 3.299E+07 35.6115 1.00000
  6.310E+11 6.310E+11 4.819E+00 3.428E+03 6.089E+04 3.733E+05 4.376E+05 4.376E+05 3.316E+07 35.8417 1.00000
  7.079E+11 7.079E+11 4.841E+00 3.846E+03 6.832E+04 4.279E+05 5.001E+05 5.001E+05 3.332E+07 36.0720 1.00000
  7.943E+11 7.943E+11 4.864E+00 4.316E+03 7.665E+04 4.905E+05 5.714E+05 5.714E+05 3.348E+07 36.3023 1.00000
  8.913E+11 8.913E+11 4.886E+00 4.843E+03 8.600E+04 5.622E+05 6.531E+05 6.531E+05 3.364E+07 36.5325 1.00000
  1.000E+12 1.000E+12 4.909E+00 5.434E+03 9.649E+04 6.445E+05 7.465E+05 7.465E+05 3.380E+07 36.7628 1.00000
  1.122E+12 1.122E+12 4.932E+00 6.098E+03 1.083E+05 7.389E+05 8.533E+05 8.533E+05 3.395E+07 36.9930 1.00000
  1.259E+12 1.259E+12 4.955E+00 6.842E+03 1.215E+05 8.471E+05 9.755E+05 9.755E+05 3.410E+07 37.2233 1.00000
  1.413E+12 1.413E+12 4.978E+00 7.677E+03 1.363E+05 9.713E+05 1.115E+06 1.115E+06 3.425E+07 37.4536 1.00000
  1.585E+12 1.585E+12 5.002E+00 8.614E+03 1.529E+05 1.114E+06 1.275E+06 1.275E+06 3.440E+07 37.6838 1.00000
  1.778E+12 1.778E+12 5.025E+00 9.666E+03 1.716E+05 1.277E+06 1.458E+06 1.458E+06 3.454E+07 37.9141 1.00000
  1.995E+12 1.995E+12 5.049E+00 1.085E+04 1.925E+05 1.464E+06 1.668E+06 1.668E+06 3.468E+07 38.1443 1.00000
  2.239E+12 2.239E+12 5.073E+00 1.217E+04 2.160E+05 1.679E+06 1.907E+06 1.907E+06 3.481E+07 38.3746 1.00000
  2.512E+12 2.512E+12 5.096E+00 1.366E+04 2.423E+05 1.926E+06 2.182E+06 2.182E+06 3.495E+07 38.6048 1.00000
  2.818E+12 2.818E+12 5.120E+00 1.532E+04 2.719E+05 2.209E+06 2.496E+06 2.496E+06 3.508E+07 38.8351 1.00000
  3.162E+12 3.162E+12 5.145E+00 1.719E+04 3.050E+05 2.533E+06 2.856E+06 2.856E+06 3.521E+07 39.0654 1.00000
  3.548E+12 3.548E+12 5.169E+00 1.929E+04 3.422E+05 2.906E+06 3.267E+06 3.267E+06 3.534E+07 39.2956 1.00000
  3.981E+12 3.981E+12 5.193E+00 2.164E+04 3.840E+05 3.333E+06 3.739E+06 3.739E+06 3.546E+07 39.5259 1.00000
  4.467E+12 4.467E+12 5.218E+00 2.429E+04 4.308E+05 3.824E+06 4.279E+06 4.279E+06 3.558E+07 39.7561 1.00000
  5.012E+12 5.012E+12 5.242E+00 2.725E+04 4.833E+05 4.386E+06 4.897E+06 4.897E+06 3.570E+07 39.9864 1.00000
  5.623E+12 5.623E+12 5.267E+00 3.057E+04 5.423E+05 5.032E+06 5.605E+06 5.605E+06 3.582E+07 40.2167 1.00000
  6.310E+12 6.310E+12 5.292E+00 3.431E+04 6.084E+05 5.773E+06 6.416E+06 6.416E+06 3.593E+07 40.4469 1.00000
  7.079E+12 7.079E+12 5.317E+00 3.849E+04 6.826E+05 6.624E+06 7.345E+06 7.345E+06 3.604E+07 40.6772 1.00000
  7.943E+12 7.943E+12 5.342E+00 4.319E+04 7.659E+05 7.600E+06 8.409E+06 8.409E+06 3.615E+07 40.9074 1.00000
  8.913E+12 8.913E+12 5.368E+00 4.846E+04 8.593E+05 8.721E+06 9.629E+06 9.629E+06 3.626E+07 41.1377 1.00000
  1.000E+13 1.000E+13 5.393E+00 5.437E+04 9.641E+05 1.001E+07 1.103E+07 1.103E+07 3.637E+07 41.3680 1.00000
  1.122E+13 1.122E+13 5.419E+00 6.101E+04 1.082E+06 1.148E+07 1.263E+07 1.263E+07 3.647E+07 41.5982 1.00000
  1.259E+13 1.259E+13 5.445E+00 6.845E+04 1.214E+06 1.318E+07 1.446E+07 1.446E+07 3.657E+07 41.8285 1.00000
  1.413E+13 1.413E+13 5.471E+00 7.681E+04 1.362E+06 1.513E+07 1.656E+07 1.656E+07 3.667E+07 42.0587 1.00000
  1.585E+13 1.585E+13 5.497E+00 8.618E+04 1.528E+06 1.736E+07 1.898E+07 1.898E+07 3.677E+07 42.2890 1.00000
  1.778E+13 1.778E+13 5.523E+00 9.669E+04 1.714E+06 1.993E+07 2.174E+07 2.174E+07 3.687E+07 42.5192 1.00000
  1.995E+13 1.995E+13 5.549E+00 1.085E+05 1.923E+06 2.287E+07 2.491E+07 2.491E+07 3.696E+07 42.7495 1.00000
  2.239E+13 2.239E+13 5.576E+00 1.217E+05 2.158E+06 2.626E+07 2.854E+07 2.854E+07 3.705E+07 42.9798 1.00000
  2.512E+13 2.512E+13 5.602E+00 1.366E+05 2.421E+06 3.014E+07 3.270E+07 3.270E+07 3.714E+07 43.2100 1.00000
  2.818E+13 2.818E+13 5.629E+00 1.533E+05 2.716E+06 3.460E+07 3.747E+07 3.747E+07 3.723E+07 43.4403 1.00000
  3.162E+13 3.162E+13 5.656E+00 1.720E+05 3.047E+06 3.973E+07 4.295E+07 4.295E+07 3.731E+07 43.6705 1.00000
  3.548E+13 3.548E+13 5.683E+00 1.929E+05 3.419E+06 4.561E+07 4.922E+07 4.922E+07 3.740E+07 43.9008 1.00000
  3.981E+13 3.981E+13 5.710E+00 2.165E+05 3.836E+06 5.237E+07 5.642E+07 5.642E+07 3.748E+07 44.1311 1.00000
  4.467E+13 4.467E+13 5.737E+00 2.429E+05 4.303E+06 6.013E+07 6.468E+07 6.468E+07 3.756E+07 44.3613 1.00000
  5.012E+13 5.012E+13 5.765E+00 2.725E+05 4.828E+06 6.905E+07 7.415E+07 7.415E+07 3.764E+07 44.5916 1.00000
  5.623E+13 5.623E+13 5.792E+00 3.058E+05 5.417E+06 7.929E+07 8.502E+07 8.502E+07 3.772E+07 44.8218 1.00000
  6.310E+13 6.310E+13 5.820E+00 3.431E+05 6.078E+06 9.106E+07 9.748E+07 9.748E+07 3.779E+07 45.0521 1.00000
  7.079E+13 7.079E+13 5.848E+00 3.850E+05 6.819E+06 1.046E+08 1.118E+08 1.118E+08 3.787E+07 45.2823 1.00000
  7.943E+13 7.943E+13 5.876E+00 4.319E+05 7.651E+06 1.201E+08 1.282E+08 1.282E+08 3.794E+07 45.5126 1.00000
  8.913E+13 8.913E+13 5.904E+00 4.846E+05 8.584E+06 1.380E+08 1.470E+08 1.470E+08 3.801E+07 45.7429 1.00000
