 Incident particle is a Tau with M = 1776.82000 MeV
 Index = 0: NHexane
      Absorber with <Z/A> = 0.58008
 Sternheimer coef:  a     k=m_s   x_0    x_1    I[eV]   Cbar  delta0
                 0.1108  3.5027  0.1984  2.5757   54.0  3.2156 0.00

 *** Table generated with PUMAS v1.00 ***

      T         p     Ionization  brems     pair     photonuc  Radloss    dE/dx   CSDA Range  delta   beta
    [MeV]    [MeV/c]  -----------------------[MeV cm^2/g]------------------------  [g/cm^2]
  1.000E+05 1.018E+05 2.591E+00 1.084E-04 1.687E-03 8.498E-03 1.029E-02 2.602E+00 1.922E+04  4.9348 0.99985
  1.122E+05 1.140E+05 2.613E+00 1.251E-04 2.044E-03 9.608E-03 1.178E-02 2.625E+00 2.389E+04  5.1506 0.99988
  1.259E+05 1.277E+05 2.635E+00 1.444E-04 2.466E-03 1.081E-02 1.342E-02 2.648E+00 2.908E+04  5.3684 0.99990
  1.413E+05 1.430E+05 2.656E+00 1.666E-04 2.963E-03 1.216E-02 1.529E-02 2.672E+00 3.486E+04  5.5880 0.99992
  1.585E+05 1.603E+05 2.678E+00 1.921E-04 3.549E-03 1.367E-02 1.741E-02 2.695E+00 4.128E+04  5.8091 0.99994
  1.778E+05 1.796E+05 2.699E+00 2.215E-04 4.237E-03 1.536E-02 1.982E-02 2.719E+00 4.842E+04  6.0317 0.99995
  1.995E+05 2.013E+05 2.721E+00 2.552E-04 5.044E-03 1.729E-02 2.259E-02 2.743E+00 5.637E+04  6.2556 0.99996
  2.239E+05 2.256E+05 2.742E+00 2.939E-04 5.988E-03 1.941E-02 2.569E-02 2.768E+00 6.520E+04  6.4806 0.99997
  2.512E+05 2.530E+05 2.763E+00 3.384E-04 7.091E-03 2.178E-02 2.921E-02 2.793E+00 7.503E+04  6.7066 0.99998
  2.818E+05 2.836E+05 2.785E+00 3.894E-04 8.377E-03 2.445E-02 3.322E-02 2.818E+00 8.595E+04  6.9334 0.99998
  3.162E+05 3.180E+05 2.806E+00 4.480E-04 9.872E-03 2.748E-02 3.780E-02 2.844E+00 9.810E+04  7.1610 0.99998
  3.548E+05 3.566E+05 2.827E+00 5.152E-04 1.161E-02 3.088E-02 4.301E-02 2.870E+00 1.116E+05  7.3891 0.99999
  3.981E+05 3.999E+05 2.848E+00 5.922E-04 1.363E-02 3.468E-02 4.890E-02 2.897E+00 1.266E+05  7.6177 0.99999
  4.467E+05 4.485E+05 2.869E+00 6.806E-04 1.596E-02 3.895E-02 5.559E-02 2.925E+00 1.433E+05  7.8466 0.99999
  5.012E+05 5.030E+05 2.890E+00 7.818E-04 1.866E-02 4.375E-02 6.320E-02 2.954E+00 1.619E+05  8.0758 0.99999
  5.623E+05 5.641E+05 2.911E+00 8.978E-04 2.178E-02 4.896E-02 7.164E-02 2.983E+00 1.825E+05  8.3053 1.00000
  6.310E+05 6.327E+05 2.932E+00 1.031E-03 2.538E-02 5.484E-02 8.126E-02 3.013E+00 2.053E+05  8.5348 1.00000
  7.079E+05 7.097E+05 2.953E+00 1.183E-03 2.953E-02 6.148E-02 9.220E-02 3.045E+00 2.308E+05  8.7645 1.00000
  7.943E+05 7.961E+05 2.974E+00 1.357E-03 3.430E-02 6.899E-02 1.047E-01 3.078E+00 2.590E+05  8.9942 1.00000
  8.913E+05 8.930E+05 2.994E+00 1.557E-03 3.979E-02 7.747E-02 1.188E-01 3.113E+00 2.903E+05  9.2240 1.00000
  1.000E+06 1.002E+06 3.015E+00 1.785E-03 4.609E-02 8.708E-02 1.350E-01 3.150E+00 3.250E+05  9.4538 1.00000
  1.122E+06 1.124E+06 3.036E+00 2.047E-03 5.332E-02 9.795E-02 1.533E-01 3.189E+00 3.635E+05  9.6837 1.00000
  1.259E+06 1.261E+06 3.056E+00 2.346E-03 6.159E-02 1.103E-01 1.742E-01 3.230E+00 4.062E+05  9.9136 1.00000
  1.413E+06 1.414E+06 3.076E+00 2.688E-03 7.107E-02 1.242E-01 1.980E-01 3.274E+00 4.534E+05 10.1435 1.00000
  1.585E+06 1.587E+06 3.096E+00 3.080E-03 8.190E-02 1.401E-01 2.251E-01 3.321E+00 5.057E+05 10.3735 1.00000
  1.778E+06 1.780E+06 3.116E+00 3.527E-03 9.427E-02 1.581E-01 2.559E-01 3.372E+00 5.635E+05 10.6035 1.00000
  1.995E+06 1.997E+06 3.136E+00 4.039E-03 1.084E-01 1.785E-01 2.909E-01 3.427E+00 6.273E+05 10.8336 1.00000
  2.239E+06 2.240E+06 3.156E+00 4.624E-03 1.245E-01 2.017E-01 3.308E-01 3.487E+00 6.977E+05 11.0637 1.00000
  2.512E+06 2.514E+06 3.175E+00 5.293E-03 1.428E-01 2.281E-01 3.762E-01 3.551E+00 7.754E+05 11.2937 1.00000
  2.818E+06 2.820E+06 3.195E+00 6.057E-03 1.637E-01 2.581E-01 4.278E-01 3.622E+00 8.608E+05 11.5238 1.00000
  3.162E+06 3.164E+06 3.214E+00 6.929E-03 1.874E-01 2.922E-01 4.864E-01 3.700E+00 9.548E+05 11.7540 1.00000
  3.548E+06 3.550E+06 3.233E+00 7.926E-03 2.143E-01 3.309E-01 5.532E-01 3.786E+00 1.058E+06 11.9841 1.00000
  3.981E+06 3.983E+06 3.251E+00 9.064E-03 2.449E-01 3.751E-01 6.290E-01 3.881E+00 1.171E+06 12.2143 1.00000
  4.467E+06 4.469E+06 3.270E+00 1.036E-02 2.796E-01 4.253E-01 7.153E-01 3.985E+00 1.294E+06 12.4444 1.00000
  5.012E+06 5.014E+06 3.289E+00 1.185E-02 3.189E-01 4.825E-01 8.133E-01 4.102E+00 1.429E+06 12.6746 1.00000
  5.623E+06 5.625E+06 3.307E+00 1.354E-02 3.635E-01 5.476E-01 9.247E-01 4.231E+00 1.576E+06 12.9048 1.00000
  6.310E+06 6.311E+06 3.325E+00 1.547E-02 4.139E-01 6.218E-01 1.051E+00 4.376E+00 1.735E+06 13.1350 1.00000
  7.079E+06 7.081E+06 3.343E+00 1.767E-02 4.710E-01 7.064E-01 1.195E+00 4.538E+00 1.908E+06 13.3652 1.00000
  7.943E+06 7.945E+06 3.360E+00 2.017E-02 5.355E-01 8.027E-01 1.358E+00 4.719E+00 2.095E+06 13.5954 1.00000
  8.913E+06 8.914E+06 3.378E+00 2.303E-02 6.085E-01 9.125E-01 1.544E+00 4.922E+00 2.296E+06 13.8256 1.00000
  1.000E+07 1.000E+07 3.395E+00 2.629E-02 6.909E-01 1.038E+00 1.755E+00 5.150E+00 2.512E+06 14.0558 1.00000
  1.122E+07 1.122E+07 3.412E+00 3.000E-02 7.839E-01 1.180E+00 1.994E+00 5.407E+00 2.743E+06 14.2860 1.00000
  1.259E+07 1.259E+07 3.429E+00 3.422E-02 8.889E-01 1.343E+00 2.266E+00 5.695E+00 2.990E+06 14.5162 1.00000
  1.413E+07 1.413E+07 3.446E+00 3.903E-02 1.007E+00 1.528E+00 2.575E+00 6.021E+00 3.253E+06 14.7465 1.00000
  1.585E+07 1.585E+07 3.463E+00 4.450E-02 1.141E+00 1.740E+00 2.925E+00 6.388E+00 3.531E+06 14.9767 1.00000
  1.778E+07 1.778E+07 3.480E+00 5.072E-02 1.291E+00 1.981E+00 3.323E+00 6.803E+00 3.824E+06 15.2069 1.00000
  1.995E+07 1.995E+07 3.496E+00 5.780E-02 1.461E+00 2.256E+00 3.775E+00 7.272E+00 4.133E+06 15.4372 1.00000
  2.239E+07 2.239E+07 3.513E+00 6.584E-02 1.652E+00 2.570E+00 4.288E+00 7.801E+00 4.456E+06 15.6674 1.00000
  2.512E+07 2.512E+07 3.529E+00 7.499E-02 1.867E+00 2.929E+00 4.871E+00 8.400E+00 4.794E+06 15.8976 1.00000
  2.818E+07 2.819E+07 3.546E+00 8.538E-02 2.109E+00 3.338E+00 5.532E+00 9.078E+00 5.145E+06 16.1279 1.00000
  3.162E+07 3.162E+07 3.562E+00 9.718E-02 2.382E+00 3.804E+00 6.283E+00 9.845E+00 5.509E+06 16.3581 1.00000
  3.548E+07 3.548E+07 3.578E+00 1.106E-01 2.688E+00 4.337E+00 7.135E+00 1.071E+01 5.885E+06 16.5884 1.00000
  3.981E+07 3.981E+07 3.594E+00 1.258E-01 3.033E+00 4.944E+00 8.103E+00 1.170E+01 6.273E+06 16.8186 1.00000
  4.467E+07 4.467E+07 3.610E+00 1.431E-01 3.421E+00 5.638E+00 9.202E+00 1.281E+01 6.670E+06 17.0489 1.00000
  5.012E+07 5.012E+07 3.626E+00 1.627E-01 3.857E+00 6.430E+00 1.045E+01 1.408E+01 7.076E+06 17.2791 1.00000
  5.623E+07 5.624E+07 3.642E+00 1.849E-01 4.347E+00 7.334E+00 1.187E+01 1.551E+01 7.490E+06 17.5094 1.00000
  6.310E+07 6.310E+07 3.659E+00 2.101E-01 4.897E+00 8.366E+00 1.347E+01 1.713E+01 7.912E+06 17.7396 1.00000
  7.079E+07 7.080E+07 3.675E+00 2.386E-01 5.516E+00 9.544E+00 1.530E+01 1.897E+01 8.340E+06 17.9699 1.00000
  7.943E+07 7.943E+07 3.691E+00 2.710E-01 6.211E+00 1.089E+01 1.737E+01 2.106E+01 8.772E+06 18.2001 1.00000
  8.913E+07 8.913E+07 3.707E+00 3.076E-01 6.993E+00 1.243E+01 1.973E+01 2.343E+01 9.209E+06 18.4304 1.00000
  1.000E+08 1.000E+08 3.723E+00 3.491E-01 7.870E+00 1.418E+01 2.240E+01 2.612E+01 9.649E+06 18.6606 1.00000
  1.122E+08 1.122E+08 3.739E+00 3.961E-01 8.855E+00 1.618E+01 2.544E+01 2.918E+01 1.009E+07 18.8909 1.00000
  1.259E+08 1.259E+08 3.756E+00 4.492E-01 9.962E+00 1.847E+01 2.888E+01 3.264E+01 1.054E+07 19.1211 1.00000
  1.413E+08 1.413E+08 3.772E+00 5.094E-01 1.120E+01 2.109E+01 3.280E+01 3.657E+01 1.098E+07 19.3514 1.00000
  1.585E+08 1.585E+08 3.788E+00 5.774E-01 1.260E+01 2.407E+01 3.725E+01 4.104E+01 1.143E+07 19.5817 1.00000
  1.778E+08 1.778E+08 3.805E+00 6.543E-01 1.417E+01 2.748E+01 4.230E+01 4.611E+01 1.187E+07 19.8119 1.00000
  1.995E+08 1.995E+08 3.821E+00 7.413E-01 1.593E+01 3.138E+01 4.805E+01 5.187E+01 1.232E+07 20.0422 1.00000
  2.239E+08 2.239E+08 3.838E+00 8.396E-01 1.790E+01 3.583E+01 5.457E+01 5.841E+01 1.276E+07 20.2724 1.00000
  2.512E+08 2.512E+08 3.854E+00 9.506E-01 2.012E+01 4.092E+01 6.198E+01 6.584E+01 1.320E+07 20.5027 1.00000
  2.818E+08 2.818E+08 3.871E+00 1.076E+00 2.261E+01 4.673E+01 7.041E+01 7.428E+01 1.364E+07 20.7329 1.00000
  3.162E+08 3.162E+08 3.888E+00 1.218E+00 2.540E+01 5.336E+01 7.998E+01 8.387E+01 1.408E+07 20.9632 1.00000
  3.548E+08 3.548E+08 3.905E+00 1.377E+00 2.853E+01 6.095E+01 9.086E+01 9.476E+01 1.451E+07 21.1935 1.00000
  3.981E+08 3.981E+08 3.922E+00 1.558E+00 3.205E+01 6.962E+01 1.032E+02 1.071E+02 1.494E+07 21.4237 1.00000
  4.467E+08 4.467E+08 3.938E+00 1.761E+00 3.600E+01 7.952E+01 1.173E+02 1.212E+02 1.537E+07 21.6540 1.00000
  5.012E+08 5.012E+08 3.956E+00 1.991E+00 4.043E+01 9.085E+01 1.333E+02 1.372E+02 1.579E+07 21.8842 1.00000
  5.623E+08 5.623E+08 3.973E+00 2.250E+00 4.540E+01 1.038E+02 1.514E+02 1.554E+02 1.621E+07 22.1145 1.00000
  6.310E+08 6.310E+08 3.990E+00 2.542E+00 5.099E+01 1.186E+02 1.721E+02 1.761E+02 1.663E+07 22.3447 1.00000
  7.079E+08 7.079E+08 4.007E+00 2.871E+00 5.725E+01 1.355E+02 1.956E+02 1.996E+02 1.704E+07 22.5750 1.00000
  7.943E+08 7.943E+08 4.025E+00 3.241E+00 6.428E+01 1.548E+02 2.223E+02 2.263E+02 1.745E+07 22.8053 1.00000
  8.913E+08 8.913E+08 4.042E+00 3.659E+00 7.217E+01 1.769E+02 2.527E+02 2.568E+02 1.785E+07 23.0355 1.00000
  1.000E+09 1.000E+09 4.060E+00 4.130E+00 8.102E+01 2.022E+02 2.873E+02 2.914E+02 1.825E+07 23.2658 1.00000
  1.122E+09 1.122E+09 4.077E+00 4.660E+00 9.095E+01 2.310E+02 3.266E+02 3.307E+02 1.864E+07 23.4960 1.00000
  1.259E+09 1.259E+09 4.095E+00 5.257E+00 1.021E+02 2.640E+02 3.714E+02 3.755E+02 1.903E+07 23.7263 1.00000
  1.413E+09 1.413E+09 4.113E+00 5.928E+00 1.146E+02 3.018E+02 4.223E+02 4.264E+02 1.941E+07 23.9565 1.00000
  1.585E+09 1.585E+09 4.131E+00 6.685E+00 1.286E+02 3.449E+02 4.803E+02 4.844E+02 1.979E+07 24.1868 1.00000
  1.778E+09 1.778E+09 4.149E+00 7.535E+00 1.444E+02 3.943E+02 5.462E+02 5.504E+02 2.017E+07 24.4171 1.00000
  1.995E+09 1.995E+09 4.167E+00 8.493E+00 1.620E+02 4.507E+02 6.213E+02 6.254E+02 2.054E+07 24.6473 1.00000
  2.239E+09 2.239E+09 4.186E+00 9.570E+00 1.819E+02 5.153E+02 7.067E+02 7.109E+02 2.091E+07 24.8776 1.00000
  2.512E+09 2.512E+09 4.204E+00 1.078E+01 2.041E+02 5.891E+02 8.040E+02 8.082E+02 2.127E+07 25.1078 1.00000
  2.818E+09 2.818E+09 4.222E+00 1.214E+01 2.291E+02 6.735E+02 9.148E+02 9.190E+02 2.162E+07 25.3381 1.00000
  3.162E+09 3.162E+09 4.241E+00 1.368E+01 2.571E+02 7.701E+02 1.041E+03 1.045E+03 2.198E+07 25.5684 1.00000
  3.548E+09 3.548E+09 4.260E+00 1.540E+01 2.885E+02 8.806E+02 1.184E+03 1.189E+03 2.232E+07 25.7986 1.00000
  3.981E+09 3.981E+09 4.278E+00 1.733E+01 3.238E+02 1.007E+03 1.348E+03 1.352E+03 2.266E+07 26.0289 1.00000
  4.467E+09 4.467E+09 4.297E+00 1.951E+01 3.633E+02 1.152E+03 1.534E+03 1.539E+03 2.300E+07 26.2591 1.00000
  5.012E+09 5.012E+09 4.316E+00 2.196E+01 4.077E+02 1.317E+03 1.747E+03 1.751E+03 2.333E+07 26.4894 1.00000
  5.623E+09 5.623E+09 4.335E+00 2.471E+01 4.575E+02 1.506E+03 1.988E+03 1.993E+03 2.366E+07 26.7196 1.00000
  6.310E+09 6.310E+09 4.355E+00 2.779E+01 5.134E+02 1.723E+03 2.264E+03 2.268E+03 2.399E+07 26.9499 1.00000
  7.079E+09 7.079E+09 4.374E+00 3.126E+01 5.761E+02 1.970E+03 2.578E+03 2.582E+03 2.430E+07 27.1802 1.00000
  7.943E+09 7.943E+09 4.393E+00 3.516E+01 6.465E+02 2.254E+03 2.935E+03 2.940E+03 2.462E+07 27.4104 1.00000
  8.913E+09 8.913E+09 4.413E+00 3.954E+01 7.254E+02 2.578E+03 3.343E+03 3.348E+03 2.493E+07 27.6407 1.00000
  1.000E+10 1.000E+10 4.432E+00 4.446E+01 8.140E+02 2.949E+03 3.808E+03 3.812E+03 2.523E+07 27.8709 1.00000
  1.122E+10 1.122E+10 4.452E+00 4.998E+01 9.134E+02 3.374E+03 4.338E+03 4.342E+03 2.553E+07 28.1012 1.00000
  1.259E+10 1.259E+10 4.472E+00 5.618E+01 1.025E+03 3.861E+03 4.942E+03 4.946E+03 2.583E+07 28.3315 1.00000
  1.413E+10 1.413E+10 4.492E+00 6.315E+01 1.150E+03 4.417E+03 5.630E+03 5.635E+03 2.612E+07 28.5617 1.00000
  1.585E+10 1.585E+10 4.512E+00 7.097E+01 1.290E+03 5.054E+03 6.416E+03 6.420E+03 2.641E+07 28.7920 1.00000
  1.778E+10 1.778E+10 4.532E+00 7.975E+01 1.448E+03 5.784E+03 7.311E+03 7.316E+03 2.669E+07 29.0222 1.00000
  1.995E+10 1.995E+10 4.553E+00 8.961E+01 1.625E+03 6.618E+03 8.333E+03 8.337E+03 2.697E+07 29.2525 1.00000
  2.239E+10 2.239E+10 4.573E+00 1.007E+02 1.823E+03 7.574E+03 9.498E+03 9.502E+03 2.724E+07 29.4828 1.00000
  2.512E+10 2.512E+10 4.594E+00 1.131E+02 2.045E+03 8.668E+03 1.083E+04 1.083E+04 2.751E+07 29.7130 1.00000
  2.818E+10 2.818E+10 4.614E+00 1.271E+02 2.295E+03 9.921E+03 1.234E+04 1.235E+04 2.778E+07 29.9433 1.00000
  3.162E+10 3.162E+10 4.635E+00 1.427E+02 2.575E+03 1.136E+04 1.407E+04 1.408E+04 2.804E+07 30.1735 1.00000
  3.548E+10 3.548E+10 4.656E+00 1.603E+02 2.889E+03 1.300E+04 1.605E+04 1.605E+04 2.830E+07 30.4038 1.00000
  3.981E+10 3.981E+10 4.677E+00 1.800E+02 3.242E+03 1.488E+04 1.830E+04 1.831E+04 2.855E+07 30.6340 1.00000
  4.467E+10 4.467E+10 4.698E+00 2.022E+02 3.637E+03 1.703E+04 2.087E+04 2.088E+04 2.880E+07 30.8643 1.00000
  5.012E+10 5.012E+10 4.719E+00 2.270E+02 4.081E+03 1.950E+04 2.381E+04 2.381E+04 2.905E+07 31.0946 1.00000
  5.623E+10 5.623E+10 4.741E+00 2.549E+02 4.579E+03 2.233E+04 2.716E+04 2.716E+04 2.929E+07 31.3248 1.00000
  6.310E+10 6.310E+10 4.762E+00 2.862E+02 5.138E+03 2.556E+04 3.098E+04 3.099E+04 2.952E+07 31.5551 1.00000
  7.079E+10 7.079E+10 4.784E+00 3.213E+02 5.764E+03 2.927E+04 3.535E+04 3.536E+04 2.976E+07 31.7853 1.00000
  7.943E+10 7.943E+10 4.805E+00 3.608E+02 6.468E+03 3.351E+04 4.034E+04 4.035E+04 2.999E+07 32.0156 1.00000
  8.913E+10 8.913E+10 4.827E+00 4.050E+02 7.257E+03 3.838E+04 4.604E+04 4.604E+04 3.021E+07 32.2459 1.00000
  1.000E+11 1.000E+11 4.849E+00 4.546E+02 8.142E+03 4.395E+04 5.255E+04 5.255E+04 3.043E+07 32.4761 1.00000
  1.122E+11 1.122E+11 4.871E+00 5.104E+02 9.136E+03 5.033E+04 5.998E+04 5.998E+04 3.065E+07 32.7064 1.00000
  1.259E+11 1.259E+11 4.894E+00 5.729E+02 1.025E+04 5.765E+04 6.847E+04 6.847E+04 3.086E+07 32.9366 1.00000
  1.413E+11 1.413E+11 4.916E+00 6.430E+02 1.150E+04 6.602E+04 7.817E+04 7.817E+04 3.108E+07 33.1669 1.00000
  1.585E+11 1.585E+11 4.938E+00 7.218E+02 1.290E+04 7.563E+04 8.925E+04 8.926E+04 3.128E+07 33.3971 1.00000
  1.778E+11 1.778E+11 4.961E+00 8.101E+02 1.448E+04 8.663E+04 1.019E+05 1.019E+05 3.149E+07 33.6274 1.00000
  1.995E+11 1.995E+11 4.984E+00 9.093E+02 1.624E+04 9.924E+04 1.164E+05 1.164E+05 3.168E+07 33.8577 1.00000
  2.239E+11 2.239E+11 5.007E+00 1.021E+03 1.823E+04 1.137E+05 1.329E+05 1.329E+05 3.188E+07 34.0879 1.00000
  2.512E+11 2.512E+11 5.030E+00 1.145E+03 2.045E+04 1.302E+05 1.518E+05 1.518E+05 3.207E+07 34.3182 1.00000
  2.818E+11 2.818E+11 5.053E+00 1.285E+03 2.294E+04 1.492E+05 1.735E+05 1.735E+05 3.226E+07 34.5484 1.00000
  3.162E+11 3.162E+11 5.076E+00 1.443E+03 2.574E+04 1.710E+05 1.982E+05 1.982E+05 3.245E+07 34.7787 1.00000
  3.548E+11 3.548E+11 5.099E+00 1.619E+03 2.888E+04 1.959E+05 2.264E+05 2.264E+05 3.263E+07 35.0090 1.00000
  3.981E+11 3.981E+11 5.123E+00 1.817E+03 3.241E+04 2.245E+05 2.587E+05 2.587E+05 3.281E+07 35.2392 1.00000
  4.467E+11 4.467E+11 5.147E+00 2.039E+03 3.636E+04 2.573E+05 2.957E+05 2.957E+05 3.299E+07 35.4695 1.00000
  5.012E+11 5.012E+11 5.170E+00 2.288E+03 4.079E+04 2.948E+05 3.379E+05 3.379E+05 3.316E+07 35.6997 1.00000
  5.623E+11 5.623E+11 5.194E+00 2.567E+03 4.577E+04 3.379E+05 3.862E+05 3.862E+05 3.333E+07 35.9300 1.00000
  6.310E+11 6.310E+11 5.218E+00 2.881E+03 5.135E+04 3.873E+05 4.415E+05 4.415E+05 3.350E+07 36.1602 1.00000
  7.079E+11 7.079E+11 5.242E+00 3.233E+03 5.762E+04 4.439E+05 5.047E+05 5.047E+05 3.366E+07 36.3905 1.00000
  7.943E+11 7.943E+11 5.267E+00 3.628E+03 6.464E+04 5.088E+05 5.771E+05 5.771E+05 3.382E+07 36.6208 1.00000
  8.913E+11 8.913E+11 5.291E+00 4.071E+03 7.253E+04 5.833E+05 6.599E+05 6.599E+05 3.398E+07 36.8510 1.00000
  1.000E+12 1.000E+12 5.316E+00 4.568E+03 8.138E+04 6.686E+05 7.546E+05 7.546E+05 3.413E+07 37.0813 1.00000
  1.122E+12 1.122E+12 5.340E+00 5.126E+03 9.130E+04 7.665E+05 8.630E+05 8.630E+05 3.428E+07 37.3115 1.00000
  1.259E+12 1.259E+12 5.365E+00 5.752E+03 1.024E+05 8.788E+05 9.870E+05 9.870E+05 3.443E+07 37.5418 1.00000
  1.413E+12 1.413E+12 5.390E+00 6.454E+03 1.149E+05 1.008E+06 1.129E+06 1.129E+06 3.458E+07 37.7721 1.00000
  1.585E+12 1.585E+12 5.415E+00 7.242E+03 1.290E+05 1.155E+06 1.292E+06 1.292E+06 3.472E+07 38.0023 1.00000
  1.778E+12 1.778E+12 5.441E+00 8.126E+03 1.447E+05 1.325E+06 1.478E+06 1.478E+06 3.486E+07 38.2326 1.00000
  1.995E+12 1.995E+12 5.466E+00 9.118E+03 1.623E+05 1.519E+06 1.691E+06 1.691E+06 3.500E+07 38.4628 1.00000
  2.239E+12 2.239E+12 5.492E+00 1.023E+04 1.821E+05 1.742E+06 1.934E+06 1.934E+06 3.513E+07 38.6931 1.00000
  2.512E+12 2.512E+12 5.517E+00 1.148E+04 2.043E+05 1.998E+06 2.214E+06 2.214E+06 3.527E+07 38.9233 1.00000
  2.818E+12 2.818E+12 5.543E+00 1.288E+04 2.293E+05 2.291E+06 2.534E+06 2.534E+06 3.540E+07 39.1536 1.00000
  3.162E+12 3.162E+12 5.569E+00 1.445E+04 2.572E+05 2.628E+06 2.900E+06 2.900E+06 3.552E+07 39.3839 1.00000
  3.548E+12 3.548E+12 5.595E+00 1.622E+04 2.886E+05 3.014E+06 3.319E+06 3.319E+06 3.565E+07 39.6141 1.00000
  3.981E+12 3.981E+12 5.622E+00 1.820E+04 3.238E+05 3.458E+06 3.800E+06 3.800E+06 3.577E+07 39.8444 1.00000
  4.467E+12 4.467E+12 5.648E+00 2.042E+04 3.633E+05 3.967E+06 4.350E+06 4.350E+06 3.589E+07 40.0746 1.00000
  5.012E+12 5.012E+12 5.675E+00 2.291E+04 4.076E+05 4.550E+06 4.981E+06 4.981E+06 3.601E+07 40.3049 1.00000
  5.623E+12 5.623E+12 5.701E+00 2.570E+04 4.573E+05 5.220E+06 5.703E+06 5.703E+06 3.612E+07 40.5352 1.00000
  6.310E+12 6.310E+12 5.728E+00 2.884E+04 5.131E+05 5.989E+06 6.531E+06 6.531E+06 3.623E+07 40.7654 1.00000
  7.079E+12 7.079E+12 5.755E+00 3.236E+04 5.757E+05 6.872E+06 7.480E+06 7.480E+06 3.634E+07 40.9957 1.00000
  7.943E+12 7.943E+12 5.782E+00 3.631E+04 6.459E+05 7.885E+06 8.567E+06 8.567E+06 3.645E+07 41.2259 1.00000
  8.913E+12 8.913E+12 5.809E+00 4.074E+04 7.247E+05 9.047E+06 9.813E+06 9.813E+06 3.656E+07 41.4562 1.00000
  1.000E+13 1.000E+13 5.837E+00 4.571E+04 8.131E+05 1.038E+07 1.124E+07 1.124E+07 3.666E+07 41.6865 1.00000
  1.122E+13 1.122E+13 5.864E+00 5.129E+04 9.122E+05 1.191E+07 1.288E+07 1.288E+07 3.676E+07 41.9167 1.00000
  1.259E+13 1.259E+13 5.892E+00 5.755E+04 1.023E+06 1.367E+07 1.475E+07 1.475E+07 3.686E+07 42.1470 1.00000
  1.413E+13 1.413E+13 5.920E+00 6.457E+04 1.148E+06 1.569E+07 1.691E+07 1.691E+07 3.696E+07 42.3772 1.00000
  1.585E+13 1.585E+13 5.948E+00 7.245E+04 1.288E+06 1.801E+07 1.937E+07 1.937E+07 3.706E+07 42.6075 1.00000
  1.778E+13 1.778E+13 5.976E+00 8.129E+04 1.445E+06 2.067E+07 2.220E+07 2.220E+07 3.715E+07 42.8377 1.00000
  1.995E+13 1.995E+13 6.005E+00 9.121E+04 1.622E+06 2.373E+07 2.544E+07 2.544E+07 3.724E+07 43.0680 1.00000
  2.239E+13 2.239E+13 6.033E+00 1.023E+05 1.820E+06 2.724E+07 2.916E+07 2.916E+07 3.733E+07 43.2983 1.00000
  2.512E+13 2.512E+13 6.062E+00 1.148E+05 2.041E+06 3.127E+07 3.343E+07 3.343E+07 3.742E+07 43.5285 1.00000
  2.818E+13 2.818E+13 6.091E+00 1.288E+05 2.290E+06 3.590E+07 3.832E+07 3.832E+07 3.750E+07 43.7588 1.00000
  3.162E+13 3.162E+13 6.120E+00 1.446E+05 2.570E+06 4.121E+07 4.393E+07 4.393E+07 3.759E+07 43.9890 1.00000
  3.548E+13 3.548E+13 6.149E+00 1.622E+05 2.883E+06 4.732E+07 5.036E+07 5.036E+07 3.767E+07 44.2193 1.00000
  3.981E+13 3.981E+13 6.178E+00 1.820E+05 3.235E+06 5.433E+07 5.775E+07 5.775E+07 3.775E+07 44.4496 1.00000
  4.467E+13 4.467E+13 6.207E+00 2.042E+05 3.629E+06 6.238E+07 6.622E+07 6.622E+07 3.783E+07 44.6798 1.00000
  5.012E+13 5.012E+13 6.237E+00 2.291E+05 4.072E+06 7.163E+07 7.593E+07 7.593E+07 3.791E+07 44.9101 1.00000
  5.623E+13 5.623E+13 6.267E+00 2.571E+05 4.569E+06 8.226E+07 8.708E+07 8.708E+07 3.798E+07 45.1403 1.00000
  6.310E+13 6.310E+13 6.297E+00 2.885E+05 5.126E+06 9.447E+07 9.988E+07 9.988E+07 3.806E+07 45.3706 1.00000
  7.079E+13 7.079E+13 6.327E+00 3.237E+05 5.751E+06 1.085E+08 1.146E+08 1.146E+08 3.813E+07 45.6008 1.00000
  7.943E+13 7.943E+13 6.357E+00 3.631E+05 6.452E+06 1.246E+08 1.314E+08 1.314E+08 3.820E+07 45.8311 1.00000
  8.913E+13 8.913E+13 6.387E+00 4.075E+05 7.239E+06 1.431E+08 1.508E+08 1.508E+08 3.827E+07 46.0614 1.00000
