 Incident particle is a Tau with M = 1776.82000 MeV
 Index = 0: Neodymium
      Absorber with <Z/A> = 0.41597
 Sternheimer coef:  a     k=m_s   x_0    x_1    I[eV]   Cbar  delta0
                 0.2353  2.7050  0.1950  3.3029  546.0  5.8135 0.14

 *** Table generated with PUMAS v1.00 ***

      T         p     Ionization  brems     pair     photonuc  Radloss    dE/dx   CSDA Range  delta   beta
    [MeV]    [MeV/c]  -----------------------[MeV cm^2/g]------------------------  [g/cm^2]
  1.000E+05 1.018E+05 1.683E+00 8.266E-04 1.438E-02 7.642E-03 2.285E-02 1.706E+00 2.931E+04  3.0453 0.99985
  1.122E+05 1.140E+05 1.702E+00 9.581E-04 1.723E-02 8.583E-03 2.677E-02 1.729E+00 3.641E+04  3.2079 0.99988
  1.259E+05 1.277E+05 1.721E+00 1.110E-03 2.057E-02 9.590E-03 3.127E-02 1.752E+00 4.428E+04  3.3742 0.99990
  1.413E+05 1.430E+05 1.740E+00 1.285E-03 2.449E-02 1.072E-02 3.650E-02 1.776E+00 5.298E+04  3.5442 0.99992
  1.585E+05 1.603E+05 1.758E+00 1.487E-03 2.909E-02 1.197E-02 4.255E-02 1.801E+00 6.262E+04  3.7179 0.99994
  1.778E+05 1.796E+05 1.777E+00 1.719E-03 3.447E-02 1.336E-02 4.955E-02 1.826E+00 7.328E+04  3.8950 0.99995
  1.995E+05 2.013E+05 1.795E+00 1.987E-03 4.074E-02 1.495E-02 5.768E-02 1.852E+00 8.508E+04  4.0755 0.99996
  2.239E+05 2.256E+05 1.813E+00 2.295E-03 4.805E-02 1.666E-02 6.701E-02 1.880E+00 9.813E+04  4.2593 0.99997
  2.512E+05 2.530E+05 1.830E+00 2.650E-03 5.654E-02 1.858E-02 7.778E-02 1.908E+00 1.126E+05  4.4463 0.99998
  2.818E+05 2.836E+05 1.848E+00 3.057E-03 6.640E-02 2.073E-02 9.019E-02 1.938E+00 1.285E+05  4.6364 0.99998
  3.162E+05 3.180E+05 1.865E+00 3.526E-03 7.781E-02 2.315E-02 1.045E-01 1.970E+00 1.461E+05  4.8295 0.99998
  3.548E+05 3.566E+05 1.883E+00 4.063E-03 9.101E-02 2.585E-02 1.209E-01 2.004E+00 1.655E+05  5.0255 0.99999
  3.981E+05 3.999E+05 1.900E+00 4.681E-03 1.062E-01 2.886E-02 1.398E-01 2.040E+00 1.869E+05  5.2244 0.99999
  4.467E+05 4.485E+05 1.917E+00 5.389E-03 1.238E-01 3.221E-02 1.614E-01 2.078E+00 2.105E+05  5.4259 0.99999
  5.012E+05 5.030E+05 1.933E+00 6.201E-03 1.440E-01 3.598E-02 1.862E-01 2.119E+00 2.365E+05  5.6300 0.99999
  5.623E+05 5.641E+05 1.950E+00 7.132E-03 1.672E-01 4.003E-02 2.144E-01 2.164E+00 2.651E+05  5.8365 1.00000
  6.310E+05 6.327E+05 1.966E+00 8.199E-03 1.939E-01 4.459E-02 2.467E-01 2.213E+00 2.964E+05  6.0455 1.00000
  7.079E+05 7.097E+05 1.982E+00 9.420E-03 2.245E-01 4.971E-02 2.836E-01 2.266E+00 3.308E+05  6.2568 1.00000
  7.943E+05 7.961E+05 1.998E+00 1.082E-02 2.595E-01 5.549E-02 3.258E-01 2.324E+00 3.684E+05  6.4702 1.00000
  8.913E+05 8.930E+05 2.014E+00 1.242E-02 2.995E-01 6.200E-02 3.740E-01 2.388E+00 4.096E+05  6.6856 1.00000
  1.000E+06 1.002E+06 2.029E+00 1.425E-02 3.453E-01 6.934E-02 4.289E-01 2.458E+00 4.545E+05  6.9030 1.00000
  1.122E+06 1.124E+06 2.045E+00 1.634E-02 3.975E-01 7.764E-02 4.915E-01 2.536E+00 5.034E+05  7.1222 1.00000
  1.259E+06 1.261E+06 2.060E+00 1.873E-02 4.570E-01 8.702E-02 5.627E-01 2.623E+00 5.564E+05  7.3431 1.00000
  1.413E+06 1.414E+06 2.075E+00 2.147E-02 5.247E-01 9.763E-02 6.438E-01 2.719E+00 6.140E+05  7.5656 1.00000
  1.585E+06 1.587E+06 2.090E+00 2.459E-02 6.018E-01 1.096E-01 7.360E-01 2.826E+00 6.762E+05  7.7896 1.00000
  1.778E+06 1.780E+06 2.104E+00 2.815E-02 6.894E-01 1.233E-01 8.408E-01 2.945E+00 7.432E+05  8.0149 1.00000
  1.995E+06 1.997E+06 2.119E+00 3.222E-02 7.889E-01 1.387E-01 9.598E-01 3.079E+00 8.153E+05  8.2414 1.00000
  2.239E+06 2.240E+06 2.133E+00 3.686E-02 9.018E-01 1.562E-01 1.095E+00 3.228E+00 8.926E+05  8.4689 1.00000
  2.512E+06 2.514E+06 2.147E+00 4.215E-02 1.030E+00 1.761E-01 1.248E+00 3.395E+00 9.751E+05  8.6973 1.00000
  2.818E+06 2.820E+06 2.161E+00 4.818E-02 1.175E+00 1.986E-01 1.422E+00 3.583E+00 1.063E+06  8.9264 1.00000
  3.162E+06 3.164E+06 2.175E+00 5.506E-02 1.339E+00 2.243E-01 1.618E+00 3.793E+00 1.156E+06  9.1561 1.00000
  3.548E+06 3.550E+06 2.188E+00 6.289E-02 1.524E+00 2.534E-01 1.841E+00 4.029E+00 1.255E+06  9.3862 1.00000
  3.981E+06 3.983E+06 2.202E+00 7.181E-02 1.734E+00 2.865E-01 2.093E+00 4.295E+00 1.359E+06  9.6164 1.00000
  4.467E+06 4.469E+06 2.215E+00 8.197E-02 1.972E+00 3.242E-01 2.378E+00 4.593E+00 1.469E+06  9.8465 1.00000
  5.012E+06 5.014E+06 2.229E+00 9.353E-02 2.240E+00 3.671E-01 2.700E+00 4.929E+00 1.583E+06 10.0767 1.00000
  5.623E+06 5.625E+06 2.242E+00 1.067E-01 2.542E+00 4.159E-01 3.064E+00 5.306E+00 1.703E+06 10.3069 1.00000
  6.310E+06 6.311E+06 2.255E+00 1.217E-01 2.883E+00 4.714E-01 3.476E+00 5.731E+00 1.827E+06 10.5371 1.00000
  7.079E+06 7.081E+06 2.267E+00 1.387E-01 3.268E+00 5.347E-01 3.941E+00 6.208E+00 1.957E+06 10.7673 1.00000
  7.943E+06 7.945E+06 2.280E+00 1.580E-01 3.701E+00 6.067E-01 4.466E+00 6.746E+00 2.090E+06 10.9975 1.00000
  8.913E+06 8.914E+06 2.293E+00 1.800E-01 4.190E+00 6.888E-01 5.059E+00 7.351E+00 2.228E+06 11.2277 1.00000
  1.000E+07 1.000E+07 2.305E+00 2.049E-01 4.740E+00 7.823E-01 5.728E+00 8.033E+00 2.370E+06 11.4579 1.00000
  1.122E+07 1.122E+07 2.317E+00 2.333E-01 5.360E+00 8.889E-01 6.482E+00 8.800E+00 2.515E+06 11.6881 1.00000
  1.259E+07 1.259E+07 2.330E+00 2.655E-01 6.058E+00 1.010E+00 7.334E+00 9.663E+00 2.664E+06 11.9183 1.00000
  1.413E+07 1.413E+07 2.342E+00 3.020E-01 6.843E+00 1.149E+00 8.294E+00 1.064E+01 2.815E+06 12.1486 1.00000
  1.585E+07 1.585E+07 2.354E+00 3.434E-01 7.726E+00 1.307E+00 9.376E+00 1.173E+01 2.970E+06 12.3788 1.00000
  1.778E+07 1.778E+07 2.366E+00 3.904E-01 8.719E+00 1.487E+00 1.060E+01 1.296E+01 3.127E+06 12.6090 1.00000
  1.995E+07 1.995E+07 2.378E+00 4.437E-01 9.837E+00 1.693E+00 1.197E+01 1.435E+01 3.286E+06 12.8393 1.00000
  2.239E+07 2.239E+07 2.389E+00 5.040E-01 1.109E+01 1.927E+00 1.352E+01 1.591E+01 3.447E+06 13.0695 1.00000
  2.512E+07 2.512E+07 2.401E+00 5.724E-01 1.250E+01 2.194E+00 1.527E+01 1.767E+01 3.611E+06 13.2997 1.00000
  2.818E+07 2.819E+07 2.413E+00 6.499E-01 1.409E+01 2.499E+00 1.724E+01 1.965E+01 3.775E+06 13.5300 1.00000
  3.162E+07 3.162E+07 2.424E+00 7.376E-01 1.587E+01 2.848E+00 1.946E+01 2.188E+01 3.941E+06 13.7602 1.00000
  3.548E+07 3.548E+07 2.436E+00 8.369E-01 1.788E+01 3.245E+00 2.196E+01 2.440E+01 4.109E+06 13.9905 1.00000
  3.981E+07 3.981E+07 2.448E+00 9.493E-01 2.013E+01 3.698E+00 2.478E+01 2.722E+01 4.277E+06 14.2207 1.00000
  4.467E+07 4.467E+07 2.459E+00 1.076E+00 2.266E+01 4.216E+00 2.795E+01 3.041E+01 4.446E+06 14.4510 1.00000
  5.012E+07 5.012E+07 2.471E+00 1.220E+00 2.550E+01 4.806E+00 3.152E+01 3.400E+01 4.616E+06 14.6812 1.00000
  5.623E+07 5.624E+07 2.482E+00 1.383E+00 2.869E+01 5.481E+00 3.555E+01 3.803E+01 4.786E+06 14.9115 1.00000
  6.310E+07 6.310E+07 2.494E+00 1.566E+00 3.227E+01 6.250E+00 4.009E+01 4.258E+01 4.957E+06 15.1417 1.00000
  7.079E+07 7.080E+07 2.505E+00 1.774E+00 3.629E+01 7.129E+00 4.519E+01 4.770E+01 5.128E+06 15.3720 1.00000
  7.943E+07 7.943E+07 2.517E+00 2.008E+00 4.081E+01 8.133E+00 5.095E+01 5.347E+01 5.299E+06 15.6022 1.00000
  8.913E+07 8.913E+07 2.529E+00 2.273E+00 4.588E+01 9.278E+00 5.743E+01 5.996E+01 5.471E+06 15.8325 1.00000
  1.000E+08 1.000E+08 2.540E+00 2.572E+00 5.157E+01 1.059E+01 6.473E+01 6.727E+01 5.642E+06 16.0627 1.00000
  1.122E+08 1.122E+08 2.552E+00 2.909E+00 5.796E+01 1.208E+01 7.295E+01 7.550E+01 5.814E+06 16.2930 1.00000
  1.259E+08 1.259E+08 2.564E+00 3.289E+00 6.513E+01 1.379E+01 8.221E+01 8.477E+01 5.985E+06 16.5232 1.00000
  1.413E+08 1.413E+08 2.575E+00 3.718E+00 7.318E+01 1.574E+01 9.264E+01 9.522E+01 6.156E+06 16.7535 1.00000
  1.585E+08 1.585E+08 2.587E+00 4.202E+00 8.222E+01 1.796E+01 1.044E+02 1.070E+02 6.327E+06 16.9838 1.00000
  1.778E+08 1.778E+08 2.599E+00 4.747E+00 9.237E+01 2.051E+01 1.176E+02 1.202E+02 6.498E+06 17.2140 1.00000
  1.995E+08 1.995E+08 2.611E+00 5.362E+00 1.038E+02 2.341E+01 1.325E+02 1.351E+02 6.669E+06 17.4443 1.00000
  2.239E+08 2.239E+08 2.622E+00 6.054E+00 1.165E+02 2.673E+01 1.493E+02 1.519E+02 6.839E+06 17.6745 1.00000
  2.512E+08 2.512E+08 2.634E+00 6.834E+00 1.309E+02 3.052E+01 1.682E+02 1.709E+02 7.009E+06 17.9048 1.00000
  2.818E+08 2.818E+08 2.646E+00 7.713E+00 1.470E+02 3.485E+01 1.895E+02 1.922E+02 7.178E+06 18.1350 1.00000
  3.162E+08 3.162E+08 2.658E+00 8.702E+00 1.650E+02 3.980E+01 2.135E+02 2.162E+02 7.347E+06 18.3653 1.00000
  3.548E+08 3.548E+08 2.670E+00 9.816E+00 1.853E+02 4.546E+01 2.406E+02 2.432E+02 7.516E+06 18.5956 1.00000
  3.981E+08 3.981E+08 2.682E+00 1.107E+01 2.080E+02 5.192E+01 2.710E+02 2.737E+02 7.684E+06 18.8258 1.00000
  4.467E+08 4.467E+08 2.695E+00 1.248E+01 2.336E+02 5.931E+01 3.054E+02 3.080E+02 7.851E+06 19.0561 1.00000
  5.012E+08 5.012E+08 2.707E+00 1.407E+01 2.622E+02 6.775E+01 3.440E+02 3.467E+02 8.019E+06 19.2863 1.00000
  5.623E+08 5.623E+08 2.719E+00 1.585E+01 2.943E+02 7.740E+01 3.876E+02 3.903E+02 8.185E+06 19.5166 1.00000
  6.310E+08 6.310E+08 2.731E+00 1.786E+01 3.304E+02 8.843E+01 4.367E+02 4.394E+02 8.351E+06 19.7468 1.00000
  7.079E+08 7.079E+08 2.744E+00 2.012E+01 3.709E+02 1.010E+02 4.920E+02 4.948E+02 8.516E+06 19.9771 1.00000
  7.943E+08 7.943E+08 2.756E+00 2.266E+01 4.163E+02 1.154E+02 5.544E+02 5.571E+02 8.681E+06 20.2074 1.00000
  8.913E+08 8.913E+08 2.769E+00 2.551E+01 4.672E+02 1.319E+02 6.247E+02 6.274E+02 8.845E+06 20.4376 1.00000
  1.000E+09 1.000E+09 2.782E+00 2.872E+01 5.244E+02 1.507E+02 7.039E+02 7.067E+02 9.009E+06 20.6679 1.00000
  1.122E+09 1.122E+09 2.794E+00 3.232E+01 5.886E+02 1.723E+02 7.932E+02 7.960E+02 9.172E+06 20.8981 1.00000
  1.259E+09 1.259E+09 2.807E+00 3.637E+01 6.606E+02 1.969E+02 8.938E+02 8.966E+02 9.334E+06 21.1284 1.00000
  1.413E+09 1.413E+09 2.820E+00 4.092E+01 7.413E+02 2.250E+02 1.007E+03 1.010E+03 9.496E+06 21.3586 1.00000
  1.585E+09 1.585E+09 2.833E+00 4.603E+01 8.320E+02 2.572E+02 1.135E+03 1.138E+03 9.657E+06 21.5889 1.00000
  1.778E+09 1.778E+09 2.846E+00 5.178E+01 9.337E+02 2.940E+02 1.279E+03 1.282E+03 9.818E+06 21.8192 1.00000
  1.995E+09 1.995E+09 2.859E+00 5.823E+01 1.048E+03 3.361E+02 1.442E+03 1.445E+03 9.977E+06 22.0494 1.00000
  2.239E+09 2.239E+09 2.872E+00 6.548E+01 1.176E+03 3.842E+02 1.625E+03 1.628E+03 1.014E+07 22.2797 1.00000
  2.512E+09 2.512E+09 2.885E+00 7.361E+01 1.319E+03 4.393E+02 1.832E+03 1.835E+03 1.029E+07 22.5099 1.00000
  2.818E+09 2.818E+09 2.898E+00 8.275E+01 1.481E+03 5.022E+02 2.066E+03 2.068E+03 1.045E+07 22.7402 1.00000
  3.162E+09 3.162E+09 2.911E+00 9.301E+01 1.661E+03 5.742E+02 2.329E+03 2.332E+03 1.061E+07 22.9705 1.00000
  3.548E+09 3.548E+09 2.925E+00 1.045E+02 1.864E+03 6.566E+02 2.626E+03 2.628E+03 1.077E+07 23.2007 1.00000
  3.981E+09 3.981E+09 2.938E+00 1.175E+02 2.092E+03 7.508E+02 2.960E+03 2.963E+03 1.092E+07 23.4310 1.00000
  4.467E+09 4.467E+09 2.952E+00 1.320E+02 2.348E+03 8.586E+02 3.338E+03 3.341E+03 1.108E+07 23.6612 1.00000
  5.012E+09 5.012E+09 2.965E+00 1.483E+02 2.634E+03 9.819E+02 3.764E+03 3.767E+03 1.123E+07 23.8915 1.00000
  5.623E+09 5.623E+09 2.979E+00 1.666E+02 2.956E+03 1.123E+03 4.245E+03 4.248E+03 1.138E+07 24.1217 1.00000
  6.310E+09 6.310E+09 2.993E+00 1.871E+02 3.317E+03 1.284E+03 4.788E+03 4.791E+03 1.153E+07 24.3520 1.00000
  7.079E+09 7.079E+09 3.007E+00 2.102E+02 3.722E+03 1.469E+03 5.401E+03 5.404E+03 1.169E+07 24.5823 1.00000
  7.943E+09 7.943E+09 3.021E+00 2.361E+02 4.176E+03 1.680E+03 6.092E+03 6.095E+03 1.184E+07 24.8125 1.00000
  8.913E+09 8.913E+09 3.035E+00 2.651E+02 4.685E+03 1.922E+03 6.873E+03 6.876E+03 1.199E+07 25.0428 1.00000
  1.000E+10 1.000E+10 3.049E+00 2.978E+02 5.257E+03 2.199E+03 7.754E+03 7.757E+03 1.214E+07 25.2730 1.00000
  1.122E+10 1.122E+10 3.063E+00 3.343E+02 5.899E+03 2.516E+03 8.749E+03 8.752E+03 1.228E+07 25.5033 1.00000
  1.259E+10 1.259E+10 3.077E+00 3.754E+02 6.619E+03 2.878E+03 9.873E+03 9.876E+03 1.243E+07 25.7336 1.00000
  1.413E+10 1.413E+10 3.092E+00 4.215E+02 7.427E+03 3.293E+03 1.114E+04 1.114E+04 1.258E+07 25.9638 1.00000
  1.585E+10 1.585E+10 3.106E+00 4.732E+02 8.333E+03 3.768E+03 1.257E+04 1.258E+04 1.272E+07 26.1941 1.00000
  1.778E+10 1.778E+10 3.120E+00 5.313E+02 9.350E+03 4.312E+03 1.419E+04 1.420E+04 1.287E+07 26.4243 1.00000
  1.995E+10 1.995E+10 3.135E+00 5.965E+02 1.049E+04 4.935E+03 1.602E+04 1.602E+04 1.301E+07 26.6546 1.00000
  2.239E+10 2.239E+10 3.150E+00 6.696E+02 1.177E+04 5.647E+03 1.809E+04 1.809E+04 1.316E+07 26.8849 1.00000
  2.512E+10 2.512E+10 3.164E+00 7.516E+02 1.321E+04 6.463E+03 2.042E+04 2.042E+04 1.330E+07 27.1151 1.00000
  2.818E+10 2.818E+10 3.179E+00 8.437E+02 1.482E+04 7.397E+03 2.306E+04 2.306E+04 1.344E+07 27.3454 1.00000
  3.162E+10 3.162E+10 3.194E+00 9.470E+02 1.663E+04 8.467E+03 2.604E+04 2.604E+04 1.358E+07 27.5756 1.00000
  3.548E+10 3.548E+10 3.209E+00 1.063E+03 1.866E+04 9.691E+03 2.941E+04 2.941E+04 1.372E+07 27.8059 1.00000
  3.981E+10 3.981E+10 3.224E+00 1.193E+03 2.093E+04 1.109E+04 3.322E+04 3.322E+04 1.386E+07 28.0361 1.00000
  4.467E+10 4.467E+10 3.239E+00 1.339E+03 2.349E+04 1.270E+04 3.752E+04 3.753E+04 1.400E+07 28.2664 1.00000
  5.012E+10 5.012E+10 3.255E+00 1.503E+03 2.635E+04 1.454E+04 4.239E+04 4.240E+04 1.413E+07 28.4967 1.00000
  5.623E+10 5.623E+10 3.270E+00 1.687E+03 2.957E+04 1.665E+04 4.790E+04 4.790E+04 1.427E+07 28.7269 1.00000
  6.310E+10 6.310E+10 3.285E+00 1.893E+03 3.317E+04 1.906E+04 5.412E+04 5.413E+04 1.441E+07 28.9572 1.00000
  7.079E+10 7.079E+10 3.301E+00 2.124E+03 3.722E+04 2.182E+04 6.117E+04 6.117E+04 1.454E+07 29.1874 1.00000
  7.943E+10 7.943E+10 3.316E+00 2.384E+03 4.176E+04 2.499E+04 6.913E+04 6.913E+04 1.467E+07 29.4177 1.00000
  8.913E+10 8.913E+10 3.332E+00 2.675E+03 4.685E+04 2.861E+04 7.814E+04 7.815E+04 1.480E+07 29.6480 1.00000
  1.000E+11 1.000E+11 3.348E+00 3.002E+03 5.257E+04 3.277E+04 8.834E+04 8.834E+04 1.494E+07 29.8782 1.00000
  1.122E+11 1.122E+11 3.364E+00 3.369E+03 5.898E+04 3.753E+04 9.988E+04 9.988E+04 1.507E+07 30.1085 1.00000
  1.259E+11 1.259E+11 3.380E+00 3.780E+03 6.618E+04 4.298E+04 1.129E+05 1.129E+05 1.520E+07 30.3387 1.00000
  1.413E+11 1.413E+11 3.396E+00 4.242E+03 7.425E+04 4.923E+04 1.277E+05 1.277E+05 1.532E+07 30.5690 1.00000
  1.585E+11 1.585E+11 3.412E+00 4.760E+03 8.331E+04 5.639E+04 1.445E+05 1.445E+05 1.545E+07 30.7992 1.00000
  1.778E+11 1.778E+11 3.428E+00 5.342E+03 9.347E+04 6.459E+04 1.634E+05 1.634E+05 1.558E+07 31.0295 1.00000
  1.995E+11 1.995E+11 3.444E+00 5.994E+03 1.049E+05 7.399E+04 1.849E+05 1.849E+05 1.570E+07 31.2598 1.00000
  2.239E+11 2.239E+11 3.461E+00 6.726E+03 1.177E+05 8.476E+04 2.092E+05 2.092E+05 1.583E+07 31.4900 1.00000
  2.512E+11 2.512E+11 3.477E+00 7.547E+03 1.320E+05 9.711E+04 2.367E+05 2.367E+05 1.595E+07 31.7203 1.00000
  2.818E+11 2.818E+11 3.494E+00 8.468E+03 1.481E+05 1.113E+05 2.679E+05 2.679E+05 1.607E+07 31.9505 1.00000
  3.162E+11 3.162E+11 3.510E+00 9.502E+03 1.662E+05 1.275E+05 3.032E+05 3.032E+05 1.619E+07 32.1808 1.00000
  3.548E+11 3.548E+11 3.527E+00 1.066E+04 1.865E+05 1.461E+05 3.432E+05 3.432E+05 1.631E+07 32.4111 1.00000
  3.981E+11 3.981E+11 3.544E+00 1.196E+04 2.092E+05 1.674E+05 3.886E+05 3.886E+05 1.643E+07 32.6413 1.00000
  4.467E+11 4.467E+11 3.561E+00 1.342E+04 2.347E+05 1.918E+05 4.400E+05 4.400E+05 1.655E+07 32.8716 1.00000
  5.012E+11 5.012E+11 3.578E+00 1.506E+04 2.634E+05 2.198E+05 4.983E+05 4.983E+05 1.666E+07 33.1018 1.00000
  5.623E+11 5.623E+11 3.595E+00 1.690E+04 2.955E+05 2.519E+05 5.643E+05 5.643E+05 1.678E+07 33.3321 1.00000
  6.310E+11 6.310E+11 3.612E+00 1.896E+04 3.315E+05 2.888E+05 6.393E+05 6.393E+05 1.689E+07 33.5623 1.00000
  7.079E+11 7.079E+11 3.630E+00 2.128E+04 3.720E+05 3.310E+05 7.242E+05 7.242E+05 1.701E+07 33.7926 1.00000
  7.943E+11 7.943E+11 3.647E+00 2.388E+04 4.174E+05 3.794E+05 8.206E+05 8.206E+05 1.712E+07 34.0229 1.00000
  8.913E+11 8.913E+11 3.665E+00 2.679E+04 4.683E+05 4.349E+05 9.299E+05 9.299E+05 1.723E+07 34.2531 1.00000
  1.000E+12 1.000E+12 3.682E+00 3.006E+04 5.254E+05 4.985E+05 1.054E+06 1.054E+06 1.734E+07 34.4834 1.00000
  1.122E+12 1.122E+12 3.700E+00 3.373E+04 5.895E+05 5.715E+05 1.195E+06 1.195E+06 1.745E+07 34.7136 1.00000
  1.259E+12 1.259E+12 3.718E+00 3.784E+04 6.614E+05 6.552E+05 1.354E+06 1.354E+06 1.756E+07 34.9439 1.00000
  1.413E+12 1.413E+12 3.736E+00 4.246E+04 7.420E+05 7.513E+05 1.536E+06 1.536E+06 1.766E+07 35.1742 1.00000
  1.585E+12 1.585E+12 3.754E+00 4.764E+04 8.326E+05 8.614E+05 1.742E+06 1.742E+06 1.777E+07 35.4044 1.00000
  1.778E+12 1.778E+12 3.772E+00 5.346E+04 9.341E+05 9.877E+05 1.975E+06 1.975E+06 1.787E+07 35.6347 1.00000
  1.995E+12 1.995E+12 3.790E+00 5.998E+04 1.048E+06 1.133E+06 2.241E+06 2.241E+06 1.798E+07 35.8649 1.00000
  2.239E+12 2.239E+12 3.808E+00 6.730E+04 1.176E+06 1.299E+06 2.542E+06 2.542E+06 1.808E+07 36.0952 1.00000
  2.512E+12 2.512E+12 3.827E+00 7.551E+04 1.319E+06 1.490E+06 2.884E+06 2.884E+06 1.818E+07 36.3254 1.00000
  2.818E+12 2.818E+12 3.845E+00 8.473E+04 1.480E+06 1.708E+06 3.273E+06 3.273E+06 1.828E+07 36.5557 1.00000
  3.162E+12 3.162E+12 3.864E+00 9.507E+04 1.661E+06 1.960E+06 3.715E+06 3.715E+06 1.838E+07 36.7860 1.00000
  3.548E+12 3.548E+12 3.883E+00 1.067E+05 1.863E+06 2.248E+06 4.218E+06 4.218E+06 1.848E+07 37.0162 1.00000
  3.981E+12 3.981E+12 3.902E+00 1.197E+05 2.091E+06 2.578E+06 4.788E+06 4.788E+06 1.857E+07 37.2465 1.00000
  4.467E+12 4.467E+12 3.920E+00 1.343E+05 2.346E+06 2.957E+06 5.437E+06 5.437E+06 1.867E+07 37.4767 1.00000
  5.012E+12 5.012E+12 3.939E+00 1.507E+05 2.632E+06 3.393E+06 6.175E+06 6.175E+06 1.876E+07 37.7070 1.00000
  5.623E+12 5.623E+12 3.959E+00 1.691E+05 2.953E+06 3.892E+06 7.014E+06 7.014E+06 1.886E+07 37.9373 1.00000
  6.310E+12 6.310E+12 3.978E+00 1.897E+05 3.313E+06 4.466E+06 7.968E+06 7.968E+06 1.895E+07 38.1675 1.00000
  7.079E+12 7.079E+12 3.997E+00 2.128E+05 3.717E+06 5.124E+06 9.053E+06 9.053E+06 1.904E+07 38.3978 1.00000
  7.943E+12 7.943E+12 4.017E+00 2.388E+05 4.170E+06 5.879E+06 1.029E+07 1.029E+07 1.913E+07 38.6280 1.00000
  8.913E+12 8.913E+12 4.036E+00 2.679E+05 4.679E+06 6.746E+06 1.169E+07 1.169E+07 1.922E+07 38.8583 1.00000
  1.000E+13 1.000E+13 4.056E+00 3.006E+05 5.249E+06 7.741E+06 1.329E+07 1.329E+07 1.931E+07 39.0886 1.00000
  1.122E+13 1.122E+13 4.076E+00 3.373E+05 5.890E+06 8.883E+06 1.511E+07 1.511E+07 1.939E+07 39.3188 1.00000
  1.259E+13 1.259E+13 4.096E+00 3.785E+05 6.608E+06 1.019E+07 1.718E+07 1.718E+07 1.948E+07 39.5491 1.00000
  1.413E+13 1.413E+13 4.116E+00 4.247E+05 7.414E+06 1.170E+07 1.954E+07 1.954E+07 1.956E+07 39.7793 1.00000
  1.585E+13 1.585E+13 4.136E+00 4.765E+05 8.318E+06 1.343E+07 2.222E+07 2.222E+07 1.964E+07 40.0096 1.00000
  1.778E+13 1.778E+13 4.156E+00 5.346E+05 9.332E+06 1.541E+07 2.528E+07 2.528E+07 1.973E+07 40.2398 1.00000
  1.995E+13 1.995E+13 4.176E+00 5.999E+05 1.047E+07 1.769E+07 2.876E+07 2.876E+07 1.981E+07 40.4701 1.00000
  2.239E+13 2.239E+13 4.197E+00 6.731E+05 1.175E+07 2.031E+07 3.273E+07 3.273E+07 1.989E+07 40.7004 1.00000
  2.512E+13 2.512E+13 4.217E+00 7.552E+05 1.318E+07 2.331E+07 3.725E+07 3.725E+07 1.996E+07 40.9306 1.00000
  2.818E+13 2.818E+13 4.238E+00 8.473E+05 1.479E+07 2.676E+07 4.240E+07 4.240E+07 2.004E+07 41.1609 1.00000
  3.162E+13 3.162E+13 4.259E+00 9.507E+05 1.659E+07 3.073E+07 4.827E+07 4.827E+07 2.012E+07 41.3911 1.00000
  3.548E+13 3.548E+13 4.279E+00 1.067E+06 1.861E+07 3.528E+07 5.496E+07 5.496E+07 2.019E+07 41.6214 1.00000
  3.981E+13 3.981E+13 4.300E+00 1.197E+06 2.088E+07 4.051E+07 6.259E+07 6.259E+07 2.027E+07 41.8517 1.00000
  4.467E+13 4.467E+13 4.322E+00 1.343E+06 2.343E+07 4.651E+07 7.129E+07 7.129E+07 2.034E+07 42.0819 1.00000
  5.012E+13 5.012E+13 4.343E+00 1.507E+06 2.629E+07 5.341E+07 8.121E+07 8.121E+07 2.041E+07 42.3122 1.00000
  5.623E+13 5.623E+13 4.364E+00 1.691E+06 2.950E+07 6.133E+07 9.252E+07 9.252E+07 2.048E+07 42.5424 1.00000
  6.310E+13 6.310E+13 4.386E+00 1.897E+06 3.309E+07 7.043E+07 1.054E+08 1.054E+08 2.055E+07 42.7727 1.00000
  7.079E+13 7.079E+13 4.407E+00 2.128E+06 3.713E+07 8.089E+07 1.201E+08 1.201E+08 2.062E+07 43.0029 1.00000
  7.943E+13 7.943E+13 4.429E+00 2.388E+06 4.166E+07 9.290E+07 1.369E+08 1.369E+08 2.069E+07 43.2332 1.00000
  8.913E+13 8.913E+13 4.451E+00 2.680E+06 4.674E+07 1.067E+08 1.561E+08 1.561E+08 2.075E+07 43.4635 1.00000
