 Incident particle is a Tau with M = 1776.82000 MeV
 Index = 0: Neptunium
      Absorber with <Z/A> = 0.39233
 Sternheimer coef:  a     k=m_s   x_0    x_1    I[eV]   Cbar  delta0
                 0.1974  2.8082  0.1869  3.3690  902.0  5.8149 0.14

 *** Table generated with PUMAS v1.00 ***

      T         p     Ionization  brems     pair     photonuc  Radloss    dE/dx   CSDA Range  delta   beta
    [MeV]    [MeV/c]  -----------------------[MeV cm^2/g]------------------------  [g/cm^2]
  1.000E+05 1.018E+05 1.528E+00 1.160E-03 2.086E-02 7.512E-03 2.953E-02 1.557E+00 3.211E+04  3.0340 0.99985
  1.122E+05 1.140E+05 1.546E+00 1.346E-03 2.497E-02 8.428E-03 3.474E-02 1.580E+00 3.988E+04  3.1977 0.99988
  1.259E+05 1.277E+05 1.563E+00 1.560E-03 2.980E-02 9.406E-03 4.076E-02 1.604E+00 4.848E+04  3.3652 0.99990
  1.413E+05 1.430E+05 1.581E+00 1.808E-03 3.546E-02 1.050E-02 4.777E-02 1.629E+00 5.799E+04  3.5363 0.99992
  1.585E+05 1.603E+05 1.598E+00 2.093E-03 4.210E-02 1.172E-02 5.591E-02 1.654E+00 6.849E+04  3.7110 0.99994
  1.778E+05 1.796E+05 1.615E+00 2.423E-03 4.985E-02 1.307E-02 6.534E-02 1.681E+00 8.009E+04  3.8892 0.99995
  1.995E+05 2.013E+05 1.632E+00 2.802E-03 5.889E-02 1.460E-02 7.629E-02 1.709E+00 9.289E+04  4.0707 0.99996
  2.239E+05 2.256E+05 1.649E+00 3.239E-03 6.942E-02 1.626E-02 8.891E-02 1.738E+00 1.070E+05  4.2555 0.99997
  2.512E+05 2.530E+05 1.666E+00 3.742E-03 8.164E-02 1.811E-02 1.035E-01 1.770E+00 1.226E+05  4.4435 0.99998
  2.818E+05 2.836E+05 1.683E+00 4.320E-03 9.582E-02 2.018E-02 1.203E-01 1.803E+00 1.398E+05  4.6344 0.99998
  3.162E+05 3.180E+05 1.699E+00 4.985E-03 1.122E-01 2.251E-02 1.397E-01 1.839E+00 1.586E+05  4.8284 0.99998
  3.548E+05 3.566E+05 1.715E+00 5.749E-03 1.312E-01 2.511E-02 1.620E-01 1.877E+00 1.794E+05  5.0251 0.99999
  3.981E+05 3.999E+05 1.731E+00 6.626E-03 1.530E-01 2.800E-02 1.877E-01 1.919E+00 2.022E+05  5.2246 0.99999
  4.467E+05 4.485E+05 1.747E+00 7.633E-03 1.782E-01 3.122E-02 2.171E-01 1.964E+00 2.272E+05  5.4267 0.99999
  5.012E+05 5.030E+05 1.763E+00 8.788E-03 2.072E-01 3.484E-02 2.508E-01 2.014E+00 2.547E+05  5.6313 0.99999
  5.623E+05 5.641E+05 1.778E+00 1.011E-02 2.405E-01 3.872E-02 2.893E-01 2.068E+00 2.846E+05  5.8383 1.00000
  6.310E+05 6.327E+05 1.794E+00 1.163E-02 2.786E-01 4.309E-02 3.333E-01 2.127E+00 3.173E+05  6.0476 1.00000
  7.079E+05 7.097E+05 1.809E+00 1.337E-02 3.223E-01 4.800E-02 3.837E-01 2.193E+00 3.530E+05  6.2591 1.00000
  7.943E+05 7.961E+05 1.824E+00 1.536E-02 3.724E-01 5.352E-02 4.412E-01 2.265E+00 3.918E+05  6.4727 1.00000
  8.913E+05 8.930E+05 1.839E+00 1.764E-02 4.295E-01 5.975E-02 5.069E-01 2.346E+00 4.338E+05  6.6882 1.00000
  1.000E+06 1.002E+06 1.853E+00 2.025E-02 4.948E-01 6.677E-02 5.818E-01 2.435E+00 4.793E+05  6.9056 1.00000
  1.122E+06 1.124E+06 1.868E+00 2.324E-02 5.692E-01 7.470E-02 6.671E-01 2.535E+00 5.284E+05  7.1247 1.00000
  1.259E+06 1.261E+06 1.882E+00 2.665E-02 6.539E-01 8.366E-02 7.642E-01 2.646E+00 5.813E+05  7.3454 1.00000
  1.413E+06 1.414E+06 1.896E+00 3.054E-02 7.503E-01 9.379E-02 8.747E-01 2.771E+00 6.381E+05  7.5677 1.00000
  1.585E+06 1.587E+06 1.910E+00 3.500E-02 8.599E-01 1.053E-01 1.000E+00 2.911E+00 6.988E+05  7.7913 1.00000
  1.778E+06 1.780E+06 1.924E+00 4.008E-02 9.844E-01 1.182E-01 1.143E+00 3.067E+00 7.635E+05  8.0162 1.00000
  1.995E+06 1.997E+06 1.938E+00 4.588E-02 1.126E+00 1.330E-01 1.305E+00 3.242E+00 8.323E+05  8.2422 1.00000
  2.239E+06 2.240E+06 1.951E+00 5.251E-02 1.286E+00 1.497E-01 1.488E+00 3.439E+00 9.053E+05  8.4693 1.00000
  2.512E+06 2.514E+06 1.965E+00 6.006E-02 1.467E+00 1.686E-01 1.696E+00 3.661E+00 9.823E+05  8.6972 1.00000
  2.818E+06 2.820E+06 1.978E+00 6.867E-02 1.673E+00 1.901E-01 1.932E+00 3.910E+00 1.063E+06  8.9259 1.00000
  3.162E+06 3.164E+06 1.991E+00 7.849E-02 1.906E+00 2.145E-01 2.199E+00 4.189E+00 1.148E+06  9.1552 1.00000
  3.548E+06 3.550E+06 2.004E+00 8.967E-02 2.168E+00 2.423E-01 2.500E+00 4.504E+00 1.237E+06  9.3849 1.00000
  3.981E+06 3.983E+06 2.016E+00 1.024E-01 2.466E+00 2.738E-01 2.842E+00 4.858E+00 1.330E+06  9.6150 1.00000
  4.467E+06 4.469E+06 2.029E+00 1.169E-01 2.801E+00 3.097E-01 3.228E+00 5.257E+00 1.426E+06  9.8451 1.00000
  5.012E+06 5.014E+06 2.041E+00 1.334E-01 3.180E+00 3.506E-01 3.664E+00 5.705E+00 1.526E+06 10.0753 1.00000
  5.623E+06 5.625E+06 2.054E+00 1.522E-01 3.607E+00 3.970E-01 4.157E+00 6.210E+00 1.629E+06 10.3055 1.00000
  6.310E+06 6.311E+06 2.066E+00 1.736E-01 4.089E+00 4.499E-01 4.713E+00 6.779E+00 1.734E+06 10.5357 1.00000
  7.079E+06 7.081E+06 2.078E+00 1.978E-01 4.633E+00 5.101E-01 5.341E+00 7.419E+00 1.843E+06 10.7659 1.00000
  7.943E+06 7.945E+06 2.090E+00 2.254E-01 5.245E+00 5.787E-01 6.049E+00 8.139E+00 1.954E+06 10.9961 1.00000
  8.913E+06 8.914E+06 2.102E+00 2.568E-01 5.935E+00 6.569E-01 6.848E+00 8.950E+00 2.068E+06 11.2263 1.00000
  1.000E+07 1.000E+07 2.114E+00 2.924E-01 6.711E+00 7.459E-01 7.749E+00 9.863E+00 2.184E+06 11.4565 1.00000
  1.122E+07 1.122E+07 2.125E+00 3.329E-01 7.585E+00 8.474E-01 8.766E+00 1.089E+01 2.302E+06 11.6867 1.00000
  1.259E+07 1.259E+07 2.137E+00 3.788E-01 8.569E+00 9.631E-01 9.911E+00 1.205E+01 2.421E+06 11.9169 1.00000
  1.413E+07 1.413E+07 2.148E+00 4.309E-01 9.676E+00 1.095E+00 1.120E+01 1.335E+01 2.543E+06 12.1472 1.00000
  1.585E+07 1.585E+07 2.160E+00 4.900E-01 1.092E+01 1.245E+00 1.266E+01 1.482E+01 2.665E+06 12.3774 1.00000
  1.778E+07 1.778E+07 2.171E+00 5.570E-01 1.232E+01 1.417E+00 1.429E+01 1.647E+01 2.789E+06 12.6076 1.00000
  1.995E+07 1.995E+07 2.182E+00 6.330E-01 1.390E+01 1.612E+00 1.614E+01 1.832E+01 2.915E+06 12.8379 1.00000
  2.239E+07 2.239E+07 2.193E+00 7.190E-01 1.566E+01 1.835E+00 1.822E+01 2.041E+01 3.041E+06 13.0681 1.00000
  2.512E+07 2.512E+07 2.204E+00 8.165E-01 1.765E+01 2.090E+00 2.056E+01 2.276E+01 3.168E+06 13.2983 1.00000
  2.818E+07 2.819E+07 2.215E+00 9.270E-01 1.989E+01 2.380E+00 2.320E+01 2.541E+01 3.295E+06 13.5286 1.00000
  3.162E+07 3.162E+07 2.226E+00 1.052E+00 2.240E+01 2.711E+00 2.616E+01 2.839E+01 3.423E+06 13.7588 1.00000
  3.548E+07 3.548E+07 2.237E+00 1.193E+00 2.522E+01 3.089E+00 2.950E+01 3.174E+01 3.552E+06 13.9891 1.00000
  3.981E+07 3.981E+07 2.248E+00 1.353E+00 2.839E+01 3.521E+00 3.326E+01 3.551E+01 3.681E+06 14.2193 1.00000
  4.467E+07 4.467E+07 2.259E+00 1.534E+00 3.195E+01 4.013E+00 3.750E+01 3.976E+01 3.811E+06 14.4496 1.00000
  5.012E+07 5.012E+07 2.270E+00 1.739E+00 3.595E+01 4.575E+00 4.226E+01 4.453E+01 3.941E+06 14.6798 1.00000
  5.623E+07 5.624E+07 2.281E+00 1.970E+00 4.044E+01 5.217E+00 4.762E+01 4.991E+01 4.070E+06 14.9101 1.00000
  6.310E+07 6.310E+07 2.292E+00 2.232E+00 4.548E+01 5.950E+00 5.366E+01 5.595E+01 4.200E+06 15.1403 1.00000
  7.079E+07 7.080E+07 2.303E+00 2.527E+00 5.114E+01 6.786E+00 6.045E+01 6.275E+01 4.331E+06 15.3706 1.00000
  7.943E+07 7.943E+07 2.314E+00 2.860E+00 5.749E+01 7.741E+00 6.809E+01 7.041E+01 4.461E+06 15.6008 1.00000
  8.913E+07 8.913E+07 2.325E+00 3.236E+00 6.463E+01 8.831E+00 7.670E+01 7.902E+01 4.591E+06 15.8311 1.00000
  1.000E+08 1.000E+08 2.335E+00 3.661E+00 7.264E+01 1.008E+01 8.637E+01 8.871E+01 4.721E+06 16.0613 1.00000
  1.122E+08 1.122E+08 2.346E+00 4.140E+00 8.163E+01 1.150E+01 9.727E+01 9.961E+01 4.851E+06 16.2916 1.00000
  1.259E+08 1.259E+08 2.357E+00 4.680E+00 9.172E+01 1.312E+01 1.095E+02 1.119E+02 4.981E+06 16.5218 1.00000
  1.413E+08 1.413E+08 2.368E+00 5.290E+00 1.030E+02 1.498E+01 1.233E+02 1.257E+02 5.111E+06 16.7521 1.00000
  1.585E+08 1.585E+08 2.380E+00 5.976E+00 1.158E+02 1.710E+01 1.388E+02 1.412E+02 5.240E+06 16.9824 1.00000
  1.778E+08 1.778E+08 2.391E+00 6.751E+00 1.300E+02 1.952E+01 1.563E+02 1.587E+02 5.370E+06 17.2126 1.00000
  1.995E+08 1.995E+08 2.402E+00 7.623E+00 1.460E+02 2.228E+01 1.759E+02 1.784E+02 5.499E+06 17.4429 1.00000
  2.239E+08 2.239E+08 2.413E+00 8.605E+00 1.640E+02 2.544E+01 1.981E+02 2.005E+02 5.628E+06 17.6731 1.00000
  2.512E+08 2.512E+08 2.424E+00 9.712E+00 1.842E+02 2.905E+01 2.230E+02 2.254E+02 5.757E+06 17.9034 1.00000
  2.818E+08 2.818E+08 2.435E+00 1.096E+01 2.068E+02 3.317E+01 2.510E+02 2.534E+02 5.885E+06 18.1336 1.00000
  3.162E+08 3.162E+08 2.447E+00 1.236E+01 2.322E+02 3.788E+01 2.825E+02 2.849E+02 6.013E+06 18.3639 1.00000
  3.548E+08 3.548E+08 2.458E+00 1.394E+01 2.607E+02 4.326E+01 3.179E+02 3.204E+02 6.141E+06 18.5942 1.00000
  3.981E+08 3.981E+08 2.470E+00 1.572E+01 2.927E+02 4.941E+01 3.579E+02 3.603E+02 6.269E+06 18.8244 1.00000
  4.467E+08 4.467E+08 2.481E+00 1.771E+01 3.286E+02 5.644E+01 4.028E+02 4.053E+02 6.396E+06 19.0547 1.00000
  5.012E+08 5.012E+08 2.493E+00 1.996E+01 3.689E+02 6.447E+01 4.534E+02 4.558E+02 6.523E+06 19.2849 1.00000
  5.623E+08 5.623E+08 2.504E+00 2.249E+01 4.141E+02 7.365E+01 5.103E+02 5.128E+02 6.650E+06 19.5152 1.00000
  6.310E+08 6.310E+08 2.516E+00 2.533E+01 4.648E+02 8.415E+01 5.743E+02 5.768E+02 6.776E+06 19.7454 1.00000
  7.079E+08 7.079E+08 2.528E+00 2.853E+01 5.218E+02 9.614E+01 6.464E+02 6.490E+02 6.902E+06 19.9757 1.00000
  7.943E+08 7.943E+08 2.539E+00 3.212E+01 5.856E+02 1.099E+02 7.276E+02 7.301E+02 7.028E+06 20.2060 1.00000
  8.913E+08 8.913E+08 2.551E+00 3.616E+01 6.573E+02 1.255E+02 8.190E+02 8.215E+02 7.153E+06 20.4362 1.00000
  1.000E+09 1.000E+09 2.563E+00 4.070E+01 7.377E+02 1.434E+02 9.219E+02 9.244E+02 7.278E+06 20.6665 1.00000
  1.122E+09 1.122E+09 2.575E+00 4.580E+01 8.279E+02 1.639E+02 1.038E+03 1.040E+03 7.403E+06 20.8967 1.00000
  1.259E+09 1.259E+09 2.587E+00 5.153E+01 9.292E+02 1.873E+02 1.168E+03 1.171E+03 7.527E+06 21.1270 1.00000
  1.413E+09 1.413E+09 2.599E+00 5.796E+01 1.043E+03 2.141E+02 1.315E+03 1.317E+03 7.651E+06 21.3572 1.00000
  1.585E+09 1.585E+09 2.611E+00 6.519E+01 1.170E+03 2.447E+02 1.480E+03 1.483E+03 7.775E+06 21.5875 1.00000
  1.778E+09 1.778E+09 2.624E+00 7.331E+01 1.313E+03 2.798E+02 1.666E+03 1.669E+03 7.898E+06 21.8178 1.00000
  1.995E+09 1.995E+09 2.636E+00 8.243E+01 1.474E+03 3.198E+02 1.876E+03 1.879E+03 8.021E+06 22.0480 1.00000
  2.239E+09 2.239E+09 2.648E+00 9.268E+01 1.654E+03 3.656E+02 2.112E+03 2.115E+03 8.143E+06 22.2783 1.00000
  2.512E+09 2.512E+09 2.661E+00 1.042E+02 1.856E+03 4.180E+02 2.378E+03 2.381E+03 8.265E+06 22.5085 1.00000
  2.818E+09 2.818E+09 2.673E+00 1.171E+02 2.083E+03 4.779E+02 2.678E+03 2.680E+03 8.387E+06 22.7388 1.00000
  3.162E+09 3.162E+09 2.686E+00 1.316E+02 2.337E+03 5.464E+02 3.015E+03 3.018E+03 8.508E+06 22.9691 1.00000
  3.548E+09 3.548E+09 2.698E+00 1.479E+02 2.622E+03 6.248E+02 3.395E+03 3.398E+03 8.628E+06 23.1993 1.00000
  3.981E+09 3.981E+09 2.711E+00 1.662E+02 2.942E+03 7.144E+02 3.823E+03 3.826E+03 8.749E+06 23.4296 1.00000
  4.467E+09 4.467E+09 2.724E+00 1.867E+02 3.302E+03 8.170E+02 4.305E+03 4.308E+03 8.869E+06 23.6598 1.00000
  5.012E+09 5.012E+09 2.737E+00 2.097E+02 3.705E+03 9.343E+02 4.849E+03 4.852E+03 8.988E+06 23.8901 1.00000
  5.623E+09 5.623E+09 2.749E+00 2.356E+02 4.157E+03 1.069E+03 5.461E+03 5.464E+03 9.107E+06 24.1203 1.00000
  6.310E+09 6.310E+09 2.762E+00 2.646E+02 4.665E+03 1.222E+03 6.151E+03 6.154E+03 9.226E+06 24.3506 1.00000
  7.079E+09 7.079E+09 2.776E+00 2.972E+02 5.234E+03 1.398E+03 6.929E+03 6.932E+03 9.344E+06 24.5809 1.00000
  7.943E+09 7.943E+09 2.789E+00 3.337E+02 5.873E+03 1.599E+03 7.806E+03 7.808E+03 9.461E+06 24.8111 1.00000
  8.913E+09 8.913E+09 2.802E+00 3.748E+02 6.590E+03 1.829E+03 8.794E+03 8.796E+03 9.578E+06 25.0414 1.00000
  1.000E+10 1.000E+10 2.815E+00 4.208E+02 7.394E+03 2.093E+03 9.907E+03 9.910E+03 9.695E+06 25.2716 1.00000
  1.122E+10 1.122E+10 2.828E+00 4.725E+02 8.296E+03 2.394E+03 1.116E+04 1.117E+04 9.811E+06 25.5019 1.00000
  1.259E+10 1.259E+10 2.842E+00 5.305E+02 9.309E+03 2.739E+03 1.258E+04 1.258E+04 9.927E+06 25.7322 1.00000
  1.413E+10 1.413E+10 2.855E+00 5.956E+02 1.044E+04 3.134E+03 1.417E+04 1.418E+04 1.004E+07 25.9624 1.00000
  1.585E+10 1.585E+10 2.869E+00 6.686E+02 1.172E+04 3.586E+03 1.597E+04 1.598E+04 1.016E+07 26.1927 1.00000
  1.778E+10 1.778E+10 2.883E+00 7.506E+02 1.315E+04 4.103E+03 1.800E+04 1.801E+04 1.027E+07 26.4229 1.00000
  1.995E+10 1.995E+10 2.896E+00 8.426E+02 1.475E+04 4.696E+03 2.029E+04 2.029E+04 1.038E+07 26.6532 1.00000
  2.239E+10 2.239E+10 2.910E+00 9.458E+02 1.655E+04 5.374E+03 2.287E+04 2.288E+04 1.050E+07 26.8835 1.00000
  2.512E+10 2.512E+10 2.924E+00 1.062E+03 1.857E+04 6.150E+03 2.579E+04 2.579E+04 1.061E+07 27.1137 1.00000
  2.818E+10 2.818E+10 2.938E+00 1.192E+03 2.084E+04 7.039E+03 2.907E+04 2.907E+04 1.072E+07 27.3440 1.00000
  3.162E+10 3.162E+10 2.952E+00 1.338E+03 2.338E+04 8.056E+03 3.278E+04 3.278E+04 1.083E+07 27.5742 1.00000
  3.548E+10 3.548E+10 2.966E+00 1.501E+03 2.624E+04 9.222E+03 3.696E+04 3.696E+04 1.095E+07 27.8045 1.00000
  3.981E+10 3.981E+10 2.980E+00 1.685E+03 2.944E+04 1.056E+04 4.168E+04 4.168E+04 1.106E+07 28.0347 1.00000
  4.467E+10 4.467E+10 2.995E+00 1.891E+03 3.303E+04 1.208E+04 4.700E+04 4.701E+04 1.117E+07 28.2650 1.00000
  5.012E+10 5.012E+10 3.009E+00 2.122E+03 3.706E+04 1.383E+04 5.301E+04 5.302E+04 1.128E+07 28.4953 1.00000
  5.623E+10 5.623E+10 3.024E+00 2.382E+03 4.158E+04 1.584E+04 5.980E+04 5.980E+04 1.138E+07 28.7255 1.00000
  6.310E+10 6.310E+10 3.038E+00 2.673E+03 4.665E+04 1.813E+04 6.746E+04 6.746E+04 1.149E+07 28.9558 1.00000
  7.079E+10 7.079E+10 3.053E+00 2.999E+03 5.234E+04 2.076E+04 7.611E+04 7.611E+04 1.160E+07 29.1860 1.00000
  7.943E+10 7.943E+10 3.067E+00 3.366E+03 5.873E+04 2.378E+04 8.587E+04 8.587E+04 1.171E+07 29.4163 1.00000
  8.913E+10 8.913E+10 3.082E+00 3.777E+03 6.589E+04 2.723E+04 9.690E+04 9.690E+04 1.181E+07 29.6466 1.00000
  1.000E+11 1.000E+11 3.097E+00 4.239E+03 7.393E+04 3.118E+04 1.094E+05 1.094E+05 1.192E+07 29.8768 1.00000
  1.122E+11 1.122E+11 3.112E+00 4.757E+03 8.295E+04 3.571E+04 1.234E+05 1.234E+05 1.202E+07 30.1071 1.00000
  1.259E+11 1.259E+11 3.127E+00 5.338E+03 9.307E+04 4.090E+04 1.393E+05 1.393E+05 1.213E+07 30.3373 1.00000
  1.413E+11 1.413E+11 3.142E+00 5.989E+03 1.044E+05 4.684E+04 1.573E+05 1.573E+05 1.223E+07 30.5676 1.00000
  1.585E+11 1.585E+11 3.157E+00 6.721E+03 1.172E+05 5.365E+04 1.775E+05 1.775E+05 1.234E+07 30.7978 1.00000
  1.778E+11 1.778E+11 3.173E+00 7.542E+03 1.315E+05 6.146E+04 2.005E+05 2.005E+05 1.244E+07 31.0281 1.00000
  1.995E+11 1.995E+11 3.188E+00 8.463E+03 1.475E+05 7.040E+04 2.264E+05 2.264E+05 1.254E+07 31.2584 1.00000
  2.239E+11 2.239E+11 3.204E+00 9.496E+03 1.655E+05 8.066E+04 2.556E+05 2.556E+05 1.264E+07 31.4886 1.00000
  2.512E+11 2.512E+11 3.219E+00 1.066E+04 1.857E+05 9.240E+04 2.887E+05 2.887E+05 1.274E+07 31.7189 1.00000
  2.818E+11 2.818E+11 3.235E+00 1.196E+04 2.083E+05 1.059E+05 3.261E+05 3.261E+05 1.284E+07 31.9491 1.00000
  3.162E+11 3.162E+11 3.250E+00 1.342E+04 2.337E+05 1.213E+05 3.685E+05 3.685E+05 1.294E+07 32.1794 1.00000
  3.548E+11 3.548E+11 3.266E+00 1.505E+04 2.622E+05 1.390E+05 4.163E+05 4.163E+05 1.304E+07 32.4097 1.00000
  3.981E+11 3.981E+11 3.282E+00 1.689E+04 2.942E+05 1.593E+05 4.704E+05 4.704E+05 1.314E+07 32.6399 1.00000
  4.467E+11 4.467E+11 3.298E+00 1.895E+04 3.301E+05 1.825E+05 5.316E+05 5.316E+05 1.324E+07 32.8702 1.00000
  5.012E+11 5.012E+11 3.314E+00 2.127E+04 3.704E+05 2.092E+05 6.008E+05 6.008E+05 1.333E+07 33.1004 1.00000
  5.623E+11 5.623E+11 3.330E+00 2.386E+04 4.156E+05 2.397E+05 6.792E+05 6.792E+05 1.343E+07 33.3307 1.00000
  6.310E+11 6.310E+11 3.347E+00 2.677E+04 4.663E+05 2.748E+05 7.678E+05 7.678E+05 1.352E+07 33.5609 1.00000
  7.079E+11 7.079E+11 3.363E+00 3.004E+04 5.231E+05 3.149E+05 8.681E+05 8.681E+05 1.362E+07 33.7912 1.00000
  7.943E+11 7.943E+11 3.379E+00 3.371E+04 5.869E+05 3.610E+05 9.816E+05 9.816E+05 1.371E+07 34.0215 1.00000
  8.913E+11 8.913E+11 3.396E+00 3.782E+04 6.585E+05 4.138E+05 1.110E+06 1.110E+06 1.381E+07 34.2517 1.00000
  1.000E+12 1.000E+12 3.413E+00 4.244E+04 7.389E+05 4.744E+05 1.256E+06 1.256E+06 1.390E+07 34.4820 1.00000
  1.122E+12 1.122E+12 3.429E+00 4.761E+04 8.290E+05 5.438E+05 1.420E+06 1.420E+06 1.399E+07 34.7122 1.00000
  1.259E+12 1.259E+12 3.446E+00 5.342E+04 9.301E+05 6.235E+05 1.607E+06 1.607E+06 1.408E+07 34.9425 1.00000
  1.413E+12 1.413E+12 3.463E+00 5.994E+04 1.044E+06 7.149E+05 1.818E+06 1.818E+06 1.417E+07 35.1728 1.00000
  1.585E+12 1.585E+12 3.480E+00 6.726E+04 1.171E+06 8.197E+05 2.058E+06 2.058E+06 1.426E+07 35.4030 1.00000
  1.778E+12 1.778E+12 3.497E+00 7.547E+04 1.314E+06 9.399E+05 2.329E+06 2.329E+06 1.435E+07 35.6333 1.00000
  1.995E+12 1.995E+12 3.514E+00 8.468E+04 1.474E+06 1.078E+06 2.636E+06 2.636E+06 1.444E+07 35.8635 1.00000
  2.239E+12 2.239E+12 3.532E+00 9.501E+04 1.654E+06 1.236E+06 2.985E+06 2.985E+06 1.452E+07 36.0938 1.00000
  2.512E+12 2.512E+12 3.549E+00 1.066E+05 1.855E+06 1.417E+06 3.379E+06 3.379E+06 1.461E+07 36.3240 1.00000
  2.818E+12 2.818E+12 3.566E+00 1.196E+05 2.082E+06 1.626E+06 3.827E+06 3.827E+06 1.469E+07 36.5543 1.00000
  3.162E+12 3.162E+12 3.584E+00 1.342E+05 2.336E+06 1.865E+06 4.334E+06 4.334E+06 1.478E+07 36.7846 1.00000
  3.548E+12 3.548E+12 3.602E+00 1.506E+05 2.620E+06 2.139E+06 4.910E+06 4.910E+06 1.486E+07 37.0148 1.00000
  3.981E+12 3.981E+12 3.619E+00 1.690E+05 2.940E+06 2.453E+06 5.562E+06 5.562E+06 1.495E+07 37.2451 1.00000
  4.467E+12 4.467E+12 3.637E+00 1.896E+05 3.299E+06 2.814E+06 6.302E+06 6.302E+06 1.503E+07 37.4753 1.00000
  5.012E+12 5.012E+12 3.655E+00 2.127E+05 3.701E+06 3.228E+06 7.142E+06 7.142E+06 1.511E+07 37.7056 1.00000
  5.623E+12 5.623E+12 3.673E+00 2.387E+05 4.152E+06 3.704E+06 8.095E+06 8.095E+06 1.519E+07 37.9359 1.00000
  6.310E+12 6.310E+12 3.691E+00 2.678E+05 4.659E+06 4.249E+06 9.176E+06 9.176E+06 1.527E+07 38.1661 1.00000
  7.079E+12 7.079E+12 3.710E+00 3.005E+05 5.227E+06 4.875E+06 1.040E+07 1.040E+07 1.535E+07 38.3964 1.00000
  7.943E+12 7.943E+12 3.728E+00 3.371E+05 5.865E+06 5.594E+06 1.180E+07 1.180E+07 1.543E+07 38.6266 1.00000
  8.913E+12 8.913E+12 3.746E+00 3.783E+05 6.580E+06 6.419E+06 1.338E+07 1.338E+07 1.550E+07 38.8569 1.00000
  1.000E+13 1.000E+13 3.765E+00 4.244E+05 7.382E+06 7.366E+06 1.517E+07 1.517E+07 1.558E+07 39.0872 1.00000
  1.122E+13 1.122E+13 3.784E+00 4.762E+05 8.283E+06 8.453E+06 1.721E+07 1.721E+07 1.566E+07 39.3174 1.00000
  1.259E+13 1.259E+13 3.802E+00 5.343E+05 9.293E+06 9.700E+06 1.953E+07 1.953E+07 1.573E+07 39.5477 1.00000
  1.413E+13 1.413E+13 3.821E+00 5.995E+05 1.043E+07 1.113E+07 2.216E+07 2.216E+07 1.581E+07 39.7779 1.00000
  1.585E+13 1.585E+13 3.840E+00 6.727E+05 1.170E+07 1.278E+07 2.515E+07 2.515E+07 1.588E+07 40.0082 1.00000
  1.778E+13 1.778E+13 3.859E+00 7.547E+05 1.312E+07 1.467E+07 2.855E+07 2.855E+07 1.595E+07 40.2384 1.00000
  1.995E+13 1.995E+13 3.878E+00 8.468E+05 1.473E+07 1.683E+07 3.241E+07 3.241E+07 1.602E+07 40.4687 1.00000
  2.239E+13 2.239E+13 3.898E+00 9.502E+05 1.652E+07 1.932E+07 3.680E+07 3.680E+07 1.609E+07 40.6990 1.00000
  2.512E+13 2.512E+13 3.917E+00 1.066E+06 1.854E+07 2.218E+07 4.179E+07 4.179E+07 1.616E+07 40.9292 1.00000
  2.818E+13 2.818E+13 3.937E+00 1.196E+06 2.080E+07 2.547E+07 4.746E+07 4.746E+07 1.623E+07 41.1595 1.00000
  3.162E+13 3.162E+13 3.956E+00 1.342E+06 2.333E+07 2.924E+07 5.391E+07 5.391E+07 1.630E+07 41.3897 1.00000
  3.548E+13 3.548E+13 3.976E+00 1.506E+06 2.618E+07 3.357E+07 6.125E+07 6.125E+07 1.637E+07 41.6200 1.00000
  3.981E+13 3.981E+13 3.996E+00 1.690E+06 2.937E+07 3.854E+07 6.961E+07 6.961E+07 1.643E+07 41.8503 1.00000
  4.467E+13 4.467E+13 4.016E+00 1.896E+06 3.295E+07 4.426E+07 7.911E+07 7.911E+07 1.650E+07 42.0805 1.00000
  5.012E+13 5.012E+13 4.036E+00 2.127E+06 3.697E+07 5.082E+07 8.992E+07 8.992E+07 1.656E+07 42.3108 1.00000
  5.623E+13 5.623E+13 4.056E+00 2.387E+06 4.148E+07 5.836E+07 1.022E+08 1.022E+08 1.663E+07 42.5410 1.00000
  6.310E+13 6.310E+13 4.076E+00 2.678E+06 4.654E+07 6.702E+07 1.162E+08 1.162E+08 1.669E+07 42.7713 1.00000
  7.079E+13 7.079E+13 4.096E+00 3.005E+06 5.222E+07 7.697E+07 1.322E+08 1.322E+08 1.675E+07 43.0015 1.00000
  7.943E+13 7.943E+13 4.117E+00 3.371E+06 5.858E+07 8.840E+07 1.504E+08 1.504E+08 1.681E+07 43.2318 1.00000
  8.913E+13 8.913E+13 4.137E+00 3.783E+06 6.573E+07 1.015E+08 1.710E+08 1.710E+08 1.688E+07 43.4621 1.00000
