 Incident particle is a Tau with M = 1776.82000 MeV
 Index = 0: Nickel
      Absorber with <Z/A> = 0.47706
 Sternheimer coef:  a     k=m_s   x_0    x_1    I[eV]   Cbar  delta0
                 0.1650  2.8430  0.0566  3.1851  311.0  4.3115 0.10

 *** Table generated with PUMAS v1.00 ***

      T         p     Ionization  brems     pair     photonuc  Radloss    dE/dx   CSDA Range  delta   beta
    [MeV]    [MeV/c]  -----------------------[MeV cm^2/g]------------------------  [g/cm^2]
  1.000E+05 1.018E+05 1.926E+00 4.751E-04 7.817E-03 7.889E-03 1.618E-02 1.942E+00 2.575E+04  4.2377 0.99985
  1.122E+05 1.140E+05 1.946E+00 5.499E-04 9.375E-03 8.878E-03 1.880E-02 1.965E+00 3.200E+04  4.4212 0.99988
  1.259E+05 1.277E+05 1.966E+00 6.361E-04 1.121E-02 9.938E-03 2.178E-02 1.988E+00 3.892E+04  4.6077 0.99990
  1.413E+05 1.430E+05 1.986E+00 7.355E-04 1.337E-02 1.113E-02 2.523E-02 2.011E+00 4.661E+04  4.7972 0.99992
  1.585E+05 1.603E+05 2.006E+00 8.499E-04 1.589E-02 1.246E-02 2.920E-02 2.035E+00 5.513E+04  4.9896 0.99994
  1.778E+05 1.796E+05 2.025E+00 9.815E-04 1.885E-02 1.393E-02 3.377E-02 2.059E+00 6.457E+04  5.1847 0.99995
  1.995E+05 2.013E+05 2.045E+00 1.133E-03 2.231E-02 1.561E-02 3.906E-02 2.084E+00 7.505E+04  5.3825 0.99996
  2.239E+05 2.256E+05 2.064E+00 1.307E-03 2.634E-02 1.744E-02 4.509E-02 2.109E+00 8.666E+04  5.5828 0.99997
  2.512E+05 2.530E+05 2.084E+00 1.507E-03 3.103E-02 1.949E-02 5.203E-02 2.136E+00 9.953E+04  5.7856 0.99998
  2.818E+05 2.836E+05 2.103E+00 1.737E-03 3.648E-02 2.178E-02 6.000E-02 2.163E+00 1.138E+05  5.9908 0.99998
  3.162E+05 3.180E+05 2.122E+00 2.001E-03 4.280E-02 2.437E-02 6.917E-02 2.191E+00 1.296E+05  6.1981 0.99998
  3.548E+05 3.566E+05 2.140E+00 2.304E-03 5.011E-02 2.727E-02 7.969E-02 2.220E+00 1.471E+05  6.4077 0.99999
  3.981E+05 3.999E+05 2.159E+00 2.651E-03 5.856E-02 3.050E-02 9.171E-02 2.251E+00 1.665E+05  6.6193 0.99999
  4.467E+05 4.485E+05 2.177E+00 3.049E-03 6.832E-02 3.411E-02 1.055E-01 2.283E+00 1.879E+05  6.8328 0.99999
  5.012E+05 5.030E+05 2.196E+00 3.506E-03 7.957E-02 3.816E-02 1.212E-01 2.317E+00 2.116E+05  7.0482 0.99999
  5.623E+05 5.641E+05 2.214E+00 4.028E-03 9.251E-02 4.254E-02 1.391E-01 2.353E+00 2.378E+05  7.2653 1.00000
  6.310E+05 6.327E+05 2.232E+00 4.627E-03 1.074E-01 4.746E-02 1.595E-01 2.391E+00 2.667E+05  7.4840 1.00000
  7.079E+05 7.097E+05 2.250E+00 5.312E-03 1.245E-01 5.301E-02 1.828E-01 2.433E+00 2.986E+05  7.7043 1.00000
  7.943E+05 7.961E+05 2.267E+00 6.096E-03 1.441E-01 5.927E-02 2.094E-01 2.477E+00 3.338E+05  7.9260 1.00000
  8.913E+05 8.930E+05 2.285E+00 6.993E-03 1.665E-01 6.632E-02 2.398E-01 2.525E+00 3.726E+05  8.1490 1.00000
  1.000E+06 1.002E+06 2.302E+00 8.018E-03 1.921E-01 7.430E-02 2.745E-01 2.577E+00 4.152E+05  8.3733 1.00000
  1.122E+06 1.124E+06 2.319E+00 9.190E-03 2.215E-01 8.331E-02 3.140E-01 2.633E+00 4.621E+05  8.5986 1.00000
  1.259E+06 1.261E+06 2.336E+00 1.053E-02 2.549E-01 9.350E-02 3.590E-01 2.695E+00 5.135E+05  8.8250 1.00000
  1.413E+06 1.414E+06 2.353E+00 1.206E-02 2.931E-01 1.050E-01 4.102E-01 2.763E+00 5.697E+05  9.0523 1.00000
  1.585E+06 1.587E+06 2.370E+00 1.381E-02 3.366E-01 1.181E-01 4.685E-01 2.838E+00 6.313E+05  9.2803 1.00000
  1.778E+06 1.780E+06 2.386E+00 1.580E-02 3.860E-01 1.329E-01 5.348E-01 2.921E+00 6.985E+05  9.5090 1.00000
  1.995E+06 1.997E+06 2.403E+00 1.808E-02 4.423E-01 1.498E-01 6.101E-01 3.013E+00 7.716E+05  9.7382 1.00000
  2.239E+06 2.240E+06 2.419E+00 2.067E-02 5.062E-01 1.688E-01 6.957E-01 3.115E+00 8.511E+05  9.9679 1.00000
  2.512E+06 2.514E+06 2.435E+00 2.363E-02 5.787E-01 1.905E-01 7.928E-01 3.228E+00 9.373E+05 10.1979 1.00000
  2.818E+06 2.820E+06 2.451E+00 2.701E-02 6.610E-01 2.151E-01 9.031E-01 3.354E+00 1.030E+06 10.4279 1.00000
  3.162E+06 3.164E+06 2.467E+00 3.085E-02 7.542E-01 2.431E-01 1.028E+00 3.495E+00 1.131E+06 10.6581 1.00000
  3.548E+06 3.550E+06 2.482E+00 3.523E-02 8.598E-01 2.749E-01 1.170E+00 3.652E+00 1.239E+06 10.8882 1.00000
  3.981E+06 3.983E+06 2.498E+00 4.023E-02 9.792E-01 3.111E-01 1.331E+00 3.828E+00 1.355E+06 11.1184 1.00000
  4.467E+06 4.469E+06 2.513E+00 4.591E-02 1.114E+00 3.522E-01 1.512E+00 4.026E+00 1.479E+06 11.3485 1.00000
  5.012E+06 5.014E+06 2.528E+00 5.238E-02 1.267E+00 3.990E-01 1.719E+00 4.247E+00 1.610E+06 11.5787 1.00000
  5.623E+06 5.625E+06 2.543E+00 5.974E-02 1.440E+00 4.523E-01 1.952E+00 4.495E+00 1.750E+06 11.8089 1.00000
  6.310E+06 6.311E+06 2.558E+00 6.812E-02 1.635E+00 5.130E-01 2.216E+00 4.774E+00 1.899E+06 12.0391 1.00000
  7.079E+06 7.081E+06 2.573E+00 7.764E-02 1.854E+00 5.821E-01 2.514E+00 5.087E+00 2.055E+06 12.2693 1.00000
  7.943E+06 7.945E+06 2.587E+00 8.847E-02 2.102E+00 6.609E-01 2.852E+00 5.439E+00 2.219E+06 12.4995 1.00000
  8.913E+06 8.914E+06 2.602E+00 1.008E-01 2.382E+00 7.506E-01 3.233E+00 5.835E+00 2.391E+06 12.7297 1.00000
  1.000E+07 1.000E+07 2.616E+00 1.148E-01 2.697E+00 8.529E-01 3.665E+00 6.281E+00 2.571E+06 12.9599 1.00000
  1.122E+07 1.122E+07 2.630E+00 1.307E-01 3.052E+00 9.694E-01 4.152E+00 6.783E+00 2.758E+06 13.1901 1.00000
  1.259E+07 1.259E+07 2.644E+00 1.487E-01 3.452E+00 1.102E+00 4.703E+00 7.347E+00 2.952E+06 13.4203 1.00000
  1.413E+07 1.413E+07 2.658E+00 1.692E-01 3.903E+00 1.254E+00 5.325E+00 7.984E+00 3.153E+06 13.6506 1.00000
  1.585E+07 1.585E+07 2.672E+00 1.924E-01 4.409E+00 1.426E+00 6.028E+00 8.700E+00 3.360E+06 13.8808 1.00000
  1.778E+07 1.778E+07 2.686E+00 2.188E-01 4.980E+00 1.624E+00 6.822E+00 9.508E+00 3.573E+06 14.1110 1.00000
  1.995E+07 1.995E+07 2.699E+00 2.487E-01 5.621E+00 1.848E+00 7.718E+00 1.042E+01 3.791E+06 14.3413 1.00000
  2.239E+07 2.239E+07 2.713E+00 2.826E-01 6.343E+00 2.105E+00 8.730E+00 1.144E+01 4.014E+06 14.5715 1.00000
  2.512E+07 2.512E+07 2.726E+00 3.210E-01 7.154E+00 2.397E+00 9.872E+00 1.260E+01 4.242E+06 14.8017 1.00000
  2.818E+07 2.819E+07 2.740E+00 3.646E-01 8.066E+00 2.731E+00 1.116E+01 1.390E+01 4.474E+06 15.0320 1.00000
  3.162E+07 3.162E+07 2.753E+00 4.139E-01 9.092E+00 3.112E+00 1.262E+01 1.537E+01 4.710E+06 15.2622 1.00000
  3.548E+07 3.548E+07 2.766E+00 4.698E-01 1.024E+01 3.546E+00 1.426E+01 1.703E+01 4.948E+06 15.4925 1.00000
  3.981E+07 3.981E+07 2.780E+00 5.331E-01 1.154E+01 4.042E+00 1.611E+01 1.889E+01 5.190E+06 15.7227 1.00000
  4.467E+07 4.467E+07 2.793E+00 6.047E-01 1.299E+01 4.608E+00 1.821E+01 2.100E+01 5.434E+06 15.9530 1.00000
  5.012E+07 5.012E+07 2.806E+00 6.857E-01 1.463E+01 5.254E+00 2.057E+01 2.337E+01 5.681E+06 16.1832 1.00000
  5.623E+07 5.624E+07 2.819E+00 7.773E-01 1.646E+01 5.992E+00 2.323E+01 2.605E+01 5.929E+06 16.4135 1.00000
  6.310E+07 6.310E+07 2.833E+00 8.809E-01 1.853E+01 6.834E+00 2.624E+01 2.907E+01 6.179E+06 16.6437 1.00000
  7.079E+07 7.080E+07 2.846E+00 9.981E-01 2.084E+01 7.795E+00 2.963E+01 3.248E+01 6.430E+06 16.8740 1.00000
  7.943E+07 7.943E+07 2.859E+00 1.130E+00 2.344E+01 8.893E+00 3.347E+01 3.632E+01 6.681E+06 17.1042 1.00000
  8.913E+07 8.913E+07 2.872E+00 1.280E+00 2.636E+01 1.015E+01 3.779E+01 4.066E+01 6.934E+06 17.3345 1.00000
  1.000E+08 1.000E+08 2.886E+00 1.449E+00 2.964E+01 1.158E+01 4.267E+01 4.555E+01 7.187E+06 17.5647 1.00000
  1.122E+08 1.122E+08 2.899E+00 1.640E+00 3.332E+01 1.321E+01 4.817E+01 5.107E+01 7.440E+06 17.7950 1.00000
  1.259E+08 1.259E+08 2.912E+00 1.855E+00 3.745E+01 1.508E+01 5.439E+01 5.730E+01 7.694E+06 18.0252 1.00000
  1.413E+08 1.413E+08 2.926E+00 2.098E+00 4.209E+01 1.721E+01 6.140E+01 6.433E+01 7.947E+06 18.2555 1.00000
  1.585E+08 1.585E+08 2.939E+00 2.372E+00 4.730E+01 1.965E+01 6.932E+01 7.226E+01 8.201E+06 18.4858 1.00000
  1.778E+08 1.778E+08 2.953E+00 2.681E+00 5.314E+01 2.243E+01 7.825E+01 8.121E+01 8.454E+06 18.7160 1.00000
  1.995E+08 1.995E+08 2.966E+00 3.030E+00 5.970E+01 2.561E+01 8.834E+01 9.131E+01 8.706E+06 18.9463 1.00000
  2.239E+08 2.239E+08 2.980E+00 3.423E+00 6.706E+01 2.924E+01 9.973E+01 1.027E+02 8.958E+06 19.1765 1.00000
  2.512E+08 2.512E+08 2.994E+00 3.866E+00 7.533E+01 3.339E+01 1.126E+02 1.156E+02 9.209E+06 19.4068 1.00000
  2.818E+08 2.818E+08 3.007E+00 4.365E+00 8.460E+01 3.813E+01 1.271E+02 1.301E+02 9.459E+06 19.6370 1.00000
  3.162E+08 3.162E+08 3.021E+00 4.927E+00 9.501E+01 4.354E+01 1.435E+02 1.465E+02 9.709E+06 19.8673 1.00000
  3.548E+08 3.548E+08 3.035E+00 5.561E+00 1.067E+02 4.973E+01 1.620E+02 1.650E+02 9.957E+06 20.0976 1.00000
  3.981E+08 3.981E+08 3.049E+00 6.274E+00 1.198E+02 5.680E+01 1.829E+02 1.859E+02 1.021E+07 20.3278 1.00000
  4.467E+08 4.467E+08 3.063E+00 7.077E+00 1.345E+02 6.489E+01 2.065E+02 2.095E+02 1.045E+07 20.5581 1.00000
  5.012E+08 5.012E+08 3.077E+00 7.980E+00 1.510E+02 7.412E+01 2.331E+02 2.362E+02 1.070E+07 20.7883 1.00000
  5.623E+08 5.623E+08 3.091E+00 8.997E+00 1.695E+02 8.468E+01 2.632E+02 2.663E+02 1.094E+07 21.0186 1.00000
  6.310E+08 6.310E+08 3.105E+00 1.014E+01 1.903E+02 9.674E+01 2.972E+02 3.003E+02 1.118E+07 21.2488 1.00000
  7.079E+08 7.079E+08 3.119E+00 1.143E+01 2.137E+02 1.105E+02 3.356E+02 3.387E+02 1.143E+07 21.4791 1.00000
  7.943E+08 7.943E+08 3.134E+00 1.288E+01 2.398E+02 1.263E+02 3.790E+02 3.821E+02 1.167E+07 21.7094 1.00000
  8.913E+08 8.913E+08 3.148E+00 1.450E+01 2.692E+02 1.443E+02 4.280E+02 4.312E+02 1.191E+07 21.9396 1.00000
  1.000E+09 1.000E+09 3.162E+00 1.634E+01 3.022E+02 1.649E+02 4.834E+02 4.866E+02 1.214E+07 22.1699 1.00000
  1.122E+09 1.122E+09 3.177E+00 1.839E+01 3.391E+02 1.885E+02 5.460E+02 5.492E+02 1.238E+07 22.4001 1.00000
  1.259E+09 1.259E+09 3.192E+00 2.071E+01 3.806E+02 2.154E+02 6.168E+02 6.199E+02 1.262E+07 22.6304 1.00000
  1.413E+09 1.413E+09 3.206E+00 2.331E+01 4.272E+02 2.462E+02 6.967E+02 6.999E+02 1.285E+07 22.8606 1.00000
  1.585E+09 1.585E+09 3.221E+00 2.623E+01 4.795E+02 2.814E+02 7.871E+02 7.903E+02 1.308E+07 23.0909 1.00000
  1.778E+09 1.778E+09 3.236E+00 2.952E+01 5.381E+02 3.217E+02 8.893E+02 8.925E+02 1.331E+07 23.3212 1.00000
  1.995E+09 1.995E+09 3.251E+00 3.321E+01 6.039E+02 3.677E+02 1.005E+03 1.008E+03 1.354E+07 23.5514 1.00000
  2.239E+09 2.239E+09 3.266E+00 3.735E+01 6.777E+02 4.204E+02 1.135E+03 1.139E+03 1.377E+07 23.7817 1.00000
  2.512E+09 2.512E+09 3.281E+00 4.201E+01 7.605E+02 4.806E+02 1.283E+03 1.286E+03 1.399E+07 24.0119 1.00000
  2.818E+09 2.818E+09 3.296E+00 4.724E+01 8.534E+02 5.494E+02 1.450E+03 1.453E+03 1.422E+07 24.2422 1.00000
  3.162E+09 3.162E+09 3.311E+00 5.311E+01 9.577E+02 6.282E+02 1.639E+03 1.642E+03 1.444E+07 24.4725 1.00000
  3.548E+09 3.548E+09 3.327E+00 5.971E+01 1.075E+03 7.183E+02 1.853E+03 1.856E+03 1.466E+07 24.7027 1.00000
  3.981E+09 3.981E+09 3.342E+00 6.712E+01 1.206E+03 8.214E+02 2.094E+03 2.098E+03 1.488E+07 24.9330 1.00000
  4.467E+09 4.467E+09 3.358E+00 7.544E+01 1.353E+03 9.394E+02 2.368E+03 2.371E+03 1.510E+07 25.1632 1.00000
  5.012E+09 5.012E+09 3.373E+00 8.478E+01 1.518E+03 1.074E+03 2.677E+03 2.681E+03 1.532E+07 25.3935 1.00000
  5.623E+09 5.623E+09 3.389E+00 9.527E+01 1.704E+03 1.229E+03 3.028E+03 3.031E+03 1.553E+07 25.6237 1.00000
  6.310E+09 6.310E+09 3.405E+00 1.070E+02 1.912E+03 1.405E+03 3.424E+03 3.428E+03 1.575E+07 25.8540 1.00000
  7.079E+09 7.079E+09 3.421E+00 1.203E+02 2.145E+03 1.607E+03 3.873E+03 3.876E+03 1.596E+07 26.0843 1.00000
  7.943E+09 7.943E+09 3.437E+00 1.351E+02 2.407E+03 1.839E+03 4.381E+03 4.384E+03 1.617E+07 26.3145 1.00000
  8.913E+09 8.913E+09 3.453E+00 1.518E+02 2.701E+03 2.103E+03 4.956E+03 4.959E+03 1.638E+07 26.5448 1.00000
  1.000E+10 1.000E+10 3.469E+00 1.704E+02 3.031E+03 2.406E+03 5.607E+03 5.611E+03 1.658E+07 26.7750 1.00000
  1.122E+10 1.122E+10 3.485E+00 1.914E+02 3.401E+03 2.753E+03 6.345E+03 6.348E+03 1.679E+07 27.0053 1.00000
  1.259E+10 1.259E+10 3.502E+00 2.150E+02 3.816E+03 3.149E+03 7.180E+03 7.183E+03 1.699E+07 27.2356 1.00000
  1.413E+10 1.413E+10 3.518E+00 2.414E+02 4.281E+03 3.603E+03 8.126E+03 8.130E+03 1.719E+07 27.4658 1.00000
  1.585E+10 1.585E+10 3.534E+00 2.711E+02 4.804E+03 4.123E+03 9.198E+03 9.201E+03 1.739E+07 27.6961 1.00000
  1.778E+10 1.778E+10 3.551E+00 3.044E+02 5.390E+03 4.718E+03 1.041E+04 1.042E+04 1.759E+07 27.9263 1.00000
  1.995E+10 1.995E+10 3.568E+00 3.418E+02 6.048E+03 5.399E+03 1.179E+04 1.179E+04 1.779E+07 28.1566 1.00000
  2.239E+10 2.239E+10 3.585E+00 3.837E+02 6.786E+03 6.179E+03 1.335E+04 1.335E+04 1.798E+07 28.3869 1.00000
  2.512E+10 2.512E+10 3.601E+00 4.308E+02 7.614E+03 7.071E+03 1.512E+04 1.512E+04 1.817E+07 28.6171 1.00000
  2.818E+10 2.818E+10 3.618E+00 4.836E+02 8.543E+03 8.093E+03 1.712E+04 1.712E+04 1.836E+07 28.8474 1.00000
  3.162E+10 3.162E+10 3.636E+00 5.429E+02 9.585E+03 9.263E+03 1.939E+04 1.939E+04 1.855E+07 29.0776 1.00000
  3.548E+10 3.548E+10 3.653E+00 6.094E+02 1.075E+04 1.060E+04 2.197E+04 2.197E+04 1.874E+07 29.3079 1.00000
  3.981E+10 3.981E+10 3.670E+00 6.840E+02 1.207E+04 1.214E+04 2.489E+04 2.489E+04 1.893E+07 29.5381 1.00000
  4.467E+10 4.467E+10 3.687E+00 7.678E+02 1.354E+04 1.389E+04 2.820E+04 2.821E+04 1.911E+07 29.7684 1.00000
  5.012E+10 5.012E+10 3.705E+00 8.618E+02 1.519E+04 1.591E+04 3.196E+04 3.196E+04 1.929E+07 29.9987 1.00000
  5.623E+10 5.623E+10 3.722E+00 9.672E+02 1.704E+04 1.821E+04 3.622E+04 3.623E+04 1.947E+07 30.2289 1.00000
  6.310E+10 6.310E+10 3.740E+00 1.086E+03 1.912E+04 2.085E+04 4.106E+04 4.106E+04 1.965E+07 30.4592 1.00000
  7.079E+10 7.079E+10 3.758E+00 1.218E+03 2.146E+04 2.387E+04 4.655E+04 4.655E+04 1.983E+07 30.6894 1.00000
  7.943E+10 7.943E+10 3.776E+00 1.367E+03 2.407E+04 2.734E+04 5.278E+04 5.278E+04 2.000E+07 30.9197 1.00000
  8.913E+10 8.913E+10 3.794E+00 1.535E+03 2.701E+04 3.131E+04 5.985E+04 5.986E+04 2.017E+07 31.1500 1.00000
  1.000E+11 1.000E+11 3.812E+00 1.722E+03 3.031E+04 3.585E+04 6.788E+04 6.788E+04 2.034E+07 31.3802 1.00000
  1.122E+11 1.122E+11 3.830E+00 1.933E+03 3.400E+04 4.106E+04 7.700E+04 7.700E+04 2.051E+07 31.6105 1.00000
  1.259E+11 1.259E+11 3.848E+00 2.169E+03 3.815E+04 4.702E+04 8.735E+04 8.735E+04 2.068E+07 31.8407 1.00000
  1.413E+11 1.413E+11 3.867E+00 2.434E+03 4.281E+04 5.386E+04 9.910E+04 9.910E+04 2.085E+07 32.0710 1.00000
  1.585E+11 1.585E+11 3.885E+00 2.731E+03 4.803E+04 6.169E+04 1.125E+05 1.125E+05 2.101E+07 32.3012 1.00000
  1.778E+11 1.778E+11 3.904E+00 3.065E+03 5.389E+04 7.067E+04 1.276E+05 1.276E+05 2.117E+07 32.5315 1.00000
  1.995E+11 1.995E+11 3.922E+00 3.439E+03 6.046E+04 8.095E+04 1.449E+05 1.449E+05 2.133E+07 32.7618 1.00000
  2.239E+11 2.239E+11 3.941E+00 3.859E+03 6.784E+04 9.274E+04 1.644E+05 1.644E+05 2.149E+07 32.9920 1.00000
  2.512E+11 2.512E+11 3.960E+00 4.331E+03 7.611E+04 1.062E+05 1.867E+05 1.867E+05 2.165E+07 33.2223 1.00000
  2.818E+11 2.818E+11 3.979E+00 4.860E+03 8.540E+04 1.217E+05 2.120E+05 2.120E+05 2.180E+07 33.4525 1.00000
  3.162E+11 3.162E+11 3.998E+00 5.453E+03 9.581E+04 1.395E+05 2.407E+05 2.407E+05 2.195E+07 33.6828 1.00000
  3.548E+11 3.548E+11 4.018E+00 6.119E+03 1.075E+05 1.598E+05 2.734E+05 2.734E+05 2.210E+07 33.9131 1.00000
  3.981E+11 3.981E+11 4.037E+00 6.866E+03 1.206E+05 1.831E+05 3.106E+05 3.106E+05 2.225E+07 34.1433 1.00000
  4.467E+11 4.467E+11 4.056E+00 7.704E+03 1.353E+05 2.099E+05 3.529E+05 3.529E+05 2.240E+07 34.3736 1.00000
  5.012E+11 5.012E+11 4.076E+00 8.645E+03 1.518E+05 2.405E+05 4.010E+05 4.010E+05 2.254E+07 34.6038 1.00000
  5.623E+11 5.623E+11 4.095E+00 9.700E+03 1.704E+05 2.756E+05 4.557E+05 4.557E+05 2.269E+07 34.8341 1.00000
  6.310E+11 6.310E+11 4.115E+00 1.088E+04 1.911E+05 3.159E+05 5.179E+05 5.179E+05 2.283E+07 35.0643 1.00000
  7.079E+11 7.079E+11 4.135E+00 1.221E+04 2.145E+05 3.621E+05 5.888E+05 5.888E+05 2.297E+07 35.2946 1.00000
  7.943E+11 7.943E+11 4.155E+00 1.370E+04 2.406E+05 4.151E+05 6.694E+05 6.694E+05 2.311E+07 35.5249 1.00000
  8.913E+11 8.913E+11 4.175E+00 1.538E+04 2.700E+05 4.758E+05 7.611E+05 7.611E+05 2.324E+07 35.7551 1.00000
  1.000E+12 1.000E+12 4.195E+00 1.725E+04 3.029E+05 5.454E+05 8.656E+05 8.656E+05 2.338E+07 35.9854 1.00000
  1.122E+12 1.122E+12 4.216E+00 1.936E+04 3.398E+05 6.253E+05 9.845E+05 9.845E+05 2.351E+07 36.2156 1.00000
  1.259E+12 1.259E+12 4.236E+00 2.172E+04 3.813E+05 7.169E+05 1.120E+06 1.120E+06 2.364E+07 36.4459 1.00000
  1.413E+12 1.413E+12 4.257E+00 2.437E+04 4.278E+05 8.220E+05 1.274E+06 1.274E+06 2.377E+07 36.6762 1.00000
  1.585E+12 1.585E+12 4.277E+00 2.735E+04 4.800E+05 9.425E+05 1.450E+06 1.450E+06 2.390E+07 36.9064 1.00000
  1.778E+12 1.778E+12 4.298E+00 3.068E+04 5.385E+05 1.081E+06 1.650E+06 1.650E+06 2.402E+07 37.1367 1.00000
  1.995E+12 1.995E+12 4.319E+00 3.443E+04 6.042E+05 1.239E+06 1.878E+06 1.878E+06 2.415E+07 37.3669 1.00000
  2.239E+12 2.239E+12 4.340E+00 3.863E+04 6.779E+05 1.421E+06 2.138E+06 2.138E+06 2.427E+07 37.5972 1.00000
  2.512E+12 2.512E+12 4.361E+00 4.334E+04 7.606E+05 1.630E+06 2.434E+06 2.434E+06 2.439E+07 37.8274 1.00000
  2.818E+12 2.818E+12 4.382E+00 4.863E+04 8.534E+05 1.869E+06 2.771E+06 2.771E+06 2.451E+07 38.0577 1.00000
  3.162E+12 3.162E+12 4.404E+00 5.457E+04 9.574E+05 2.144E+06 3.156E+06 3.156E+06 2.462E+07 38.2880 1.00000
  3.548E+12 3.548E+12 4.425E+00 6.123E+04 1.074E+06 2.459E+06 3.594E+06 3.594E+06 2.474E+07 38.5182 1.00000
  3.981E+12 3.981E+12 4.447E+00 6.870E+04 1.205E+06 2.821E+06 4.095E+06 4.095E+06 2.485E+07 38.7485 1.00000
  4.467E+12 4.467E+12 4.469E+00 7.708E+04 1.352E+06 3.236E+06 4.665E+06 4.665E+06 2.496E+07 38.9787 1.00000
  5.012E+12 5.012E+12 4.490E+00 8.649E+04 1.517E+06 3.712E+06 5.316E+06 5.316E+06 2.507E+07 39.2090 1.00000
  5.623E+12 5.623E+12 4.512E+00 9.704E+04 1.702E+06 4.258E+06 6.058E+06 6.058E+06 2.518E+07 39.4393 1.00000
  6.310E+12 6.310E+12 4.534E+00 1.089E+05 1.910E+06 4.886E+06 6.904E+06 6.904E+06 2.529E+07 39.6695 1.00000
  7.079E+12 7.079E+12 4.557E+00 1.222E+05 2.143E+06 5.606E+06 7.870E+06 7.870E+06 2.539E+07 39.8998 1.00000
  7.943E+12 7.943E+12 4.579E+00 1.371E+05 2.404E+06 6.432E+06 8.973E+06 8.973E+06 2.549E+07 40.1300 1.00000
  8.913E+12 8.913E+12 4.601E+00 1.538E+05 2.697E+06 7.380E+06 1.023E+07 1.023E+07 2.559E+07 40.3603 1.00000
  1.000E+13 1.000E+13 4.624E+00 1.726E+05 3.026E+06 8.469E+06 1.167E+07 1.167E+07 2.569E+07 40.5906 1.00000
  1.122E+13 1.122E+13 4.647E+00 1.936E+05 3.395E+06 9.719E+06 1.331E+07 1.331E+07 2.579E+07 40.8208 1.00000
  1.259E+13 1.259E+13 4.669E+00 2.173E+05 3.810E+06 1.115E+07 1.518E+07 1.518E+07 2.589E+07 41.0511 1.00000
  1.413E+13 1.413E+13 4.692E+00 2.438E+05 4.274E+06 1.280E+07 1.732E+07 1.732E+07 2.598E+07 41.2813 1.00000
  1.585E+13 1.585E+13 4.715E+00 2.735E+05 4.795E+06 1.469E+07 1.976E+07 1.976E+07 2.608E+07 41.5116 1.00000
  1.778E+13 1.778E+13 4.739E+00 3.069E+05 5.380E+06 1.686E+07 2.255E+07 2.255E+07 2.617E+07 41.7418 1.00000
  1.995E+13 1.995E+13 4.762E+00 3.443E+05 6.036E+06 1.936E+07 2.574E+07 2.574E+07 2.626E+07 41.9721 1.00000
  2.239E+13 2.239E+13 4.785E+00 3.863E+05 6.773E+06 2.222E+07 2.938E+07 2.938E+07 2.635E+07 42.2024 1.00000
  2.512E+13 2.512E+13 4.809E+00 4.335E+05 7.599E+06 2.551E+07 3.354E+07 3.354E+07 2.643E+07 42.4326 1.00000
  2.818E+13 2.818E+13 4.833E+00 4.864E+05 8.525E+06 2.928E+07 3.829E+07 3.829E+07 2.652E+07 42.6629 1.00000
  3.162E+13 3.162E+13 4.856E+00 5.457E+05 9.565E+06 3.362E+07 4.373E+07 4.373E+07 2.660E+07 42.8931 1.00000
  3.548E+13 3.548E+13 4.880E+00 6.123E+05 1.073E+07 3.860E+07 4.994E+07 4.994E+07 2.669E+07 43.1234 1.00000
  3.981E+13 3.981E+13 4.904E+00 6.870E+05 1.204E+07 4.432E+07 5.705E+07 5.705E+07 2.677E+07 43.3537 1.00000
  4.467E+13 4.467E+13 4.929E+00 7.709E+05 1.351E+07 5.089E+07 6.517E+07 6.517E+07 2.685E+07 43.5839 1.00000
  5.012E+13 5.012E+13 4.953E+00 8.649E+05 1.516E+07 5.843E+07 7.446E+07 7.446E+07 2.693E+07 43.8142 1.00000
  5.623E+13 5.623E+13 4.977E+00 9.705E+05 1.700E+07 6.710E+07 8.508E+07 8.508E+07 2.700E+07 44.0444 1.00000
  6.310E+13 6.310E+13 5.002E+00 1.089E+06 1.908E+07 7.706E+07 9.723E+07 9.723E+07 2.708E+07 44.2747 1.00000
  7.079E+13 7.079E+13 5.027E+00 1.222E+06 2.140E+07 8.850E+07 1.111E+08 1.111E+08 2.715E+07 44.5049 1.00000
  7.943E+13 7.943E+13 5.052E+00 1.371E+06 2.402E+07 1.016E+08 1.270E+08 1.270E+08 2.723E+07 44.7352 1.00000
  8.913E+13 8.913E+13 5.077E+00 1.538E+06 2.694E+07 1.167E+08 1.452E+08 1.452E+08 2.730E+07 44.9655 1.00000
