 Incident particle is a Tau with M = 1776.82000 MeV
 Index = 0: Nihonium
      Absorber with <Z/A> = 0.39485
 Sternheimer coef:  a     k=m_s   x_0    x_1    I[eV]   Cbar  delta0
                 0.2852  3.0000  0.6818  3.0000 1171.0  6.6925 0.00

 *** Table generated with PUMAS v1.00 ***

      T         p     Ionization  brems     pair     photonuc  Radloss    dE/dx   CSDA Range  delta   beta
    [MeV]    [MeV/c]  -----------------------[MeV cm^2/g]------------------------  [g/cm^2]
  1.000E+05 1.018E+05 1.572E+00 1.396E-03 2.542E-02 7.464E-03 3.428E-02 1.606E+00 3.113E+04  1.9496 0.99985
  1.122E+05 1.140E+05 1.590E+00 1.620E-03 3.042E-02 8.370E-03 4.041E-02 1.630E+00 3.867E+04  2.1137 0.99988
  1.259E+05 1.277E+05 1.607E+00 1.879E-03 3.629E-02 9.338E-03 4.751E-02 1.655E+00 4.701E+04  2.2831 0.99990
  1.413E+05 1.430E+05 1.625E+00 2.178E-03 4.318E-02 1.042E-02 5.578E-02 1.681E+00 5.622E+04  2.4575 0.99992
  1.585E+05 1.603E+05 1.642E+00 2.523E-03 5.125E-02 1.162E-02 6.540E-02 1.707E+00 6.640E+04  2.6367 0.99994
  1.778E+05 1.796E+05 1.659E+00 2.921E-03 6.068E-02 1.296E-02 7.655E-02 1.736E+00 7.763E+04  2.8205 0.99995
  1.995E+05 2.013E+05 1.676E+00 3.379E-03 7.167E-02 1.447E-02 8.951E-02 1.765E+00 9.003E+04  3.0087 0.99996
  2.239E+05 2.256E+05 1.692E+00 3.907E-03 8.445E-02 1.611E-02 1.045E-01 1.797E+00 1.037E+05  3.2011 0.99997
  2.512E+05 2.530E+05 1.709E+00 4.515E-03 9.930E-02 1.793E-02 1.217E-01 1.830E+00 1.188E+05  3.3974 0.99998
  2.818E+05 2.836E+05 1.725E+00 5.214E-03 1.165E-01 1.997E-02 1.417E-01 1.866E+00 1.353E+05  3.5974 0.99998
  3.162E+05 3.180E+05 1.741E+00 6.018E-03 1.364E-01 2.227E-02 1.647E-01 1.905E+00 1.536E+05  3.8009 0.99998
  3.548E+05 3.566E+05 1.756E+00 6.942E-03 1.594E-01 2.484E-02 1.912E-01 1.948E+00 1.736E+05  4.0078 0.99999
  3.981E+05 3.999E+05 1.772E+00 8.003E-03 1.859E-01 2.768E-02 2.216E-01 1.993E+00 1.956E+05  4.2177 0.99999
  4.467E+05 4.485E+05 1.787E+00 9.221E-03 2.165E-01 3.086E-02 2.566E-01 2.044E+00 2.197E+05  4.4304 0.99999
  5.012E+05 5.030E+05 1.802E+00 1.062E-02 2.516E-01 3.442E-02 2.966E-01 2.099E+00 2.460E+05  4.6458 0.99999
  5.623E+05 5.641E+05 1.817E+00 1.222E-02 2.919E-01 3.824E-02 3.424E-01 2.160E+00 2.747E+05  4.8636 1.00000
  6.310E+05 6.327E+05 1.832E+00 1.406E-02 3.382E-01 4.254E-02 3.947E-01 2.227E+00 3.060E+05  5.0837 1.00000
  7.079E+05 7.097E+05 1.847E+00 1.617E-02 3.911E-01 4.737E-02 4.546E-01 2.301E+00 3.400E+05  5.3056 1.00000
  7.943E+05 7.961E+05 1.861E+00 1.858E-02 4.516E-01 5.280E-02 5.230E-01 2.384E+00 3.769E+05  5.5294 1.00000
  8.913E+05 8.930E+05 1.876E+00 2.134E-02 5.208E-01 5.892E-02 6.011E-01 2.477E+00 4.168E+05  5.7547 1.00000
  1.000E+06 1.002E+06 1.890E+00 2.450E-02 5.998E-01 6.583E-02 6.901E-01 2.580E+00 4.598E+05  5.9813 1.00000
  1.122E+06 1.124E+06 1.904E+00 2.811E-02 6.897E-01 7.362E-02 7.915E-01 2.695E+00 5.061E+05  6.2090 1.00000
  1.259E+06 1.261E+06 1.918E+00 3.224E-02 7.922E-01 8.242E-02 9.068E-01 2.825E+00 5.557E+05  6.4376 1.00000
  1.413E+06 1.414E+06 1.932E+00 3.696E-02 9.087E-01 9.238E-02 1.038E+00 2.970E+00 6.088E+05  6.6669 1.00000
  1.585E+06 1.587E+06 1.945E+00 4.236E-02 1.041E+00 1.036E-01 1.187E+00 3.132E+00 6.653E+05  6.8967 1.00000
  1.778E+06 1.780E+06 1.959E+00 4.852E-02 1.192E+00 1.164E-01 1.356E+00 3.315E+00 7.253E+05  7.1266 1.00000
  1.995E+06 1.997E+06 1.972E+00 5.555E-02 1.362E+00 1.309E-01 1.549E+00 3.521E+00 7.889E+05  7.3567 1.00000
  2.239E+06 2.240E+06 1.986E+00 6.357E-02 1.556E+00 1.473E-01 1.766E+00 3.752E+00 8.559E+05  7.5868 1.00000
  2.512E+06 2.514E+06 1.999E+00 7.272E-02 1.775E+00 1.659E-01 2.013E+00 4.012E+00 9.263E+05  7.8168 1.00000
  2.818E+06 2.820E+06 2.012E+00 8.315E-02 2.023E+00 1.870E-01 2.293E+00 4.305E+00 1.000E+06  8.0469 1.00000
  3.162E+06 3.164E+06 2.025E+00 9.505E-02 2.303E+00 2.110E-01 2.609E+00 4.634E+00 1.077E+06  8.2771 1.00000
  3.548E+06 3.550E+06 2.038E+00 1.086E-01 2.620E+00 2.382E-01 2.967E+00 5.005E+00 1.157E+06  8.5072 1.00000
  3.981E+06 3.983E+06 2.051E+00 1.240E-01 2.978E+00 2.692E-01 3.372E+00 5.423E+00 1.241E+06  8.7374 1.00000
  4.467E+06 4.469E+06 2.064E+00 1.416E-01 3.383E+00 3.044E-01 3.829E+00 5.893E+00 1.327E+06  8.9675 1.00000
  5.012E+06 5.014E+06 2.076E+00 1.616E-01 3.839E+00 3.445E-01 4.346E+00 6.422E+00 1.415E+06  9.1977 1.00000
  5.623E+06 5.625E+06 2.089E+00 1.844E-01 4.354E+00 3.901E-01 4.929E+00 7.018E+00 1.506E+06  9.4279 1.00000
  6.310E+06 6.311E+06 2.101E+00 2.102E-01 4.935E+00 4.420E-01 5.587E+00 7.688E+00 1.600E+06  9.6581 1.00000
  7.079E+06 7.081E+06 2.113E+00 2.397E-01 5.590E+00 5.012E-01 6.331E+00 8.444E+00 1.696E+06  9.8883 1.00000
  7.943E+06 7.945E+06 2.125E+00 2.731E-01 6.327E+00 5.685E-01 7.169E+00 9.294E+00 1.793E+06 10.1185 1.00000
  8.913E+06 8.914E+06 2.137E+00 3.111E-01 7.158E+00 6.452E-01 8.114E+00 1.025E+01 1.893E+06 10.3487 1.00000
  1.000E+07 1.000E+07 2.149E+00 3.543E-01 8.093E+00 7.326E-01 9.180E+00 1.133E+01 1.994E+06 10.5789 1.00000
  1.122E+07 1.122E+07 2.161E+00 4.033E-01 9.145E+00 8.322E-01 1.038E+01 1.254E+01 2.096E+06 10.8091 1.00000
  1.259E+07 1.259E+07 2.172E+00 4.589E-01 1.033E+01 9.457E-01 1.173E+01 1.391E+01 2.200E+06 11.0393 1.00000
  1.413E+07 1.413E+07 2.184E+00 5.220E-01 1.166E+01 1.075E+00 1.326E+01 1.544E+01 2.305E+06 11.2696 1.00000
  1.585E+07 1.585E+07 2.195E+00 5.936E-01 1.316E+01 1.223E+00 1.498E+01 1.717E+01 2.411E+06 11.4998 1.00000
  1.778E+07 1.778E+07 2.206E+00 6.747E-01 1.485E+01 1.391E+00 1.691E+01 1.912E+01 2.518E+06 11.7300 1.00000
  1.995E+07 1.995E+07 2.218E+00 7.667E-01 1.674E+01 1.583E+00 1.909E+01 2.131E+01 2.625E+06 11.9603 1.00000
  2.239E+07 2.239E+07 2.229E+00 8.709E-01 1.887E+01 1.802E+00 2.154E+01 2.377E+01 2.734E+06 12.1905 1.00000
  2.512E+07 2.512E+07 2.240E+00 9.890E-01 2.126E+01 2.052E+00 2.430E+01 2.654E+01 2.843E+06 12.4207 1.00000
  2.818E+07 2.819E+07 2.251E+00 1.123E+00 2.395E+01 2.336E+00 2.741E+01 2.966E+01 2.952E+06 12.6510 1.00000
  3.162E+07 3.162E+07 2.262E+00 1.274E+00 2.697E+01 2.662E+00 3.091E+01 3.317E+01 3.062E+06 12.8812 1.00000
  3.548E+07 3.548E+07 2.273E+00 1.445E+00 3.037E+01 3.033E+00 3.485E+01 3.712E+01 3.172E+06 13.1115 1.00000
  3.981E+07 3.981E+07 2.284E+00 1.639E+00 3.418E+01 3.456E+00 3.928E+01 4.156E+01 3.282E+06 13.3417 1.00000
  4.467E+07 4.467E+07 2.295E+00 1.858E+00 3.846E+01 3.939E+00 4.426E+01 4.655E+01 3.393E+06 13.5720 1.00000
  5.012E+07 5.012E+07 2.306E+00 2.105E+00 4.327E+01 4.491E+00 4.987E+01 5.217E+01 3.504E+06 13.8022 1.00000
  5.623E+07 5.624E+07 2.317E+00 2.385E+00 4.867E+01 5.121E+00 5.618E+01 5.849E+01 3.615E+06 14.0325 1.00000
  6.310E+07 6.310E+07 2.328E+00 2.701E+00 5.474E+01 5.839E+00 6.328E+01 6.560E+01 3.726E+06 14.2627 1.00000
  7.079E+07 7.080E+07 2.339E+00 3.058E+00 6.154E+01 6.660E+00 7.126E+01 7.360E+01 3.837E+06 14.4930 1.00000
  7.943E+07 7.943E+07 2.350E+00 3.462E+00 6.919E+01 7.597E+00 8.025E+01 8.260E+01 3.948E+06 14.7232 1.00000
  8.913E+07 8.913E+07 2.361E+00 3.917E+00 7.777E+01 8.667E+00 9.035E+01 9.271E+01 4.059E+06 14.9535 1.00000
  1.000E+08 1.000E+08 2.372E+00 4.430E+00 8.740E+01 9.889E+00 1.017E+02 1.041E+02 4.169E+06 15.1837 1.00000
  1.122E+08 1.122E+08 2.383E+00 5.009E+00 9.822E+01 1.128E+01 1.145E+02 1.169E+02 4.280E+06 15.4140 1.00000
  1.259E+08 1.259E+08 2.394E+00 5.662E+00 1.104E+02 1.288E+01 1.289E+02 1.313E+02 4.391E+06 15.6442 1.00000
  1.413E+08 1.413E+08 2.405E+00 6.399E+00 1.240E+02 1.470E+01 1.451E+02 1.475E+02 4.502E+06 15.8745 1.00000
  1.585E+08 1.585E+08 2.416E+00 7.229E+00 1.393E+02 1.678E+01 1.633E+02 1.657E+02 4.612E+06 16.1048 1.00000
  1.778E+08 1.778E+08 2.428E+00 8.165E+00 1.564E+02 1.915E+01 1.837E+02 1.862E+02 4.722E+06 16.3350 1.00000
  1.995E+08 1.995E+08 2.439E+00 9.219E+00 1.757E+02 2.187E+01 2.068E+02 2.092E+02 4.832E+06 16.5653 1.00000
  2.239E+08 2.239E+08 2.450E+00 1.041E+01 1.973E+02 2.496E+01 2.327E+02 2.351E+02 4.942E+06 16.7955 1.00000
  2.512E+08 2.512E+08 2.461E+00 1.174E+01 2.216E+02 2.851E+01 2.618E+02 2.643E+02 5.052E+06 17.0258 1.00000
  2.818E+08 2.818E+08 2.473E+00 1.325E+01 2.488E+02 3.255E+01 2.946E+02 2.971E+02 5.162E+06 17.2560 1.00000
  3.162E+08 3.162E+08 2.484E+00 1.494E+01 2.793E+02 3.717E+01 3.315E+02 3.339E+02 5.271E+06 17.4863 1.00000
  3.548E+08 3.548E+08 2.496E+00 1.685E+01 3.136E+02 4.245E+01 3.729E+02 3.754E+02 5.380E+06 17.7166 1.00000
  3.981E+08 3.981E+08 2.507E+00 1.899E+01 3.521E+02 4.849E+01 4.196E+02 4.221E+02 5.489E+06 17.9468 1.00000
  4.467E+08 4.467E+08 2.519E+00 2.141E+01 3.953E+02 5.539E+01 4.721E+02 4.746E+02 5.598E+06 18.1771 1.00000
  5.012E+08 5.012E+08 2.530E+00 2.412E+01 4.437E+02 6.327E+01 5.311E+02 5.336E+02 5.706E+06 18.4073 1.00000
  5.623E+08 5.623E+08 2.542E+00 2.717E+01 4.981E+02 7.228E+01 5.975E+02 6.001E+02 5.815E+06 18.6376 1.00000
  6.310E+08 6.310E+08 2.554E+00 3.060E+01 5.591E+02 8.258E+01 6.723E+02 6.748E+02 5.923E+06 18.8678 1.00000
  7.079E+08 7.079E+08 2.565E+00 3.446E+01 6.275E+02 9.435E+01 7.563E+02 7.589E+02 6.030E+06 19.0981 1.00000
  7.943E+08 7.943E+08 2.577E+00 3.880E+01 7.043E+02 1.078E+02 8.509E+02 8.535E+02 6.138E+06 19.3284 1.00000
  8.913E+08 8.913E+08 2.589E+00 4.367E+01 7.905E+02 1.232E+02 9.574E+02 9.600E+02 6.245E+06 19.5586 1.00000
  1.000E+09 1.000E+09 2.601E+00 4.915E+01 8.872E+02 1.408E+02 1.077E+03 1.080E+03 6.352E+06 19.7889 1.00000
  1.122E+09 1.122E+09 2.613E+00 5.530E+01 9.957E+02 1.609E+02 1.212E+03 1.214E+03 6.459E+06 20.0191 1.00000
  1.259E+09 1.259E+09 2.625E+00 6.222E+01 1.117E+03 1.839E+02 1.364E+03 1.366E+03 6.565E+06 20.2494 1.00000
  1.413E+09 1.413E+09 2.637E+00 6.999E+01 1.254E+03 2.101E+02 1.534E+03 1.537E+03 6.672E+06 20.4796 1.00000
  1.585E+09 1.585E+09 2.650E+00 7.871E+01 1.407E+03 2.402E+02 1.726E+03 1.729E+03 6.778E+06 20.7099 1.00000
  1.778E+09 1.778E+09 2.662E+00 8.851E+01 1.579E+03 2.745E+02 1.942E+03 1.945E+03 6.883E+06 20.9402 1.00000
  1.995E+09 1.995E+09 2.674E+00 9.951E+01 1.772E+03 3.138E+02 2.186E+03 2.188E+03 6.989E+06 21.1704 1.00000
  2.239E+09 2.239E+09 2.687E+00 1.119E+02 1.989E+03 3.588E+02 2.459E+03 2.462E+03 7.094E+06 21.4007 1.00000
  2.512E+09 2.512E+09 2.699E+00 1.257E+02 2.232E+03 4.102E+02 2.768E+03 2.770E+03 7.198E+06 21.6309 1.00000
  2.818E+09 2.818E+09 2.712E+00 1.413E+02 2.504E+03 4.690E+02 3.115E+03 3.117E+03 7.303E+06 21.8612 1.00000
  3.162E+09 3.162E+09 2.724E+00 1.588E+02 2.810E+03 5.362E+02 3.505E+03 3.508E+03 7.407E+06 22.0915 1.00000
  3.548E+09 3.548E+09 2.737E+00 1.785E+02 3.153E+03 6.131E+02 3.945E+03 3.948E+03 7.511E+06 22.3217 1.00000
  3.981E+09 3.981E+09 2.750E+00 2.005E+02 3.538E+03 7.011E+02 4.440E+03 4.443E+03 7.614E+06 22.5520 1.00000
  4.467E+09 4.467E+09 2.763E+00 2.253E+02 3.971E+03 8.017E+02 4.997E+03 5.000E+03 7.718E+06 22.7822 1.00000
  5.012E+09 5.012E+09 2.776E+00 2.530E+02 4.455E+03 9.169E+02 5.625E+03 5.628E+03 7.821E+06 23.0125 1.00000
  5.623E+09 5.623E+09 2.789E+00 2.842E+02 4.999E+03 1.049E+03 6.332E+03 6.335E+03 7.923E+06 23.2427 1.00000
  6.310E+09 6.310E+09 2.802E+00 3.192E+02 5.609E+03 1.199E+03 7.128E+03 7.131E+03 8.026E+06 23.4730 1.00000
  7.079E+09 7.079E+09 2.815E+00 3.585E+02 6.294E+03 1.372E+03 8.024E+03 8.027E+03 8.127E+06 23.7033 1.00000
  7.943E+09 7.943E+09 2.828E+00 4.026E+02 7.062E+03 1.569E+03 9.034E+03 9.037E+03 8.229E+06 23.9335 1.00000
  8.913E+09 8.913E+09 2.841E+00 4.521E+02 7.924E+03 1.795E+03 1.017E+04 1.017E+04 8.330E+06 24.1638 1.00000
  1.000E+10 1.000E+10 2.855E+00 5.076E+02 8.891E+03 2.054E+03 1.145E+04 1.146E+04 8.431E+06 24.3940 1.00000
  1.122E+10 1.122E+10 2.868E+00 5.700E+02 9.977E+03 2.349E+03 1.290E+04 1.290E+04 8.532E+06 24.6243 1.00000
  1.259E+10 1.259E+10 2.882E+00 6.399E+02 1.119E+04 2.688E+03 1.452E+04 1.452E+04 8.632E+06 24.8546 1.00000
  1.413E+10 1.413E+10 2.895E+00 7.184E+02 1.256E+04 3.075E+03 1.635E+04 1.636E+04 8.732E+06 25.0848 1.00000
  1.585E+10 1.585E+10 2.909E+00 8.065E+02 1.409E+04 3.519E+03 1.842E+04 1.842E+04 8.831E+06 25.3151 1.00000
  1.778E+10 1.778E+10 2.923E+00 9.054E+02 1.581E+04 4.027E+03 2.074E+04 2.075E+04 8.930E+06 25.5453 1.00000
  1.995E+10 1.995E+10 2.937E+00 1.016E+03 1.774E+04 4.608E+03 2.337E+04 2.337E+04 9.029E+06 25.7756 1.00000
  2.239E+10 2.239E+10 2.951E+00 1.141E+03 1.991E+04 5.273E+03 2.632E+04 2.632E+04 9.127E+06 26.0059 1.00000
  2.512E+10 2.512E+10 2.965E+00 1.281E+03 2.234E+04 6.035E+03 2.965E+04 2.965E+04 9.225E+06 26.2361 1.00000
  2.818E+10 2.818E+10 2.979E+00 1.437E+03 2.506E+04 6.907E+03 3.341E+04 3.341E+04 9.323E+06 26.4664 1.00000
  3.162E+10 3.162E+10 2.993E+00 1.613E+03 2.812E+04 7.906E+03 3.764E+04 3.764E+04 9.420E+06 26.6966 1.00000
  3.548E+10 3.548E+10 3.007E+00 1.811E+03 3.155E+04 9.050E+03 4.241E+04 4.241E+04 9.517E+06 26.9269 1.00000
  3.981E+10 3.981E+10 3.021E+00 2.032E+03 3.540E+04 1.036E+04 4.779E+04 4.779E+04 9.613E+06 27.1571 1.00000
  4.467E+10 4.467E+10 3.036E+00 2.281E+03 3.972E+04 1.186E+04 5.386E+04 5.386E+04 9.709E+06 27.3874 1.00000
  5.012E+10 5.012E+10 3.050E+00 2.559E+03 4.456E+04 1.358E+04 6.070E+04 6.070E+04 9.805E+06 27.6177 1.00000
  5.623E+10 5.623E+10 3.065E+00 2.872E+03 5.000E+04 1.554E+04 6.841E+04 6.842E+04 9.900E+06 27.8479 1.00000
  6.310E+10 6.310E+10 3.079E+00 3.223E+03 5.610E+04 1.780E+04 7.712E+04 7.712E+04 9.994E+06 28.0782 1.00000
  7.079E+10 7.079E+10 3.094E+00 3.617E+03 6.294E+04 2.038E+04 8.694E+04 8.694E+04 1.009E+07 28.3084 1.00000
  7.943E+10 7.943E+10 3.109E+00 4.059E+03 7.062E+04 2.333E+04 9.801E+04 9.802E+04 1.018E+07 28.5387 1.00000
  8.913E+10 8.913E+10 3.124E+00 4.555E+03 7.924E+04 2.672E+04 1.105E+05 1.105E+05 1.028E+07 28.7690 1.00000
  1.000E+11 1.000E+11 3.139E+00 5.112E+03 8.890E+04 3.060E+04 1.246E+05 1.246E+05 1.037E+07 28.9992 1.00000
  1.122E+11 1.122E+11 3.154E+00 5.736E+03 9.975E+04 3.504E+04 1.405E+05 1.405E+05 1.046E+07 29.2295 1.00000
  1.259E+11 1.259E+11 3.169E+00 6.437E+03 1.119E+05 4.013E+04 1.585E+05 1.585E+05 1.055E+07 29.4597 1.00000
  1.413E+11 1.413E+11 3.184E+00 7.223E+03 1.256E+05 4.597E+04 1.788E+05 1.788E+05 1.064E+07 29.6900 1.00000
  1.585E+11 1.585E+11 3.199E+00 8.105E+03 1.409E+05 5.265E+04 2.016E+05 2.017E+05 1.073E+07 29.9202 1.00000
  1.778E+11 1.778E+11 3.215E+00 9.094E+03 1.581E+05 6.031E+04 2.275E+05 2.275E+05 1.083E+07 30.1505 1.00000
  1.995E+11 1.995E+11 3.230E+00 1.020E+04 1.774E+05 6.909E+04 2.567E+05 2.567E+05 1.092E+07 30.3808 1.00000
  2.239E+11 2.239E+11 3.246E+00 1.145E+04 1.990E+05 7.915E+04 2.896E+05 2.896E+05 1.100E+07 30.6110 1.00000
  2.512E+11 2.512E+11 3.261E+00 1.285E+04 2.233E+05 9.068E+04 3.268E+05 3.268E+05 1.109E+07 30.8413 1.00000
  2.818E+11 2.818E+11 3.277E+00 1.442E+04 2.505E+05 1.039E+05 3.688E+05 3.688E+05 1.118E+07 31.0715 1.00000
  3.162E+11 3.162E+11 3.293E+00 1.618E+04 2.811E+05 1.190E+05 4.163E+05 4.163E+05 1.127E+07 31.3018 1.00000
  3.548E+11 3.548E+11 3.309E+00 1.815E+04 3.153E+05 1.364E+05 4.699E+05 4.699E+05 1.136E+07 31.5321 1.00000
  3.981E+11 3.981E+11 3.325E+00 2.037E+04 3.538E+05 1.563E+05 5.305E+05 5.305E+05 1.144E+07 31.7623 1.00000
  4.467E+11 4.467E+11 3.341E+00 2.285E+04 3.970E+05 1.791E+05 5.989E+05 5.989E+05 1.153E+07 31.9926 1.00000
  5.012E+11 5.012E+11 3.357E+00 2.564E+04 4.454E+05 2.053E+05 6.763E+05 6.763E+05 1.162E+07 32.2228 1.00000
  5.623E+11 5.623E+11 3.373E+00 2.877E+04 4.997E+05 2.353E+05 7.638E+05 7.638E+05 1.170E+07 32.4531 1.00000
  6.310E+11 6.310E+11 3.390E+00 3.228E+04 5.607E+05 2.696E+05 8.626E+05 8.626E+05 1.179E+07 32.6833 1.00000
  7.079E+11 7.079E+11 3.406E+00 3.622E+04 6.291E+05 3.091E+05 9.743E+05 9.744E+05 1.187E+07 32.9136 1.00000
  7.943E+11 7.943E+11 3.423E+00 4.064E+04 7.058E+05 3.542E+05 1.101E+06 1.101E+06 1.195E+07 33.1439 1.00000
  8.913E+11 8.913E+11 3.439E+00 4.561E+04 7.919E+05 4.061E+05 1.244E+06 1.244E+06 1.204E+07 33.3741 1.00000
  1.000E+12 1.000E+12 3.456E+00 5.117E+04 8.885E+05 4.655E+05 1.405E+06 1.405E+06 1.212E+07 33.6044 1.00000
  1.122E+12 1.122E+12 3.473E+00 5.742E+04 9.969E+05 5.337E+05 1.588E+06 1.588E+06 1.220E+07 33.8346 1.00000
  1.259E+12 1.259E+12 3.490E+00 6.442E+04 1.118E+06 6.119E+05 1.795E+06 1.795E+06 1.228E+07 34.0649 1.00000
  1.413E+12 1.413E+12 3.507E+00 7.228E+04 1.255E+06 7.015E+05 2.029E+06 2.029E+06 1.236E+07 34.2952 1.00000
  1.585E+12 1.585E+12 3.524E+00 8.110E+04 1.408E+06 8.044E+05 2.293E+06 2.293E+06 1.244E+07 34.5254 1.00000
  1.778E+12 1.778E+12 3.541E+00 9.100E+04 1.580E+06 9.223E+05 2.593E+06 2.593E+06 1.252E+07 34.7557 1.00000
  1.995E+12 1.995E+12 3.558E+00 1.021E+05 1.772E+06 1.058E+06 2.932E+06 2.932E+06 1.260E+07 34.9859 1.00000
  2.239E+12 2.239E+12 3.576E+00 1.146E+05 1.989E+06 1.213E+06 3.316E+06 3.316E+06 1.268E+07 35.2162 1.00000
  2.512E+12 2.512E+12 3.593E+00 1.285E+05 2.231E+06 1.391E+06 3.751E+06 3.751E+06 1.276E+07 35.4464 1.00000
  2.818E+12 2.818E+12 3.611E+00 1.442E+05 2.503E+06 1.595E+06 4.243E+06 4.243E+06 1.283E+07 35.6767 1.00000
  3.162E+12 3.162E+12 3.629E+00 1.618E+05 2.809E+06 1.830E+06 4.800E+06 4.800E+06 1.291E+07 35.9070 1.00000
  3.548E+12 3.548E+12 3.646E+00 1.816E+05 3.151E+06 2.099E+06 5.431E+06 5.431E+06 1.299E+07 36.1372 1.00000
  3.981E+12 3.981E+12 3.664E+00 2.037E+05 3.535E+06 2.407E+06 6.147E+06 6.147E+06 1.306E+07 36.3675 1.00000
  4.467E+12 4.467E+12 3.682E+00 2.286E+05 3.967E+06 2.762E+06 6.957E+06 6.957E+06 1.314E+07 36.5977 1.00000
  5.012E+12 5.012E+12 3.700E+00 2.565E+05 4.450E+06 3.168E+06 7.875E+06 7.875E+06 1.321E+07 36.8280 1.00000
  5.623E+12 5.623E+12 3.718E+00 2.878E+05 4.993E+06 3.634E+06 8.916E+06 8.916E+06 1.328E+07 37.0583 1.00000
  6.310E+12 6.310E+12 3.737E+00 3.229E+05 5.602E+06 4.170E+06 1.009E+07 1.009E+07 1.336E+07 37.2885 1.00000
  7.079E+12 7.079E+12 3.755E+00 3.623E+05 6.286E+06 4.784E+06 1.143E+07 1.143E+07 1.343E+07 37.5188 1.00000
  7.943E+12 7.943E+12 3.774E+00 4.065E+05 7.052E+06 5.489E+06 1.295E+07 1.295E+07 1.350E+07 37.7490 1.00000
  8.913E+12 8.913E+12 3.792E+00 4.561E+05 7.912E+06 6.299E+06 1.467E+07 1.467E+07 1.357E+07 37.9793 1.00000
  1.000E+13 1.000E+13 3.811E+00 5.118E+05 8.877E+06 7.228E+06 1.662E+07 1.662E+07 1.364E+07 38.2096 1.00000
  1.122E+13 1.122E+13 3.830E+00 5.742E+05 9.960E+06 8.295E+06 1.883E+07 1.883E+07 1.371E+07 38.4398 1.00000
  1.259E+13 1.259E+13 3.848E+00 6.443E+05 1.117E+07 9.519E+06 2.134E+07 2.134E+07 1.378E+07 38.6701 1.00000
  1.413E+13 1.413E+13 3.867E+00 7.229E+05 1.254E+07 1.093E+07 2.419E+07 2.419E+07 1.384E+07 38.9003 1.00000
  1.585E+13 1.585E+13 3.887E+00 8.111E+05 1.407E+07 1.254E+07 2.742E+07 2.742E+07 1.391E+07 39.1306 1.00000
  1.778E+13 1.778E+13 3.906E+00 9.101E+05 1.578E+07 1.439E+07 3.109E+07 3.109E+07 1.398E+07 39.3608 1.00000
  1.995E+13 1.995E+13 3.925E+00 1.021E+06 1.771E+07 1.652E+07 3.525E+07 3.525E+07 1.404E+07 39.5911 1.00000
  2.239E+13 2.239E+13 3.944E+00 1.146E+06 1.987E+07 1.896E+07 3.998E+07 3.998E+07 1.411E+07 39.8214 1.00000
  2.512E+13 2.512E+13 3.964E+00 1.286E+06 2.229E+07 2.177E+07 4.535E+07 4.535E+07 1.417E+07 40.0516 1.00000
  2.818E+13 2.818E+13 3.984E+00 1.442E+06 2.501E+07 2.499E+07 5.144E+07 5.144E+07 1.424E+07 40.2819 1.00000
  3.162E+13 3.162E+13 4.003E+00 1.618E+06 2.806E+07 2.869E+07 5.837E+07 5.837E+07 1.430E+07 40.5121 1.00000
  3.548E+13 3.548E+13 4.023E+00 1.816E+06 3.148E+07 3.294E+07 6.624E+07 6.624E+07 1.436E+07 40.7424 1.00000
  3.981E+13 3.981E+13 4.043E+00 2.037E+06 3.532E+07 3.783E+07 7.518E+07 7.518E+07 1.442E+07 40.9727 1.00000
  4.467E+13 4.467E+13 4.063E+00 2.286E+06 3.963E+07 4.343E+07 8.534E+07 8.534E+07 1.448E+07 41.2029 1.00000
  5.012E+13 5.012E+13 4.083E+00 2.565E+06 4.446E+07 4.987E+07 9.690E+07 9.690E+07 1.454E+07 41.4332 1.00000
  5.623E+13 5.623E+13 4.103E+00 2.878E+06 4.988E+07 5.727E+07 1.100E+08 1.100E+08 1.460E+07 41.6634 1.00000
  6.310E+13 6.310E+13 4.124E+00 3.229E+06 5.596E+07 6.577E+07 1.250E+08 1.250E+08 1.466E+07 41.8937 1.00000
  7.079E+13 7.079E+13 4.144E+00 3.623E+06 6.279E+07 7.553E+07 1.419E+08 1.419E+08 1.472E+07 42.1239 1.00000
  7.943E+13 7.943E+13 4.165E+00 4.065E+06 7.045E+07 8.675E+07 1.613E+08 1.613E+08 1.478E+07 42.3542 1.00000
  8.913E+13 8.913E+13 4.185E+00 4.561E+06 7.904E+07 9.964E+07 1.832E+08 1.832E+08 1.483E+07 42.5845 1.00000
