 Incident particle is a Tau with M = 1776.82000 MeV
 Index = 0: Niobium
      Absorber with <Z/A> = 0.44130
 Sternheimer coef:  a     k=m_s   x_0    x_1    I[eV]   Cbar  delta0
                 0.1388  3.0930  0.1785  3.2201  417.0  5.0141 0.14

 *** Table generated with PUMAS v1.00 ***

      T         p     Ionization  brems     pair     photonuc  Radloss    dE/dx   CSDA Range  delta   beta
    [MeV]    [MeV/c]  -----------------------[MeV cm^2/g]------------------------  [g/cm^2]
  1.000E+05 1.018E+05 1.789E+00 6.208E-04 1.050E-02 7.761E-03 1.889E-02 1.808E+00 2.765E+04  3.5310 0.99985
  1.122E+05 1.140E+05 1.808E+00 7.190E-04 1.259E-02 8.725E-03 2.203E-02 1.830E+00 3.436E+04  3.7124 0.99988
  1.259E+05 1.277E+05 1.827E+00 8.323E-04 1.504E-02 9.758E-03 2.563E-02 1.853E+00 4.179E+04  3.8972 0.99990
  1.413E+05 1.430E+05 1.846E+00 9.630E-04 1.792E-02 1.092E-02 2.980E-02 1.875E+00 5.003E+04  4.0855 0.99992
  1.585E+05 1.603E+05 1.864E+00 1.114E-03 2.129E-02 1.220E-02 3.461E-02 1.899E+00 5.917E+04  4.2769 0.99994
  1.778E+05 1.796E+05 1.882E+00 1.287E-03 2.524E-02 1.364E-02 4.017E-02 1.922E+00 6.929E+04  4.4715 0.99995
  1.995E+05 2.013E+05 1.900E+00 1.486E-03 2.985E-02 1.527E-02 4.661E-02 1.947E+00 8.051E+04  4.6689 0.99996
  2.239E+05 2.256E+05 1.918E+00 1.716E-03 3.523E-02 1.704E-02 5.398E-02 1.972E+00 9.293E+04  4.8692 0.99997
  2.512E+05 2.530E+05 1.936E+00 1.980E-03 4.148E-02 1.902E-02 6.247E-02 1.999E+00 1.067E+05  5.0722 0.99998
  2.818E+05 2.836E+05 1.954E+00 2.283E-03 4.873E-02 2.124E-02 7.225E-02 2.026E+00 1.219E+05  5.2777 0.99998
  3.162E+05 3.180E+05 1.971E+00 2.631E-03 5.713E-02 2.374E-02 8.350E-02 2.055E+00 1.388E+05  5.4856 0.99998
  3.548E+05 3.566E+05 1.988E+00 3.031E-03 6.686E-02 2.653E-02 9.642E-02 2.085E+00 1.574E+05  5.6958 0.99999
  3.981E+05 3.999E+05 2.006E+00 3.489E-03 7.809E-02 2.965E-02 1.112E-01 2.117E+00 1.780E+05  5.9081 0.99999
  4.467E+05 4.485E+05 2.023E+00 4.015E-03 9.105E-02 3.312E-02 1.282E-01 2.151E+00 2.008E+05  6.1224 0.99999
  5.012E+05 5.030E+05 2.040E+00 4.618E-03 1.060E-01 3.702E-02 1.476E-01 2.187E+00 2.259E+05  6.3387 0.99999
  5.623E+05 5.641E+05 2.056E+00 5.309E-03 1.231E-01 4.123E-02 1.697E-01 2.226E+00 2.536E+05  6.5567 1.00000
  6.310E+05 6.327E+05 2.073E+00 6.101E-03 1.429E-01 4.597E-02 1.949E-01 2.268E+00 2.842E+05  6.7763 1.00000
  7.079E+05 7.097E+05 2.089E+00 7.007E-03 1.655E-01 5.129E-02 2.238E-01 2.313E+00 3.178E+05  6.9974 1.00000
  7.943E+05 7.961E+05 2.106E+00 8.044E-03 1.914E-01 5.730E-02 2.567E-01 2.362E+00 3.548E+05  7.2199 1.00000
  8.913E+05 8.930E+05 2.122E+00 9.231E-03 2.211E-01 6.407E-02 2.944E-01 2.416E+00 3.953E+05  7.4437 1.00000
  1.000E+06 1.002E+06 2.138E+00 1.059E-02 2.550E-01 7.172E-02 3.373E-01 2.475E+00 4.398E+05  7.6687 1.00000
  1.122E+06 1.124E+06 2.154E+00 1.214E-02 2.937E-01 8.036E-02 3.862E-01 2.540E+00 4.885E+05  7.8946 1.00000
  1.259E+06 1.261E+06 2.169E+00 1.391E-02 3.379E-01 9.013E-02 4.419E-01 2.611E+00 5.416E+05  8.1215 1.00000
  1.413E+06 1.414E+06 2.185E+00 1.594E-02 3.882E-01 1.012E-01 5.053E-01 2.690E+00 5.996E+05  8.3491 1.00000
  1.585E+06 1.587E+06 2.200E+00 1.825E-02 4.455E-01 1.137E-01 5.774E-01 2.778E+00 6.627E+05  8.5774 1.00000
  1.778E+06 1.780E+06 2.215E+00 2.089E-02 5.107E-01 1.279E-01 6.594E-01 2.875E+00 7.311E+05  8.8063 1.00000
  1.995E+06 1.997E+06 2.231E+00 2.390E-02 5.847E-01 1.440E-01 7.526E-01 2.983E+00 8.052E+05  9.0357 1.00000
  2.239E+06 2.240E+06 2.246E+00 2.734E-02 6.688E-01 1.622E-01 8.583E-01 3.104E+00 8.852E+05  9.2653 1.00000
  2.512E+06 2.514E+06 2.260E+00 3.126E-02 7.641E-01 1.830E-01 9.783E-01 3.239E+00 9.714E+05  9.4953 1.00000
  2.818E+06 2.820E+06 2.275E+00 3.572E-02 8.722E-01 2.065E-01 1.114E+00 3.390E+00 1.064E+06  9.7253 1.00000
  3.162E+06 3.164E+06 2.290E+00 4.082E-02 9.946E-01 2.333E-01 1.269E+00 3.558E+00 1.163E+06  9.9555 1.00000
  3.548E+06 3.550E+06 2.304E+00 4.662E-02 1.133E+00 2.637E-01 1.443E+00 3.748E+00 1.269E+06 10.1856 1.00000
  3.981E+06 3.983E+06 2.318E+00 5.323E-02 1.290E+00 2.983E-01 1.641E+00 3.960E+00 1.381E+06 10.4158 1.00000
  4.467E+06 4.469E+06 2.333E+00 6.075E-02 1.467E+00 3.376E-01 1.865E+00 4.198E+00 1.500E+06 10.6459 1.00000
  5.012E+06 5.014E+06 2.347E+00 6.931E-02 1.667E+00 3.824E-01 2.119E+00 4.466E+00 1.626E+06 10.8761 1.00000
  5.623E+06 5.625E+06 2.361E+00 7.906E-02 1.893E+00 4.333E-01 2.406E+00 4.766E+00 1.759E+06 11.1063 1.00000
  6.310E+06 6.311E+06 2.374E+00 9.014E-02 2.149E+00 4.913E-01 2.730E+00 5.104E+00 1.898E+06 11.3365 1.00000
  7.079E+06 7.081E+06 2.388E+00 1.027E-01 2.436E+00 5.574E-01 3.096E+00 5.484E+00 2.044E+06 11.5667 1.00000
  7.943E+06 7.945E+06 2.401E+00 1.171E-01 2.761E+00 6.326E-01 3.511E+00 5.912E+00 2.195E+06 11.7969 1.00000
  8.913E+06 8.914E+06 2.415E+00 1.334E-01 3.127E+00 7.183E-01 3.978E+00 6.393E+00 2.353E+06 12.0271 1.00000
  1.000E+07 1.000E+07 2.428E+00 1.519E-01 3.539E+00 8.160E-01 4.507E+00 6.935E+00 2.517E+06 12.2573 1.00000
  1.122E+07 1.122E+07 2.441E+00 1.729E-01 4.003E+00 9.274E-01 5.103E+00 7.544E+00 2.686E+06 12.4875 1.00000
  1.259E+07 1.259E+07 2.454E+00 1.967E-01 4.526E+00 1.054E+00 5.777E+00 8.231E+00 2.859E+06 12.7177 1.00000
  1.413E+07 1.413E+07 2.467E+00 2.238E-01 5.114E+00 1.199E+00 6.537E+00 9.004E+00 3.038E+06 12.9480 1.00000
  1.585E+07 1.585E+07 2.479E+00 2.545E-01 5.776E+00 1.364E+00 7.395E+00 9.874E+00 3.221E+06 13.1782 1.00000
  1.778E+07 1.778E+07 2.492E+00 2.893E-01 6.521E+00 1.552E+00 8.362E+00 1.085E+01 3.408E+06 13.4084 1.00000
  1.995E+07 1.995E+07 2.505E+00 3.289E-01 7.358E+00 1.767E+00 9.454E+00 1.196E+01 3.599E+06 13.6387 1.00000
  2.239E+07 2.239E+07 2.517E+00 3.736E-01 8.300E+00 2.012E+00 1.069E+01 1.320E+01 3.793E+06 13.8689 1.00000
  2.512E+07 2.512E+07 2.530E+00 4.244E-01 9.360E+00 2.291E+00 1.208E+01 1.460E+01 3.990E+06 14.0991 1.00000
  2.818E+07 2.819E+07 2.542E+00 4.819E-01 1.055E+01 2.610E+00 1.364E+01 1.618E+01 4.189E+06 14.3294 1.00000
  3.162E+07 3.162E+07 2.555E+00 5.470E-01 1.189E+01 2.974E+00 1.541E+01 1.796E+01 4.391E+06 14.5596 1.00000
  3.548E+07 3.548E+07 2.567E+00 6.207E-01 1.339E+01 3.389E+00 1.740E+01 1.997E+01 4.595E+06 14.7899 1.00000
  3.981E+07 3.981E+07 2.579E+00 7.042E-01 1.508E+01 3.863E+00 1.965E+01 2.223E+01 4.801E+06 15.0201 1.00000
  4.467E+07 4.467E+07 2.591E+00 7.986E-01 1.698E+01 4.403E+00 2.218E+01 2.477E+01 5.008E+06 15.2504 1.00000
  5.012E+07 5.012E+07 2.604E+00 9.054E-01 1.911E+01 5.020E+00 2.504E+01 2.764E+01 5.217E+06 15.4806 1.00000
  5.623E+07 5.624E+07 2.616E+00 1.026E+00 2.150E+01 5.725E+00 2.826E+01 3.087E+01 5.427E+06 15.7109 1.00000
  6.310E+07 6.310E+07 2.628E+00 1.163E+00 2.419E+01 6.529E+00 3.189E+01 3.451E+01 5.637E+06 15.9411 1.00000
  7.079E+07 7.080E+07 2.640E+00 1.317E+00 2.721E+01 7.448E+00 3.598E+01 3.862E+01 5.849E+06 16.1714 1.00000
  7.943E+07 7.943E+07 2.653E+00 1.491E+00 3.060E+01 8.496E+00 4.059E+01 4.324E+01 6.060E+06 16.4016 1.00000
  8.913E+07 8.913E+07 2.665E+00 1.688E+00 3.441E+01 9.693E+00 4.579E+01 4.846E+01 6.272E+06 16.6319 1.00000
  1.000E+08 1.000E+08 2.677E+00 1.910E+00 3.868E+01 1.106E+01 5.166E+01 5.433E+01 6.485E+06 16.8621 1.00000
  1.122E+08 1.122E+08 2.690E+00 2.161E+00 4.348E+01 1.262E+01 5.827E+01 6.096E+01 6.697E+06 17.0924 1.00000
  1.259E+08 1.259E+08 2.702E+00 2.445E+00 4.887E+01 1.441E+01 6.572E+01 6.842E+01 6.909E+06 17.3226 1.00000
  1.413E+08 1.413E+08 2.714E+00 2.764E+00 5.491E+01 1.644E+01 7.412E+01 7.684E+01 7.122E+06 17.5529 1.00000
  1.585E+08 1.585E+08 2.727E+00 3.124E+00 6.170E+01 1.877E+01 8.359E+01 8.632E+01 7.334E+06 17.7832 1.00000
  1.778E+08 1.778E+08 2.739E+00 3.531E+00 6.932E+01 2.143E+01 9.428E+01 9.702E+01 7.545E+06 18.0134 1.00000
  1.995E+08 1.995E+08 2.752E+00 3.989E+00 7.787E+01 2.446E+01 1.063E+02 1.091E+02 7.757E+06 18.2437 1.00000
  2.239E+08 2.239E+08 2.764E+00 4.505E+00 8.747E+01 2.793E+01 1.199E+02 1.227E+02 7.967E+06 18.4739 1.00000
  2.512E+08 2.512E+08 2.777E+00 5.087E+00 9.824E+01 3.189E+01 1.352E+02 1.380E+02 8.178E+06 18.7042 1.00000
  2.818E+08 2.818E+08 2.790E+00 5.742E+00 1.103E+02 3.642E+01 1.525E+02 1.553E+02 8.387E+06 18.9344 1.00000
  3.162E+08 3.162E+08 2.803E+00 6.480E+00 1.239E+02 4.159E+01 1.720E+02 1.748E+02 8.597E+06 19.1647 1.00000
  3.548E+08 3.548E+08 2.815E+00 7.311E+00 1.391E+02 4.750E+01 1.939E+02 1.967E+02 8.805E+06 19.3950 1.00000
  3.981E+08 3.981E+08 2.828E+00 8.246E+00 1.562E+02 5.426E+01 2.187E+02 2.215E+02 9.013E+06 19.6252 1.00000
  4.467E+08 4.467E+08 2.841E+00 9.299E+00 1.754E+02 6.198E+01 2.466E+02 2.495E+02 9.220E+06 19.8555 1.00000
  5.012E+08 5.012E+08 2.854E+00 1.048E+01 1.969E+02 7.080E+01 2.782E+02 2.810E+02 9.426E+06 20.0857 1.00000
  5.623E+08 5.623E+08 2.867E+00 1.182E+01 2.210E+02 8.088E+01 3.137E+02 3.166E+02 9.631E+06 20.3160 1.00000
  6.310E+08 6.310E+08 2.880E+00 1.332E+01 2.481E+02 9.240E+01 3.538E+02 3.567E+02 9.836E+06 20.5462 1.00000
  7.079E+08 7.079E+08 2.893E+00 1.500E+01 2.785E+02 1.056E+02 3.991E+02 4.020E+02 1.004E+07 20.7765 1.00000
  7.943E+08 7.943E+08 2.907E+00 1.690E+01 3.126E+02 1.206E+02 4.502E+02 4.531E+02 1.024E+07 21.0068 1.00000
  8.913E+08 8.913E+08 2.920E+00 1.903E+01 3.509E+02 1.378E+02 5.078E+02 5.107E+02 1.044E+07 21.2370 1.00000
  1.000E+09 1.000E+09 2.933E+00 2.143E+01 3.938E+02 1.575E+02 5.728E+02 5.757E+02 1.065E+07 21.4673 1.00000
  1.122E+09 1.122E+09 2.947E+00 2.412E+01 4.420E+02 1.800E+02 6.462E+02 6.491E+02 1.085E+07 21.6975 1.00000
  1.259E+09 1.259E+09 2.960E+00 2.715E+01 4.961E+02 2.057E+02 7.290E+02 7.320E+02 1.104E+07 21.9278 1.00000
  1.413E+09 1.413E+09 2.974E+00 3.055E+01 5.568E+02 2.351E+02 8.225E+02 8.255E+02 1.124E+07 22.1580 1.00000
  1.585E+09 1.585E+09 2.988E+00 3.438E+01 6.249E+02 2.688E+02 9.280E+02 9.310E+02 1.144E+07 22.3883 1.00000
  1.778E+09 1.778E+09 3.001E+00 3.867E+01 7.013E+02 3.072E+02 1.047E+03 1.050E+03 1.163E+07 22.6186 1.00000
  1.995E+09 1.995E+09 3.015E+00 4.350E+01 7.870E+02 3.512E+02 1.182E+03 1.185E+03 1.183E+07 22.8488 1.00000
  2.239E+09 2.239E+09 3.029E+00 4.892E+01 8.832E+02 4.015E+02 1.334E+03 1.337E+03 1.202E+07 23.0791 1.00000
  2.512E+09 2.512E+09 3.043E+00 5.501E+01 9.911E+02 4.590E+02 1.505E+03 1.508E+03 1.222E+07 23.3093 1.00000
  2.818E+09 2.818E+09 3.057E+00 6.185E+01 1.112E+03 5.248E+02 1.699E+03 1.702E+03 1.241E+07 23.5396 1.00000
  3.162E+09 3.162E+09 3.071E+00 6.953E+01 1.248E+03 6.000E+02 1.918E+03 1.921E+03 1.260E+07 23.7699 1.00000
  3.548E+09 3.548E+09 3.085E+00 7.815E+01 1.400E+03 6.861E+02 2.165E+03 2.168E+03 1.279E+07 24.0001 1.00000
  3.981E+09 3.981E+09 3.100E+00 8.783E+01 1.571E+03 7.846E+02 2.444E+03 2.447E+03 1.298E+07 24.2304 1.00000
  4.467E+09 4.467E+09 3.114E+00 9.871E+01 1.763E+03 8.972E+02 2.759E+03 2.762E+03 1.316E+07 24.4606 1.00000
  5.012E+09 5.012E+09 3.128E+00 1.109E+02 1.979E+03 1.026E+03 3.116E+03 3.119E+03 1.335E+07 24.6909 1.00000
  5.623E+09 5.623E+09 3.143E+00 1.246E+02 2.220E+03 1.173E+03 3.518E+03 3.522E+03 1.353E+07 24.9211 1.00000
  6.310E+09 6.310E+09 3.158E+00 1.400E+02 2.491E+03 1.342E+03 3.974E+03 3.977E+03 1.372E+07 25.1514 1.00000
  7.079E+09 7.079E+09 3.172E+00 1.573E+02 2.796E+03 1.535E+03 4.488E+03 4.491E+03 1.390E+07 25.3817 1.00000
  7.943E+09 7.943E+09 3.187E+00 1.766E+02 3.137E+03 1.756E+03 5.069E+03 5.073E+03 1.408E+07 25.6119 1.00000
  8.913E+09 8.913E+09 3.202E+00 1.984E+02 3.520E+03 2.009E+03 5.727E+03 5.730E+03 1.426E+07 25.8422 1.00000
  1.000E+10 1.000E+10 3.217E+00 2.228E+02 3.949E+03 2.298E+03 6.470E+03 6.473E+03 1.444E+07 26.0724 1.00000
  1.122E+10 1.122E+10 3.232E+00 2.502E+02 4.431E+03 2.629E+03 7.311E+03 7.314E+03 1.462E+07 26.3027 1.00000
  1.259E+10 1.259E+10 3.247E+00 2.810E+02 4.972E+03 3.008E+03 8.261E+03 8.264E+03 1.480E+07 26.5330 1.00000
  1.413E+10 1.413E+10 3.262E+00 3.155E+02 5.579E+03 3.442E+03 9.336E+03 9.339E+03 1.497E+07 26.7632 1.00000
  1.585E+10 1.585E+10 3.277E+00 3.543E+02 6.260E+03 3.938E+03 1.055E+04 1.056E+04 1.514E+07 26.9935 1.00000
  1.778E+10 1.778E+10 3.293E+00 3.977E+02 7.024E+03 4.506E+03 1.193E+04 1.193E+04 1.532E+07 27.2237 1.00000
  1.995E+10 1.995E+10 3.308E+00 4.465E+02 7.881E+03 5.157E+03 1.348E+04 1.349E+04 1.549E+07 27.4540 1.00000
  2.239E+10 2.239E+10 3.324E+00 5.013E+02 8.842E+03 5.901E+03 1.524E+04 1.525E+04 1.566E+07 27.6843 1.00000
  2.512E+10 2.512E+10 3.339E+00 5.628E+02 9.921E+03 6.754E+03 1.724E+04 1.724E+04 1.583E+07 27.9145 1.00000
  2.818E+10 2.818E+10 3.355E+00 6.317E+02 1.113E+04 7.730E+03 1.949E+04 1.950E+04 1.599E+07 28.1448 1.00000
  3.162E+10 3.162E+10 3.371E+00 7.091E+02 1.249E+04 8.847E+03 2.205E+04 2.205E+04 1.616E+07 28.3750 1.00000
  3.548E+10 3.548E+10 3.387E+00 7.960E+02 1.401E+04 1.013E+04 2.494E+04 2.494E+04 1.633E+07 28.6053 1.00000
  3.981E+10 3.981E+10 3.403E+00 8.934E+02 1.572E+04 1.159E+04 2.821E+04 2.821E+04 1.649E+07 28.8355 1.00000
  4.467E+10 4.467E+10 3.419E+00 1.003E+03 1.764E+04 1.327E+04 3.192E+04 3.192E+04 1.665E+07 29.0658 1.00000
  5.012E+10 5.012E+10 3.435E+00 1.125E+03 1.979E+04 1.519E+04 3.611E+04 3.612E+04 1.681E+07 29.2961 1.00000
  5.623E+10 5.623E+10 3.451E+00 1.263E+03 2.221E+04 1.739E+04 4.087E+04 4.087E+04 1.697E+07 29.5263 1.00000
  6.310E+10 6.310E+10 3.468E+00 1.418E+03 2.492E+04 1.992E+04 4.625E+04 4.626E+04 1.713E+07 29.7566 1.00000
  7.079E+10 7.079E+10 3.484E+00 1.591E+03 2.796E+04 2.280E+04 5.235E+04 5.236E+04 1.729E+07 29.9868 1.00000
  7.943E+10 7.943E+10 3.501E+00 1.786E+03 3.137E+04 2.611E+04 5.927E+04 5.927E+04 1.744E+07 30.2171 1.00000
  8.913E+10 8.913E+10 3.517E+00 2.004E+03 3.520E+04 2.990E+04 6.710E+04 6.711E+04 1.760E+07 30.4474 1.00000
  1.000E+11 1.000E+11 3.534E+00 2.249E+03 3.949E+04 3.424E+04 7.598E+04 7.599E+04 1.775E+07 30.6776 1.00000
  1.122E+11 1.122E+11 3.551E+00 2.524E+03 4.431E+04 3.922E+04 8.605E+04 8.605E+04 1.790E+07 30.9079 1.00000
  1.259E+11 1.259E+11 3.568E+00 2.832E+03 4.971E+04 4.491E+04 9.746E+04 9.746E+04 1.805E+07 31.1381 1.00000
  1.413E+11 1.413E+11 3.585E+00 3.178E+03 5.578E+04 5.144E+04 1.104E+05 1.104E+05 1.820E+07 31.3684 1.00000
  1.585E+11 1.585E+11 3.602E+00 3.566E+03 6.258E+04 5.892E+04 1.251E+05 1.251E+05 1.834E+07 31.5986 1.00000
  1.778E+11 1.778E+11 3.619E+00 4.002E+03 7.022E+04 6.749E+04 1.417E+05 1.417E+05 1.849E+07 31.8289 1.00000
  1.995E+11 1.995E+11 3.636E+00 4.490E+03 7.878E+04 7.732E+04 1.606E+05 1.606E+05 1.863E+07 32.0592 1.00000
  2.239E+11 2.239E+11 3.654E+00 5.039E+03 8.840E+04 8.858E+04 1.820E+05 1.820E+05 1.878E+07 32.2894 1.00000
  2.512E+11 2.512E+11 3.671E+00 5.654E+03 9.918E+04 1.015E+05 2.063E+05 2.063E+05 1.892E+07 32.5197 1.00000
  2.818E+11 2.818E+11 3.689E+00 6.344E+03 1.113E+05 1.163E+05 2.339E+05 2.339E+05 1.906E+07 32.7499 1.00000
  3.162E+11 3.162E+11 3.707E+00 7.119E+03 1.249E+05 1.332E+05 2.652E+05 2.652E+05 1.920E+07 32.9802 1.00000
  3.548E+11 3.548E+11 3.724E+00 7.988E+03 1.401E+05 1.526E+05 3.007E+05 3.007E+05 1.933E+07 33.2105 1.00000
  3.981E+11 3.981E+11 3.742E+00 8.963E+03 1.572E+05 1.749E+05 3.410E+05 3.410E+05 1.947E+07 33.4407 1.00000
  4.467E+11 4.467E+11 3.760E+00 1.006E+04 1.763E+05 2.004E+05 3.868E+05 3.868E+05 1.960E+07 33.6710 1.00000
  5.012E+11 5.012E+11 3.778E+00 1.129E+04 1.978E+05 2.297E+05 4.388E+05 4.388E+05 1.974E+07 33.9012 1.00000
  5.623E+11 5.623E+11 3.796E+00 1.266E+04 2.220E+05 2.633E+05 4.979E+05 4.979E+05 1.987E+07 34.1315 1.00000
  6.310E+11 6.310E+11 3.815E+00 1.421E+04 2.491E+05 3.017E+05 5.650E+05 5.650E+05 2.000E+07 34.3617 1.00000
  7.079E+11 7.079E+11 3.833E+00 1.594E+04 2.794E+05 3.459E+05 6.412E+05 6.412E+05 2.012E+07 34.5920 1.00000
  7.943E+11 7.943E+11 3.852E+00 1.789E+04 3.135E+05 3.964E+05 7.278E+05 7.279E+05 2.025E+07 34.8223 1.00000
  8.913E+11 8.913E+11 3.870E+00 2.007E+04 3.518E+05 4.544E+05 8.263E+05 8.263E+05 2.038E+07 35.0525 1.00000
  1.000E+12 1.000E+12 3.889E+00 2.252E+04 3.947E+05 5.209E+05 9.381E+05 9.382E+05 2.050E+07 35.2828 1.00000
  1.122E+12 1.122E+12 3.908E+00 2.527E+04 4.428E+05 5.972E+05 1.065E+06 1.065E+06 2.062E+07 35.5130 1.00000
  1.259E+12 1.259E+12 3.927E+00 2.835E+04 4.968E+05 6.847E+05 1.210E+06 1.210E+06 2.074E+07 35.7433 1.00000
  1.413E+12 1.413E+12 3.946E+00 3.181E+04 5.574E+05 7.851E+05 1.374E+06 1.374E+06 2.086E+07 35.9736 1.00000
  1.585E+12 1.585E+12 3.965E+00 3.570E+04 6.254E+05 9.002E+05 1.561E+06 1.561E+06 2.098E+07 36.2038 1.00000
  1.778E+12 1.778E+12 3.984E+00 4.005E+04 7.017E+05 1.032E+06 1.774E+06 1.774E+06 2.110E+07 36.4341 1.00000
  1.995E+12 1.995E+12 4.003E+00 4.494E+04 7.873E+05 1.184E+06 2.016E+06 2.016E+06 2.121E+07 36.6643 1.00000
  2.239E+12 2.239E+12 4.023E+00 5.043E+04 8.833E+05 1.357E+06 2.291E+06 2.291E+06 2.133E+07 36.8946 1.00000
  2.512E+12 2.512E+12 4.042E+00 5.658E+04 9.911E+05 1.557E+06 2.604E+06 2.604E+06 2.144E+07 37.1248 1.00000
  2.818E+12 2.818E+12 4.062E+00 6.348E+04 1.112E+06 1.785E+06 2.961E+06 2.961E+06 2.155E+07 37.3551 1.00000
  3.162E+12 3.162E+12 4.082E+00 7.123E+04 1.248E+06 2.048E+06 3.366E+06 3.366E+06 2.166E+07 37.5854 1.00000
  3.548E+12 3.548E+12 4.102E+00 7.992E+04 1.400E+06 2.349E+06 3.828E+06 3.828E+06 2.176E+07 37.8156 1.00000
  3.981E+12 3.981E+12 4.122E+00 8.967E+04 1.570E+06 2.694E+06 4.354E+06 4.354E+06 2.187E+07 38.0459 1.00000
  4.467E+12 4.467E+12 4.142E+00 1.006E+05 1.762E+06 3.090E+06 4.953E+06 4.953E+06 2.198E+07 38.2761 1.00000
  5.012E+12 5.012E+12 4.162E+00 1.129E+05 1.977E+06 3.545E+06 5.635E+06 5.635E+06 2.208E+07 38.5064 1.00000
  5.623E+12 5.623E+12 4.182E+00 1.267E+05 2.218E+06 4.067E+06 6.412E+06 6.412E+06 2.218E+07 38.7367 1.00000
  6.310E+12 6.310E+12 4.203E+00 1.421E+05 2.489E+06 4.666E+06 7.297E+06 7.297E+06 2.228E+07 38.9669 1.00000
  7.079E+12 7.079E+12 4.223E+00 1.595E+05 2.792E+06 5.354E+06 8.305E+06 8.306E+06 2.238E+07 39.1972 1.00000
  7.943E+12 7.943E+12 4.244E+00 1.789E+05 3.133E+06 6.143E+06 9.455E+06 9.455E+06 2.248E+07 39.4274 1.00000
  8.913E+12 8.913E+12 4.264E+00 2.008E+05 3.515E+06 7.049E+06 1.076E+07 1.076E+07 2.257E+07 39.6577 1.00000
  1.000E+13 1.000E+13 4.285E+00 2.253E+05 3.943E+06 8.089E+06 1.226E+07 1.226E+07 2.267E+07 39.8880 1.00000
  1.122E+13 1.122E+13 4.306E+00 2.527E+05 4.424E+06 9.283E+06 1.396E+07 1.396E+07 2.276E+07 40.1182 1.00000
  1.259E+13 1.259E+13 4.327E+00 2.836E+05 4.964E+06 1.065E+07 1.590E+07 1.590E+07 2.286E+07 40.3485 1.00000
  1.413E+13 1.413E+13 4.349E+00 3.182E+05 5.569E+06 1.223E+07 1.811E+07 1.811E+07 2.295E+07 40.5787 1.00000
  1.585E+13 1.585E+13 4.370E+00 3.570E+05 6.249E+06 1.403E+07 2.064E+07 2.064E+07 2.304E+07 40.8090 1.00000
  1.778E+13 1.778E+13 4.391E+00 4.006E+05 7.011E+06 1.611E+07 2.352E+07 2.352E+07 2.312E+07 41.0392 1.00000
  1.995E+13 1.995E+13 4.413E+00 4.495E+05 7.866E+06 1.849E+07 2.680E+07 2.680E+07 2.321E+07 41.2695 1.00000
  2.239E+13 2.239E+13 4.435E+00 5.043E+05 8.825E+06 2.122E+07 3.055E+07 3.055E+07 2.330E+07 41.4998 1.00000
  2.512E+13 2.512E+13 4.456E+00 5.658E+05 9.901E+06 2.436E+07 3.483E+07 3.483E+07 2.338E+07 41.7300 1.00000
  2.818E+13 2.818E+13 4.478E+00 6.349E+05 1.111E+07 2.797E+07 3.971E+07 3.971E+07 2.346E+07 41.9603 1.00000
  3.162E+13 3.162E+13 4.500E+00 7.123E+05 1.246E+07 3.211E+07 4.529E+07 4.529E+07 2.354E+07 42.1905 1.00000
  3.548E+13 3.548E+13 4.523E+00 7.993E+05 1.398E+07 3.687E+07 5.165E+07 5.165E+07 2.362E+07 42.4208 1.00000
  3.981E+13 3.981E+13 4.545E+00 8.968E+05 1.569E+07 4.233E+07 5.892E+07 5.892E+07 2.370E+07 42.6511 1.00000
  4.467E+13 4.467E+13 4.567E+00 1.006E+06 1.760E+07 4.860E+07 6.721E+07 6.721E+07 2.378E+07 42.8813 1.00000
  5.012E+13 5.012E+13 4.590E+00 1.129E+06 1.975E+07 5.581E+07 7.669E+07 7.669E+07 2.385E+07 43.1116 1.00000
  5.623E+13 5.623E+13 4.612E+00 1.267E+06 2.216E+07 6.409E+07 8.751E+07 8.751E+07 2.393E+07 43.3418 1.00000
  6.310E+13 6.310E+13 4.635E+00 1.421E+06 2.486E+07 7.360E+07 9.988E+07 9.988E+07 2.400E+07 43.5721 1.00000
  7.079E+13 7.079E+13 4.658E+00 1.595E+06 2.789E+07 8.453E+07 1.140E+08 1.140E+08 2.408E+07 43.8023 1.00000
  7.943E+13 7.943E+13 4.681E+00 1.789E+06 3.129E+07 9.708E+07 1.302E+08 1.302E+08 2.415E+07 44.0326 1.00000
  8.913E+13 8.913E+13 4.704E+00 2.008E+06 3.511E+07 1.115E+08 1.486E+08 1.486E+08 2.422E+07 44.2629 1.00000
