 Incident particle is a Tau with M = 1776.82000 MeV
 Index = 0: NitrogenGas
      Absorber with <Z/A> = 0.49974
 Sternheimer coef:  a     k=m_s   x_0    x_1    I[eV]   Cbar  delta0
                 0.1535  3.2125  1.7378  4.1323   82.0 10.5400 0.00

 *** Table generated with PUMAS v1.00 ***

      T         p     Ionization  brems     pair     photonuc  Radloss    dE/dx   CSDA Range  delta   beta
    [MeV]    [MeV/c]  -----------------------[MeV cm^2/g]------------------------  [g/cm^2]
  1.000E+05 1.018E+05 2.545E+00 1.387E-04 2.151E-03 8.312E-03 1.060E-02 2.556E+00 1.956E+04  0.0248 0.99985
  1.122E+05 1.140E+05 2.575E+00 1.602E-04 2.596E-03 9.385E-03 1.214E-02 2.588E+00 2.431E+04  0.0907 0.99988
  1.259E+05 1.277E+05 2.605E+00 1.850E-04 3.121E-03 1.054E-02 1.385E-02 2.619E+00 2.957E+04  0.1641 0.99990
  1.413E+05 1.430E+05 2.634E+00 2.135E-04 3.740E-03 1.184E-02 1.579E-02 2.650E+00 3.540E+04  0.2448 0.99992
  1.585E+05 1.603E+05 2.663E+00 2.463E-04 4.468E-03 1.330E-02 1.801E-02 2.681E+00 4.186E+04  0.3327 0.99994
  1.778E+05 1.796E+05 2.691E+00 2.839E-04 5.322E-03 1.492E-02 2.053E-02 2.712E+00 4.904E+04  0.4275 0.99995
  1.995E+05 2.013E+05 2.719E+00 3.272E-04 6.323E-03 1.677E-02 2.342E-02 2.743E+00 5.699E+04  0.5291 0.99996
  2.239E+05 2.256E+05 2.747E+00 3.769E-04 7.492E-03 1.880E-02 2.667E-02 2.773E+00 6.582E+04  0.6373 0.99997
  2.512E+05 2.530E+05 2.774E+00 4.340E-04 8.856E-03 2.107E-02 3.036E-02 2.804E+00 7.562E+04  0.7520 0.99998
  2.818E+05 2.836E+05 2.800E+00 4.995E-04 1.044E-02 2.363E-02 3.457E-02 2.835E+00 8.649E+04  0.8729 0.99998
  3.162E+05 3.180E+05 2.826E+00 5.747E-04 1.229E-02 2.652E-02 3.938E-02 2.865E+00 9.856E+04  0.9999 0.99998
  3.548E+05 3.566E+05 2.852E+00 6.609E-04 1.443E-02 2.976E-02 4.485E-02 2.896E+00 1.119E+05  1.1327 0.99999
  3.981E+05 3.999E+05 2.877E+00 7.597E-04 1.692E-02 3.338E-02 5.106E-02 2.928E+00 1.268E+05  1.2713 0.99999
  4.467E+05 4.485E+05 2.901E+00 8.729E-04 1.979E-02 3.744E-02 5.811E-02 2.959E+00 1.433E+05  1.4153 0.99999
  5.012E+05 5.030E+05 2.926E+00 1.003E-03 2.312E-02 4.201E-02 6.613E-02 2.992E+00 1.616E+05  1.5647 0.99999
  5.623E+05 5.641E+05 2.949E+00 1.151E-03 2.695E-02 4.696E-02 7.506E-02 3.024E+00 1.820E+05  1.7192 1.00000
  6.310E+05 6.327E+05 2.973E+00 1.321E-03 3.137E-02 5.254E-02 8.523E-02 3.058E+00 2.045E+05  1.8787 1.00000
  7.079E+05 7.097E+05 2.996E+00 1.516E-03 3.646E-02 5.883E-02 9.681E-02 3.093E+00 2.296E+05  2.0429 1.00000
  7.943E+05 7.961E+05 3.018E+00 1.739E-03 4.231E-02 6.594E-02 1.100E-01 3.128E+00 2.573E+05  2.2118 1.00000
  8.913E+05 8.930E+05 3.040E+00 1.994E-03 4.903E-02 7.398E-02 1.250E-01 3.165E+00 2.881E+05  2.3851 1.00000
  1.000E+06 1.002E+06 3.062E+00 2.286E-03 5.674E-02 8.306E-02 1.421E-01 3.204E+00 3.223E+05  2.5626 1.00000
  1.122E+06 1.124E+06 3.083E+00 2.620E-03 6.557E-02 9.335E-02 1.615E-01 3.245E+00 3.601E+05  2.7441 1.00000
  1.259E+06 1.261E+06 3.104E+00 3.001E-03 7.568E-02 1.050E-01 1.837E-01 3.288E+00 4.020E+05  2.9296 1.00000
  1.413E+06 1.414E+06 3.125E+00 3.437E-03 8.724E-02 1.182E-01 2.089E-01 3.334E+00 4.484E+05  3.1187 1.00000
  1.585E+06 1.587E+06 3.145E+00 3.936E-03 1.004E-01 1.332E-01 2.376E-01 3.383E+00 4.998E+05  3.3114 1.00000
  1.778E+06 1.780E+06 3.165E+00 4.505E-03 1.155E-01 1.502E-01 2.702E-01 3.435E+00 5.565E+05  3.5074 1.00000
  1.995E+06 1.997E+06 3.184E+00 5.155E-03 1.327E-01 1.694E-01 3.073E-01 3.492E+00 6.192E+05  3.7067 1.00000
  2.239E+06 2.240E+06 3.204E+00 5.898E-03 1.523E-01 1.913E-01 3.495E-01 3.553E+00 6.883E+05  3.9089 1.00000
  2.512E+06 2.514E+06 3.222E+00 6.746E-03 1.745E-01 2.162E-01 3.975E-01 3.620E+00 7.644E+05  4.1140 1.00000
  2.818E+06 2.820E+06 3.241E+00 7.714E-03 1.999E-01 2.445E-01 4.521E-01 3.693E+00 8.483E+05  4.3217 1.00000
  3.162E+06 3.164E+06 3.259E+00 8.818E-03 2.286E-01 2.766E-01 5.141E-01 3.773E+00 9.404E+05  4.5320 1.00000
  3.548E+06 3.550E+06 3.276E+00 1.008E-02 2.613E-01 3.132E-01 5.846E-01 3.861E+00 1.042E+06  4.7446 1.00000
  3.981E+06 3.983E+06 3.294E+00 1.152E-02 2.984E-01 3.548E-01 6.647E-01 3.958E+00 1.152E+06  4.9595 1.00000
  4.467E+06 4.469E+06 3.311E+00 1.315E-02 3.404E-01 4.022E-01 7.557E-01 4.066E+00 1.273E+06  5.1763 1.00000
  5.012E+06 5.014E+06 3.328E+00 1.502E-02 3.879E-01 4.561E-01 8.590E-01 4.187E+00 1.405E+06  5.3950 1.00000
  5.623E+06 5.625E+06 3.344E+00 1.715E-02 4.418E-01 5.174E-01 9.764E-01 4.320E+00 1.549E+06  5.6155 1.00000
  6.310E+06 6.311E+06 3.360E+00 1.958E-02 5.027E-01 5.873E-01 1.110E+00 4.470E+00 1.705E+06  5.8375 1.00000
  7.079E+06 7.081E+06 3.376E+00 2.234E-02 5.716E-01 6.670E-01 1.261E+00 4.637E+00 1.875E+06  6.0609 1.00000
  7.943E+06 7.945E+06 3.392E+00 2.549E-02 6.495E-01 7.577E-01 1.433E+00 4.824E+00 2.057E+06  6.2857 1.00000
  8.913E+06 8.914E+06 3.407E+00 2.907E-02 7.374E-01 8.611E-01 1.628E+00 5.035E+00 2.254E+06  6.5115 1.00000
  1.000E+07 1.000E+07 3.422E+00 3.315E-02 8.367E-01 9.790E-01 1.849E+00 5.271E+00 2.465E+06  6.7384 1.00000
  1.122E+07 1.122E+07 3.437E+00 3.779E-02 9.487E-01 1.113E+00 2.100E+00 5.537E+00 2.691E+06  6.9660 1.00000
  1.259E+07 1.259E+07 3.452E+00 4.306E-02 1.075E+00 1.267E+00 2.385E+00 5.837E+00 2.932E+06  7.1945 1.00000
  1.413E+07 1.413E+07 3.467E+00 4.906E-02 1.218E+00 1.441E+00 2.708E+00 6.175E+00 3.188E+06  7.4235 1.00000
  1.585E+07 1.585E+07 3.481E+00 5.588E-02 1.378E+00 1.640E+00 3.074E+00 6.556E+00 3.459E+06  7.6529 1.00000
  1.778E+07 1.778E+07 3.496E+00 6.364E-02 1.559E+00 1.868E+00 3.490E+00 6.986E+00 3.745E+06  7.8828 1.00000
  1.995E+07 1.995E+07 3.510E+00 7.245E-02 1.763E+00 2.127E+00 3.962E+00 7.472E+00 4.045E+06  8.1128 1.00000
  2.239E+07 2.239E+07 3.524E+00 8.245E-02 1.992E+00 2.422E+00 4.497E+00 8.021E+00 4.360E+06  8.3430 1.00000
  2.512E+07 2.512E+07 3.538E+00 9.381E-02 2.250E+00 2.760E+00 5.104E+00 8.642E+00 4.688E+06  8.5732 1.00000
  2.818E+07 2.819E+07 3.552E+00 1.067E-01 2.541E+00 3.145E+00 5.792E+00 9.345E+00 5.030E+06  8.8035 1.00000
  3.162E+07 3.162E+07 3.566E+00 1.213E-01 2.868E+00 3.584E+00 6.573E+00 1.014E+01 5.383E+06  9.0337 1.00000
  3.548E+07 3.548E+07 3.580E+00 1.379E-01 3.235E+00 4.085E+00 7.459E+00 1.104E+01 5.748E+06  9.2640 1.00000
  3.981E+07 3.981E+07 3.594E+00 1.568E-01 3.649E+00 4.658E+00 8.463E+00 1.206E+01 6.124E+06  9.4942 1.00000
  4.467E+07 4.467E+07 3.608E+00 1.781E-01 4.113E+00 5.311E+00 9.602E+00 1.321E+01 6.509E+06  9.7245 1.00000
  5.012E+07 5.012E+07 3.622E+00 2.023E-01 4.636E+00 6.056E+00 1.089E+01 1.452E+01 6.903E+06  9.9547 1.00000
  5.623E+07 5.624E+07 3.636E+00 2.297E-01 5.223E+00 6.907E+00 1.236E+01 1.600E+01 7.305E+06 10.1850 1.00000
  6.310E+07 6.310E+07 3.650E+00 2.608E-01 5.882E+00 7.879E+00 1.402E+01 1.767E+01 7.714E+06 10.4152 1.00000
  7.079E+07 7.080E+07 3.664E+00 2.960E-01 6.623E+00 8.988E+00 1.591E+01 1.957E+01 8.128E+06 10.6455 1.00000
  7.943E+07 7.943E+07 3.678E+00 3.358E-01 7.456E+00 1.026E+01 1.805E+01 2.172E+01 8.548E+06 10.8757 1.00000
  8.913E+07 8.913E+07 3.691E+00 3.809E-01 8.391E+00 1.170E+01 2.047E+01 2.416E+01 8.971E+06 11.1060 1.00000
  1.000E+08 1.000E+08 3.705E+00 4.319E-01 9.441E+00 1.335E+01 2.323E+01 2.693E+01 9.398E+06 11.3362 1.00000
  1.122E+08 1.122E+08 3.719E+00 4.895E-01 1.062E+01 1.524E+01 2.635E+01 3.007E+01 9.828E+06 11.5665 1.00000
  1.259E+08 1.259E+08 3.733E+00 5.547E-01 1.194E+01 1.739E+01 2.989E+01 3.363E+01 1.026E+07 11.7967 1.00000
  1.413E+08 1.413E+08 3.747E+00 6.285E-01 1.343E+01 1.986E+01 3.392E+01 3.766E+01 1.069E+07 12.0270 1.00000
  1.585E+08 1.585E+08 3.762E+00 7.118E-01 1.510E+01 2.267E+01 3.848E+01 4.224E+01 1.112E+07 12.2573 1.00000
  1.778E+08 1.778E+08 3.776E+00 8.060E-01 1.698E+01 2.588E+01 4.366E+01 4.743E+01 1.156E+07 12.4875 1.00000
  1.995E+08 1.995E+08 3.790E+00 9.124E-01 1.908E+01 2.954E+01 4.954E+01 5.333E+01 1.199E+07 12.7178 1.00000
  2.239E+08 2.239E+08 3.804E+00 1.032E+00 2.144E+01 3.373E+01 5.621E+01 6.001E+01 1.242E+07 12.9480 1.00000
  2.512E+08 2.512E+08 3.818E+00 1.168E+00 2.409E+01 3.852E+01 6.378E+01 6.760E+01 1.285E+07 13.1783 1.00000
  2.818E+08 2.818E+08 3.833E+00 1.321E+00 2.707E+01 4.399E+01 7.238E+01 7.622E+01 1.328E+07 13.4085 1.00000
  3.162E+08 3.162E+08 3.847E+00 1.494E+00 3.041E+01 5.024E+01 8.215E+01 8.599E+01 1.370E+07 13.6388 1.00000
  3.548E+08 3.548E+08 3.862E+00 1.689E+00 3.416E+01 5.738E+01 9.323E+01 9.709E+01 1.413E+07 13.8691 1.00000
  3.981E+08 3.981E+08 3.876E+00 1.908E+00 3.837E+01 6.554E+01 1.058E+02 1.097E+02 1.455E+07 14.0993 1.00000
  4.467E+08 4.467E+08 3.891E+00 2.156E+00 4.309E+01 7.487E+01 1.201E+02 1.240E+02 1.496E+07 14.3296 1.00000
  5.012E+08 5.012E+08 3.906E+00 2.435E+00 4.839E+01 8.553E+01 1.364E+02 1.403E+02 1.538E+07 14.5598 1.00000
  5.623E+08 5.623E+08 3.920E+00 2.750E+00 5.434E+01 9.771E+01 1.548E+02 1.587E+02 1.579E+07 14.7901 1.00000
  6.310E+08 6.310E+08 3.935E+00 3.104E+00 6.101E+01 1.116E+02 1.757E+02 1.797E+02 1.620E+07 15.0203 1.00000
  7.079E+08 7.079E+08 3.950E+00 3.504E+00 6.850E+01 1.275E+02 1.996E+02 2.035E+02 1.660E+07 15.2506 1.00000
  7.943E+08 7.943E+08 3.965E+00 3.954E+00 7.690E+01 1.457E+02 2.266E+02 2.306E+02 1.700E+07 15.4809 1.00000
  8.913E+08 8.913E+08 3.980E+00 4.460E+00 8.634E+01 1.665E+02 2.573E+02 2.613E+02 1.739E+07 15.7111 1.00000
  1.000E+09 1.000E+09 3.995E+00 5.030E+00 9.692E+01 1.903E+02 2.923E+02 2.963E+02 1.779E+07 15.9414 1.00000
  1.122E+09 1.122E+09 4.011E+00 5.672E+00 1.088E+02 2.175E+02 3.320E+02 3.360E+02 1.817E+07 16.1716 1.00000
  1.259E+09 1.259E+09 4.026E+00 6.395E+00 1.221E+02 2.486E+02 3.771E+02 3.811E+02 1.856E+07 16.4019 1.00000
  1.413E+09 1.413E+09 4.041E+00 7.208E+00 1.371E+02 2.841E+02 4.284E+02 4.324E+02 1.894E+07 16.6321 1.00000
  1.585E+09 1.585E+09 4.057E+00 8.122E+00 1.539E+02 3.247E+02 4.867E+02 4.908E+02 1.931E+07 16.8624 1.00000
  1.778E+09 1.778E+09 4.072E+00 9.151E+00 1.727E+02 3.712E+02 5.530E+02 5.571E+02 1.968E+07 17.0927 1.00000
  1.995E+09 1.995E+09 4.088E+00 1.031E+01 1.938E+02 4.243E+02 6.284E+02 6.325E+02 2.005E+07 17.3229 1.00000
  2.239E+09 2.239E+09 4.104E+00 1.161E+01 2.175E+02 4.851E+02 7.142E+02 7.183E+02 2.041E+07 17.5532 1.00000
  2.512E+09 2.512E+09 4.120E+00 1.307E+01 2.441E+02 5.546E+02 8.118E+02 8.159E+02 2.077E+07 17.7834 1.00000
  2.818E+09 2.818E+09 4.135E+00 1.472E+01 2.740E+02 6.341E+02 9.227E+02 9.269E+02 2.112E+07 18.0137 1.00000
  3.162E+09 3.162E+09 4.151E+00 1.656E+01 3.074E+02 7.250E+02 1.049E+03 1.053E+03 2.147E+07 18.2440 1.00000
  3.548E+09 3.548E+09 4.168E+00 1.864E+01 3.450E+02 8.290E+02 1.193E+03 1.197E+03 2.181E+07 18.4742 1.00000
  3.981E+09 3.981E+09 4.184E+00 2.097E+01 3.872E+02 9.480E+02 1.356E+03 1.360E+03 2.215E+07 18.7045 1.00000
  4.467E+09 4.467E+09 4.200E+00 2.360E+01 4.345E+02 1.084E+03 1.542E+03 1.546E+03 2.249E+07 18.9347 1.00000
  5.012E+09 5.012E+09 4.216E+00 2.654E+01 4.875E+02 1.240E+03 1.754E+03 1.758E+03 2.282E+07 19.1650 1.00000
  5.623E+09 5.623E+09 4.233E+00 2.985E+01 5.471E+02 1.418E+03 1.995E+03 1.999E+03 2.315E+07 19.3952 1.00000
  6.310E+09 6.310E+09 4.249E+00 3.357E+01 6.139E+02 1.622E+03 2.269E+03 2.273E+03 2.347E+07 19.6255 1.00000
  7.079E+09 7.079E+09 4.266E+00 3.775E+01 6.889E+02 1.855E+03 2.582E+03 2.586E+03 2.379E+07 19.8558 1.00000
  7.943E+09 7.943E+09 4.283E+00 4.244E+01 7.730E+02 2.122E+03 2.937E+03 2.942E+03 2.410E+07 20.0860 1.00000
  8.913E+09 8.913E+09 4.300E+00 4.771E+01 8.674E+02 2.427E+03 3.342E+03 3.347E+03 2.441E+07 20.3163 1.00000
  1.000E+10 1.000E+10 4.316E+00 5.362E+01 9.733E+02 2.777E+03 3.804E+03 3.808E+03 2.472E+07 20.5465 1.00000
  1.122E+10 1.122E+10 4.333E+00 6.027E+01 1.092E+03 3.177E+03 4.329E+03 4.333E+03 2.502E+07 20.7768 1.00000
  1.259E+10 1.259E+10 4.351E+00 6.773E+01 1.225E+03 3.634E+03 4.928E+03 4.932E+03 2.531E+07 21.0071 1.00000
  1.413E+10 1.413E+10 4.368E+00 7.610E+01 1.375E+03 4.158E+03 5.609E+03 5.614E+03 2.561E+07 21.2373 1.00000
  1.585E+10 1.585E+10 4.385E+00 8.550E+01 1.543E+03 4.758E+03 6.386E+03 6.391E+03 2.590E+07 21.4676 1.00000
  1.778E+10 1.778E+10 4.402E+00 9.606E+01 1.731E+03 5.445E+03 7.272E+03 7.276E+03 2.618E+07 21.6978 1.00000
  1.995E+10 1.995E+10 4.420E+00 1.079E+02 1.942E+03 6.231E+03 8.281E+03 8.285E+03 2.646E+07 21.9281 1.00000
  2.239E+10 2.239E+10 4.438E+00 1.212E+02 2.179E+03 7.130E+03 9.431E+03 9.435E+03 2.674E+07 22.1584 1.00000
  2.512E+10 2.512E+10 4.455E+00 1.361E+02 2.445E+03 8.160E+03 1.074E+04 1.075E+04 2.701E+07 22.3886 1.00000
  2.818E+10 2.818E+10 4.473E+00 1.529E+02 2.744E+03 9.340E+03 1.224E+04 1.224E+04 2.727E+07 22.6189 1.00000
  3.162E+10 3.162E+10 4.491E+00 1.717E+02 3.079E+03 1.069E+04 1.394E+04 1.395E+04 2.754E+07 22.8491 1.00000
  3.548E+10 3.548E+10 4.509E+00 1.928E+02 3.454E+03 1.224E+04 1.588E+04 1.589E+04 2.780E+07 23.0794 1.00000
  3.981E+10 3.981E+10 4.527E+00 2.165E+02 3.876E+03 1.401E+04 1.810E+04 1.810E+04 2.805E+07 23.3096 1.00000
  4.467E+10 4.467E+10 4.545E+00 2.431E+02 4.349E+03 1.604E+04 2.063E+04 2.063E+04 2.831E+07 23.5399 1.00000
  5.012E+10 5.012E+10 4.564E+00 2.729E+02 4.879E+03 1.836E+04 2.351E+04 2.351E+04 2.855E+07 23.7702 1.00000
  5.623E+10 5.623E+10 4.582E+00 3.064E+02 5.475E+03 2.102E+04 2.680E+04 2.680E+04 2.880E+07 24.0004 1.00000
  6.310E+10 6.310E+10 4.600E+00 3.440E+02 6.143E+03 2.406E+04 3.055E+04 3.055E+04 2.904E+07 24.2307 1.00000
  7.079E+10 7.079E+10 4.619E+00 3.862E+02 6.892E+03 2.755E+04 3.483E+04 3.484E+04 2.928E+07 24.4609 1.00000
  7.943E+10 7.943E+10 4.638E+00 4.335E+02 7.733E+03 3.155E+04 3.972E+04 3.972E+04 2.951E+07 24.6912 1.00000
  8.913E+10 8.913E+10 4.657E+00 4.867E+02 8.676E+03 3.613E+04 4.529E+04 4.530E+04 2.974E+07 24.9215 1.00000
  1.000E+11 1.000E+11 4.676E+00 5.463E+02 9.735E+03 4.137E+04 5.165E+04 5.166E+04 2.996E+07 25.1517 1.00000
  1.122E+11 1.122E+11 4.695E+00 6.132E+02 1.092E+04 4.738E+04 5.892E+04 5.892E+04 3.018E+07 25.3820 1.00000
  1.259E+11 1.259E+11 4.714E+00 6.882E+02 1.225E+04 5.427E+04 6.721E+04 6.722E+04 3.040E+07 25.6122 1.00000
  1.413E+11 1.413E+11 4.733E+00 7.724E+02 1.375E+04 6.216E+04 7.668E+04 7.668E+04 3.062E+07 25.8425 1.00000
  1.585E+11 1.585E+11 4.752E+00 8.669E+02 1.543E+04 7.120E+04 8.749E+04 8.749E+04 3.083E+07 26.0727 1.00000
  1.778E+11 1.778E+11 4.772E+00 9.730E+02 1.731E+04 8.155E+04 9.984E+04 9.984E+04 3.103E+07 26.3030 1.00000
  1.995E+11 1.995E+11 4.791E+00 1.092E+03 1.942E+04 9.342E+04 1.139E+05 1.139E+05 3.124E+07 26.5333 1.00000
  2.239E+11 2.239E+11 4.811E+00 1.226E+03 2.179E+04 1.070E+05 1.300E+05 1.300E+05 3.144E+07 26.7635 1.00000
  2.512E+11 2.512E+11 4.831E+00 1.375E+03 2.445E+04 1.226E+05 1.484E+05 1.484E+05 3.164E+07 26.9938 1.00000
  2.818E+11 2.818E+11 4.851E+00 1.543E+03 2.743E+04 1.405E+05 1.695E+05 1.695E+05 3.183E+07 27.2240 1.00000
  3.162E+11 3.162E+11 4.871E+00 1.732E+03 3.078E+04 1.610E+05 1.935E+05 1.935E+05 3.202E+07 27.4543 1.00000
  3.548E+11 3.548E+11 4.891E+00 1.944E+03 3.453E+04 1.844E+05 2.209E+05 2.209E+05 3.221E+07 27.6846 1.00000
  3.981E+11 3.981E+11 4.911E+00 2.181E+03 3.874E+04 2.113E+05 2.523E+05 2.523E+05 3.239E+07 27.9148 1.00000
  4.467E+11 4.467E+11 4.932E+00 2.448E+03 4.347E+04 2.422E+05 2.881E+05 2.881E+05 3.257E+07 28.1451 1.00000
  5.012E+11 5.012E+11 4.952E+00 2.747E+03 4.877E+04 2.776E+05 3.291E+05 3.291E+05 3.275E+07 28.3753 1.00000
  5.623E+11 5.623E+11 4.973E+00 3.082E+03 5.472E+04 3.181E+05 3.759E+05 3.759E+05 3.292E+07 28.6056 1.00000
  6.310E+11 6.310E+11 4.993E+00 3.459E+03 6.140E+04 3.646E+05 4.294E+05 4.294E+05 3.309E+07 28.8358 1.00000
  7.079E+11 7.079E+11 5.014E+00 3.881E+03 6.888E+04 4.179E+05 4.907E+05 4.907E+05 3.326E+07 29.0661 1.00000
  7.943E+11 7.943E+11 5.035E+00 4.355E+03 7.729E+04 4.790E+05 5.606E+05 5.607E+05 3.343E+07 29.2964 1.00000
  8.913E+11 8.913E+11 5.056E+00 4.887E+03 8.671E+04 5.491E+05 6.407E+05 6.407E+05 3.359E+07 29.5266 1.00000
  1.000E+12 1.000E+12 5.077E+00 5.483E+03 9.729E+04 6.295E+05 7.322E+05 7.322E+05 3.375E+07 29.7569 1.00000
  1.122E+12 1.122E+12 5.099E+00 6.153E+03 1.092E+05 7.216E+05 8.369E+05 8.369E+05 3.390E+07 29.9871 1.00000
  1.259E+12 1.259E+12 5.120E+00 6.904E+03 1.225E+05 8.273E+05 9.567E+05 9.567E+05 3.406E+07 30.2174 1.00000
  1.413E+12 1.413E+12 5.142E+00 7.747E+03 1.374E+05 9.486E+05 1.094E+06 1.094E+06 3.421E+07 30.4477 1.00000
  1.585E+12 1.585E+12 5.163E+00 8.692E+03 1.542E+05 1.088E+06 1.251E+06 1.251E+06 3.436E+07 30.6779 1.00000
  1.778E+12 1.778E+12 5.185E+00 9.753E+03 1.730E+05 1.247E+06 1.430E+06 1.430E+06 3.450E+07 30.9082 1.00000
  1.995E+12 1.995E+12 5.207E+00 1.094E+04 1.941E+05 1.430E+06 1.635E+06 1.635E+06 3.464E+07 31.1384 1.00000
  2.239E+12 2.239E+12 5.229E+00 1.228E+04 2.178E+05 1.640E+06 1.870E+06 1.870E+06 3.478E+07 31.3687 1.00000
  2.512E+12 2.512E+12 5.251E+00 1.378E+04 2.443E+05 1.881E+06 2.139E+06 2.139E+06 3.492E+07 31.5989 1.00000
  2.818E+12 2.818E+12 5.273E+00 1.546E+04 2.741E+05 2.157E+06 2.447E+06 2.447E+06 3.505E+07 31.8292 1.00000
  3.162E+12 3.162E+12 5.296E+00 1.735E+04 3.075E+05 2.474E+06 2.799E+06 2.799E+06 3.519E+07 32.0595 1.00000
  3.548E+12 3.548E+12 5.318E+00 1.946E+04 3.451E+05 2.838E+06 3.202E+06 3.202E+06 3.531E+07 32.2897 1.00000
  3.981E+12 3.981E+12 5.341E+00 2.184E+04 3.871E+05 3.255E+06 3.664E+06 3.664E+06 3.544E+07 32.5200 1.00000
  4.467E+12 4.467E+12 5.364E+00 2.450E+04 4.344E+05 3.734E+06 4.193E+06 4.193E+06 3.557E+07 32.7502 1.00000
  5.012E+12 5.012E+12 5.387E+00 2.750E+04 4.873E+05 4.284E+06 4.799E+06 4.799E+06 3.569E+07 32.9805 1.00000
  5.623E+12 5.623E+12 5.410E+00 3.085E+04 5.468E+05 4.914E+06 5.492E+06 5.492E+06 3.581E+07 33.2108 1.00000
  6.310E+12 6.310E+12 5.433E+00 3.462E+04 6.135E+05 5.638E+06 6.286E+06 6.286E+06 3.592E+07 33.4410 1.00000
  7.079E+12 7.079E+12 5.456E+00 3.884E+04 6.883E+05 6.469E+06 7.196E+06 7.196E+06 3.604E+07 33.6713 1.00000
  7.943E+12 7.943E+12 5.479E+00 4.358E+04 7.722E+05 7.423E+06 8.238E+06 8.238E+06 3.615E+07 33.9015 1.00000
  8.913E+12 8.913E+12 5.503E+00 4.890E+04 8.664E+05 8.517E+06 9.433E+06 9.433E+06 3.626E+07 34.1318 1.00000
  1.000E+13 1.000E+13 5.526E+00 5.486E+04 9.721E+05 9.774E+06 1.080E+07 1.080E+07 3.637E+07 34.3621 1.00000
  1.122E+13 1.122E+13 5.550E+00 6.156E+04 1.091E+06 1.122E+07 1.237E+07 1.237E+07 3.648E+07 34.5923 1.00000
  1.259E+13 1.259E+13 5.574E+00 6.907E+04 1.224E+06 1.287E+07 1.416E+07 1.416E+07 3.658E+07 34.8226 1.00000
  1.413E+13 1.413E+13 5.598E+00 7.750E+04 1.373E+06 1.477E+07 1.622E+07 1.622E+07 3.668E+07 35.0528 1.00000
  1.585E+13 1.585E+13 5.622E+00 8.696E+04 1.540E+06 1.696E+07 1.858E+07 1.858E+07 3.678E+07 35.2831 1.00000
  1.778E+13 1.778E+13 5.647E+00 9.757E+04 1.728E+06 1.946E+07 2.129E+07 2.129E+07 3.688E+07 35.5133 1.00000
  1.995E+13 1.995E+13 5.671E+00 1.095E+05 1.939E+06 2.234E+07 2.439E+07 2.439E+07 3.697E+07 35.7436 1.00000
  2.239E+13 2.239E+13 5.695E+00 1.228E+05 2.175E+06 2.564E+07 2.794E+07 2.794E+07 3.707E+07 35.9739 1.00000
  2.512E+13 2.512E+13 5.720E+00 1.378E+05 2.441E+06 2.944E+07 3.202E+07 3.202E+07 3.716E+07 36.2041 1.00000
  2.818E+13 2.818E+13 5.745E+00 1.546E+05 2.738E+06 3.379E+07 3.669E+07 3.669E+07 3.725E+07 36.4344 1.00000
  3.162E+13 3.162E+13 5.770E+00 1.735E+05 3.072E+06 3.880E+07 4.204E+07 4.204E+07 3.734E+07 36.6646 1.00000
  3.548E+13 3.548E+13 5.795E+00 1.947E+05 3.447E+06 4.455E+07 4.819E+07 4.819E+07 3.742E+07 36.8949 1.00000
  3.981E+13 3.981E+13 5.820E+00 2.184E+05 3.867E+06 5.115E+07 5.523E+07 5.523E+07 3.751E+07 37.1252 1.00000
  4.467E+13 4.467E+13 5.846E+00 2.451E+05 4.339E+06 5.873E+07 6.331E+07 6.331E+07 3.759E+07 37.3554 1.00000
  5.012E+13 5.012E+13 5.871E+00 2.750E+05 4.868E+06 6.744E+07 7.258E+07 7.258E+07 3.767E+07 37.5857 1.00000
  5.623E+13 5.623E+13 5.897E+00 3.085E+05 5.462E+06 7.744E+07 8.321E+07 8.321E+07 3.775E+07 37.8159 1.00000
  6.310E+13 6.310E+13 5.922E+00 3.462E+05 6.128E+06 8.893E+07 9.541E+07 9.541E+07 3.782E+07 38.0462 1.00000
  7.079E+13 7.079E+13 5.948E+00 3.884E+05 6.876E+06 1.021E+08 1.094E+08 1.094E+08 3.790E+07 38.2764 1.00000
  7.943E+13 7.943E+13 5.974E+00 4.358E+05 7.714E+06 1.173E+08 1.254E+08 1.254E+08 3.797E+07 38.5067 1.00000
  8.913E+13 8.913E+13 6.000E+00 4.890E+05 8.655E+06 1.347E+08 1.439E+08 1.439E+08 3.805E+07 38.7370 1.00000
