 Incident particle is a Tau with M = 1776.82000 MeV
 Index = 0: NitrousOxide
      Absorber with <Z/A> = 0.49984
 Sternheimer coef:  a     k=m_s   x_0    x_1    I[eV]   Cbar  delta0
                 0.1199  3.3318  1.6477  4.1565   84.9 10.1575 0.00

 *** Table generated with PUMAS v1.00 ***

      T         p     Ionization  brems     pair     photonuc  Radloss    dE/dx   CSDA Range  delta   beta
    [MeV]    [MeV/c]  -----------------------[MeV cm^2/g]------------------------  [g/cm^2]
  1.000E+05 1.018E+05 2.531E+00 1.454E-04 2.257E-03 8.297E-03 1.070E-02 2.541E+00 1.967E+04  0.1499 0.99985
  1.122E+05 1.140E+05 2.560E+00 1.680E-04 2.723E-03 9.367E-03 1.226E-02 2.572E+00 2.445E+04  0.2289 0.99988
  1.259E+05 1.277E+05 2.589E+00 1.939E-04 3.273E-03 1.052E-02 1.399E-02 2.603E+00 2.974E+04  0.3150 0.99990
  1.413E+05 1.430E+05 2.617E+00 2.238E-04 3.920E-03 1.182E-02 1.596E-02 2.633E+00 3.561E+04  0.4082 0.99992
  1.585E+05 1.603E+05 2.645E+00 2.582E-04 4.682E-03 1.327E-02 1.821E-02 2.663E+00 4.211E+04  0.5082 0.99994
  1.778E+05 1.796E+05 2.672E+00 2.977E-04 5.576E-03 1.489E-02 2.076E-02 2.693E+00 4.934E+04  0.6148 0.99995
  1.995E+05 2.013E+05 2.699E+00 3.431E-04 6.622E-03 1.673E-02 2.370E-02 2.723E+00 5.735E+04  0.7279 0.99996
  2.239E+05 2.256E+05 2.726E+00 3.952E-04 7.845E-03 1.875E-02 2.699E-02 2.753E+00 6.624E+04  0.8473 0.99997
  2.512E+05 2.530E+05 2.752E+00 4.551E-04 9.272E-03 2.101E-02 3.074E-02 2.783E+00 7.611E+04  0.9728 0.99998
  2.818E+05 2.836E+05 2.777E+00 5.238E-04 1.093E-02 2.356E-02 3.502E-02 2.812E+00 8.707E+04  1.1041 0.99998
  3.162E+05 3.180E+05 2.803E+00 6.026E-04 1.286E-02 2.644E-02 3.991E-02 2.843E+00 9.923E+04  1.2412 0.99998
  3.548E+05 3.566E+05 2.827E+00 6.930E-04 1.511E-02 2.967E-02 4.547E-02 2.873E+00 1.127E+05  1.3838 0.99999
  3.981E+05 3.999E+05 2.852E+00 7.966E-04 1.770E-02 3.328E-02 5.178E-02 2.904E+00 1.277E+05  1.5317 0.99999
  4.467E+05 4.485E+05 2.876E+00 9.154E-04 2.071E-02 3.732E-02 5.894E-02 2.935E+00 1.444E+05  1.6847 0.99999
  5.012E+05 5.030E+05 2.899E+00 1.051E-03 2.418E-02 4.187E-02 6.710E-02 2.967E+00 1.628E+05  1.8427 0.99999
  5.623E+05 5.641E+05 2.923E+00 1.207E-03 2.819E-02 4.680E-02 7.619E-02 2.999E+00 1.833E+05  2.0055 1.00000
  6.310E+05 6.327E+05 2.945E+00 1.386E-03 3.281E-02 5.235E-02 8.655E-02 3.032E+00 2.061E+05  2.1728 1.00000
  7.079E+05 7.097E+05 2.968E+00 1.590E-03 3.812E-02 5.862E-02 9.834E-02 3.066E+00 2.313E+05  2.3446 1.00000
  7.943E+05 7.961E+05 2.990E+00 1.824E-03 4.424E-02 6.570E-02 1.118E-01 3.102E+00 2.594E+05  2.5206 1.00000
  8.913E+05 8.930E+05 3.011E+00 2.091E-03 5.125E-02 7.370E-02 1.270E-01 3.139E+00 2.904E+05  2.7006 1.00000
  1.000E+06 1.002E+06 3.033E+00 2.397E-03 5.931E-02 8.275E-02 1.445E-01 3.177E+00 3.249E+05  2.8845 1.00000
  1.122E+06 1.124E+06 3.054E+00 2.747E-03 6.853E-02 9.299E-02 1.643E-01 3.218E+00 3.630E+05  3.0721 1.00000
  1.259E+06 1.261E+06 3.074E+00 3.147E-03 7.909E-02 1.046E-01 1.868E-01 3.261E+00 4.053E+05  3.2632 1.00000
  1.413E+06 1.414E+06 3.094E+00 3.604E-03 9.116E-02 1.177E-01 2.125E-01 3.307E+00 4.521E+05  3.4576 1.00000
  1.585E+06 1.587E+06 3.114E+00 4.126E-03 1.049E-01 1.326E-01 2.417E-01 3.356E+00 5.038E+05  3.6552 1.00000
  1.778E+06 1.780E+06 3.134E+00 4.723E-03 1.207E-01 1.495E-01 2.749E-01 3.409E+00 5.610E+05  3.8558 1.00000
  1.995E+06 1.997E+06 3.153E+00 5.405E-03 1.386E-01 1.687E-01 3.127E-01 3.465E+00 6.241E+05  4.0593 1.00000
  2.239E+06 2.240E+06 3.171E+00 6.183E-03 1.590E-01 1.905E-01 3.557E-01 3.527E+00 6.938E+05  4.2654 1.00000
  2.512E+06 2.514E+06 3.190E+00 7.072E-03 1.823E-01 2.153E-01 4.046E-01 3.595E+00 7.705E+05  4.4741 1.00000
  2.818E+06 2.820E+06 3.208E+00 8.086E-03 2.087E-01 2.434E-01 4.602E-01 3.668E+00 8.549E+05  4.6851 1.00000
  3.162E+06 3.164E+06 3.226E+00 9.243E-03 2.387E-01 2.754E-01 5.234E-01 3.749E+00 9.476E+05  4.8983 1.00000
  3.548E+06 3.550E+06 3.243E+00 1.056E-02 2.728E-01 3.118E-01 5.952E-01 3.839E+00 1.049E+06  5.1136 1.00000
  3.981E+06 3.983E+06 3.261E+00 1.207E-02 3.114E-01 3.532E-01 6.767E-01 3.937E+00 1.161E+06  5.3308 1.00000
  4.467E+06 4.469E+06 3.277E+00 1.378E-02 3.552E-01 4.004E-01 7.694E-01 4.047E+00 1.282E+06  5.5497 1.00000
  5.012E+06 5.014E+06 3.294E+00 1.574E-02 4.048E-01 4.540E-01 8.746E-01 4.169E+00 1.415E+06  5.7703 1.00000
  5.623E+06 5.625E+06 3.310E+00 1.797E-02 4.610E-01 5.151E-01 9.941E-01 4.304E+00 1.560E+06  5.9923 1.00000
  6.310E+06 6.311E+06 3.326E+00 2.051E-02 5.245E-01 5.847E-01 1.130E+00 4.456E+00 1.716E+06  6.2157 1.00000
  7.079E+06 7.081E+06 3.342E+00 2.340E-02 5.964E-01 6.639E-01 1.284E+00 4.626E+00 1.886E+06  6.4402 1.00000
  7.943E+06 7.945E+06 3.358E+00 2.670E-02 6.775E-01 7.542E-01 1.458E+00 4.816E+00 2.069E+06  6.6659 1.00000
  8.913E+06 8.914E+06 3.373E+00 3.045E-02 7.692E-01 8.571E-01 1.657E+00 5.030E+00 2.266E+06  6.8924 1.00000
  1.000E+07 1.000E+07 3.388E+00 3.472E-02 8.727E-01 9.744E-01 1.882E+00 5.270E+00 2.477E+06  7.1198 1.00000
  1.122E+07 1.122E+07 3.403E+00 3.957E-02 9.894E-01 1.108E+00 2.137E+00 5.541E+00 2.703E+06  7.3479 1.00000
  1.259E+07 1.259E+07 3.418E+00 4.509E-02 1.121E+00 1.261E+00 2.427E+00 5.845E+00 2.944E+06  7.5767 1.00000
  1.413E+07 1.413E+07 3.433E+00 5.137E-02 1.270E+00 1.434E+00 2.755E+00 6.188E+00 3.199E+06  7.8058 1.00000
  1.585E+07 1.585E+07 3.447E+00 5.851E-02 1.437E+00 1.633E+00 3.128E+00 6.575E+00 3.469E+06  8.0354 1.00000
  1.778E+07 1.778E+07 3.462E+00 6.662E-02 1.625E+00 1.859E+00 3.551E+00 7.013E+00 3.754E+06  8.2653 1.00000
  1.995E+07 1.995E+07 3.476E+00 7.583E-02 1.838E+00 2.117E+00 4.030E+00 7.506E+00 4.054E+06  8.4953 1.00000
  2.239E+07 2.239E+07 3.490E+00 8.629E-02 2.077E+00 2.411E+00 4.574E+00 8.064E+00 4.367E+06  8.7255 1.00000
  2.512E+07 2.512E+07 3.504E+00 9.817E-02 2.345E+00 2.747E+00 5.190E+00 8.695E+00 4.693E+06  8.9557 1.00000
  2.818E+07 2.819E+07 3.518E+00 1.117E-01 2.648E+00 3.130E+00 5.890E+00 9.408E+00 5.032E+06  9.1860 1.00000
  3.162E+07 3.162E+07 3.532E+00 1.270E-01 2.989E+00 3.567E+00 6.683E+00 1.021E+01 5.383E+06  9.4162 1.00000
  3.548E+07 3.548E+07 3.546E+00 1.443E-01 3.371E+00 4.066E+00 7.582E+00 1.113E+01 5.746E+06  9.6465 1.00000
  3.981E+07 3.981E+07 3.560E+00 1.640E-01 3.802E+00 4.635E+00 8.601E+00 1.216E+01 6.118E+06  9.8767 1.00000
  4.467E+07 4.467E+07 3.574E+00 1.863E-01 4.286E+00 5.285E+00 9.758E+00 1.333E+01 6.500E+06 10.1070 1.00000
  5.012E+07 5.012E+07 3.588E+00 2.116E-01 4.830E+00 6.027E+00 1.107E+01 1.466E+01 6.890E+06 10.3372 1.00000
  5.623E+07 5.624E+07 3.602E+00 2.402E-01 5.441E+00 6.874E+00 1.256E+01 1.616E+01 7.288E+06 10.5675 1.00000
  6.310E+07 6.310E+07 3.616E+00 2.727E-01 6.128E+00 7.841E+00 1.424E+01 1.786E+01 7.693E+06 10.7977 1.00000
  7.079E+07 7.080E+07 3.630E+00 3.095E-01 6.900E+00 8.945E+00 1.615E+01 1.978E+01 8.103E+06 11.0280 1.00000
  7.943E+07 7.943E+07 3.644E+00 3.511E-01 7.767E+00 1.021E+01 1.832E+01 2.197E+01 8.518E+06 11.2582 1.00000
  8.913E+07 8.913E+07 3.658E+00 3.982E-01 8.740E+00 1.165E+01 2.078E+01 2.444E+01 8.937E+06 11.4885 1.00000
  1.000E+08 1.000E+08 3.671E+00 4.514E-01 9.834E+00 1.329E+01 2.357E+01 2.725E+01 9.359E+06 11.7187 1.00000
  1.122E+08 1.122E+08 3.685E+00 5.116E-01 1.106E+01 1.517E+01 2.674E+01 3.043E+01 9.783E+06 11.9490 1.00000
  1.259E+08 1.259E+08 3.699E+00 5.798E-01 1.244E+01 1.731E+01 3.033E+01 3.403E+01 1.021E+07 12.1792 1.00000
  1.413E+08 1.413E+08 3.714E+00 6.568E-01 1.399E+01 1.976E+01 3.441E+01 3.812E+01 1.064E+07 12.4095 1.00000
  1.585E+08 1.585E+08 3.728E+00 7.438E-01 1.573E+01 2.256E+01 3.903E+01 4.276E+01 1.106E+07 12.6398 1.00000
  1.778E+08 1.778E+08 3.742E+00 8.421E-01 1.768E+01 2.575E+01 4.427E+01 4.802E+01 1.149E+07 12.8700 1.00000
  1.995E+08 1.995E+08 3.756E+00 9.532E-01 1.987E+01 2.940E+01 5.023E+01 5.398E+01 1.192E+07 13.1003 1.00000
  2.239E+08 2.239E+08 3.770E+00 1.079E+00 2.233E+01 3.357E+01 5.698E+01 6.075E+01 1.234E+07 13.3305 1.00000
  2.512E+08 2.512E+08 3.785E+00 1.220E+00 2.509E+01 3.834E+01 6.465E+01 6.843E+01 1.277E+07 13.5608 1.00000
  2.818E+08 2.818E+08 3.799E+00 1.380E+00 2.819E+01 4.378E+01 7.335E+01 7.715E+01 1.319E+07 13.7910 1.00000
  3.162E+08 3.162E+08 3.813E+00 1.560E+00 3.167E+01 5.000E+01 8.323E+01 8.704E+01 1.361E+07 14.0213 1.00000
  3.548E+08 3.548E+08 3.828E+00 1.763E+00 3.557E+01 5.711E+01 9.444E+01 9.827E+01 1.403E+07 14.2516 1.00000
  3.981E+08 3.981E+08 3.842E+00 1.993E+00 3.995E+01 6.523E+01 1.072E+02 1.110E+02 1.445E+07 14.4818 1.00000
  4.467E+08 4.467E+08 3.857E+00 2.251E+00 4.487E+01 7.451E+01 1.216E+02 1.255E+02 1.486E+07 14.7121 1.00000
  5.012E+08 5.012E+08 3.872E+00 2.542E+00 5.039E+01 8.512E+01 1.380E+02 1.419E+02 1.527E+07 14.9423 1.00000
  5.623E+08 5.623E+08 3.886E+00 2.870E+00 5.658E+01 9.724E+01 1.567E+02 1.606E+02 1.567E+07 15.1726 1.00000
  6.310E+08 6.310E+08 3.901E+00 3.240E+00 6.353E+01 1.111E+02 1.779E+02 1.818E+02 1.607E+07 15.4028 1.00000
  7.079E+08 7.079E+08 3.916E+00 3.657E+00 7.133E+01 1.269E+02 2.019E+02 2.058E+02 1.647E+07 15.6331 1.00000
  7.943E+08 7.943E+08 3.931E+00 4.126E+00 8.008E+01 1.450E+02 2.292E+02 2.332E+02 1.687E+07 15.8634 1.00000
  8.913E+08 8.913E+08 3.946E+00 4.654E+00 8.990E+01 1.657E+02 2.603E+02 2.642E+02 1.726E+07 16.0936 1.00000
  1.000E+09 1.000E+09 3.961E+00 5.249E+00 1.009E+02 1.894E+02 2.956E+02 2.995E+02 1.765E+07 16.3239 1.00000
  1.122E+09 1.122E+09 3.977E+00 5.918E+00 1.133E+02 2.164E+02 3.356E+02 3.396E+02 1.803E+07 16.5541 1.00000
  1.259E+09 1.259E+09 3.992E+00 6.672E+00 1.272E+02 2.474E+02 3.812E+02 3.852E+02 1.841E+07 16.7844 1.00000
  1.413E+09 1.413E+09 4.007E+00 7.519E+00 1.427E+02 2.827E+02 4.330E+02 4.370E+02 1.879E+07 17.0146 1.00000
  1.585E+09 1.585E+09 4.023E+00 8.473E+00 1.602E+02 3.232E+02 4.918E+02 4.959E+02 1.916E+07 17.2449 1.00000
  1.778E+09 1.778E+09 4.038E+00 9.545E+00 1.798E+02 3.694E+02 5.588E+02 5.628E+02 1.952E+07 17.4752 1.00000
  1.995E+09 1.995E+09 4.054E+00 1.075E+01 2.018E+02 4.223E+02 6.348E+02 6.389E+02 1.989E+07 17.7054 1.00000
  2.239E+09 2.239E+09 4.070E+00 1.211E+01 2.265E+02 4.828E+02 7.213E+02 7.254E+02 2.024E+07 17.9357 1.00000
  2.512E+09 2.512E+09 4.086E+00 1.363E+01 2.542E+02 5.519E+02 8.197E+02 8.238E+02 2.060E+07 18.1659 1.00000
  2.818E+09 2.818E+09 4.102E+00 1.535E+01 2.852E+02 6.310E+02 9.316E+02 9.357E+02 2.095E+07 18.3962 1.00000
  3.162E+09 3.162E+09 4.118E+00 1.727E+01 3.201E+02 7.215E+02 1.059E+03 1.063E+03 2.129E+07 18.6265 1.00000
  3.548E+09 3.548E+09 4.134E+00 1.944E+01 3.592E+02 8.250E+02 1.204E+03 1.208E+03 2.163E+07 18.8567 1.00000
  3.981E+09 3.981E+09 4.150E+00 2.187E+01 4.031E+02 9.434E+02 1.368E+03 1.373E+03 2.197E+07 19.0870 1.00000
  4.467E+09 4.467E+09 4.166E+00 2.460E+01 4.524E+02 1.079E+03 1.556E+03 1.560E+03 2.230E+07 19.3172 1.00000
  5.012E+09 5.012E+09 4.183E+00 2.767E+01 5.076E+02 1.234E+03 1.769E+03 1.773E+03 2.263E+07 19.5475 1.00000
  5.623E+09 5.623E+09 4.199E+00 3.112E+01 5.696E+02 1.411E+03 2.012E+03 2.016E+03 2.296E+07 19.7777 1.00000
  6.310E+09 6.310E+09 4.216E+00 3.500E+01 6.392E+02 1.614E+03 2.288E+03 2.292E+03 2.328E+07 20.0080 1.00000
  7.079E+09 7.079E+09 4.232E+00 3.935E+01 7.173E+02 1.846E+03 2.603E+03 2.607E+03 2.359E+07 20.2383 1.00000
  7.943E+09 7.943E+09 4.249E+00 4.424E+01 8.048E+02 2.112E+03 2.961E+03 2.965E+03 2.390E+07 20.4685 1.00000
  8.913E+09 8.913E+09 4.266E+00 4.973E+01 9.031E+02 2.416E+03 3.368E+03 3.373E+03 2.421E+07 20.6988 1.00000
  1.000E+10 1.000E+10 4.283E+00 5.589E+01 1.013E+03 2.763E+03 3.833E+03 3.837E+03 2.451E+07 20.9290 1.00000
  1.122E+10 1.122E+10 4.300E+00 6.281E+01 1.137E+03 3.161E+03 4.361E+03 4.366E+03 2.481E+07 21.1593 1.00000
  1.259E+10 1.259E+10 4.317E+00 7.058E+01 1.276E+03 3.617E+03 4.963E+03 4.968E+03 2.511E+07 21.3896 1.00000
  1.413E+10 1.413E+10 4.334E+00 7.931E+01 1.432E+03 4.138E+03 5.649E+03 5.654E+03 2.540E+07 21.6198 1.00000
  1.585E+10 1.585E+10 4.351E+00 8.910E+01 1.606E+03 4.735E+03 6.431E+03 6.435E+03 2.568E+07 21.8501 1.00000
  1.778E+10 1.778E+10 4.369E+00 1.001E+02 1.802E+03 5.419E+03 7.321E+03 7.325E+03 2.597E+07 22.0803 1.00000
  1.995E+10 1.995E+10 4.386E+00 1.124E+02 2.022E+03 6.201E+03 8.335E+03 8.340E+03 2.624E+07 22.3106 1.00000
  2.239E+10 2.239E+10 4.404E+00 1.263E+02 2.269E+03 7.096E+03 9.492E+03 9.496E+03 2.652E+07 22.5409 1.00000
  2.512E+10 2.512E+10 4.421E+00 1.419E+02 2.546E+03 8.121E+03 1.081E+04 1.081E+04 2.679E+07 22.7711 1.00000
  2.818E+10 2.818E+10 4.439E+00 1.593E+02 2.857E+03 9.295E+03 1.231E+04 1.232E+04 2.705E+07 23.0014 1.00000
  3.162E+10 3.162E+10 4.457E+00 1.789E+02 3.205E+03 1.064E+04 1.402E+04 1.403E+04 2.732E+07 23.2316 1.00000
  3.548E+10 3.548E+10 4.475E+00 2.009E+02 3.597E+03 1.218E+04 1.598E+04 1.598E+04 2.757E+07 23.4619 1.00000
  3.981E+10 3.981E+10 4.493E+00 2.256E+02 4.035E+03 1.394E+04 1.820E+04 1.821E+04 2.783E+07 23.6921 1.00000
  4.467E+10 4.467E+10 4.511E+00 2.533E+02 4.528E+03 1.596E+04 2.074E+04 2.074E+04 2.808E+07 23.9224 1.00000
  5.012E+10 5.012E+10 4.530E+00 2.844E+02 5.080E+03 1.827E+04 2.363E+04 2.364E+04 2.833E+07 24.1527 1.00000
  5.623E+10 5.623E+10 4.548E+00 3.193E+02 5.700E+03 2.092E+04 2.694E+04 2.694E+04 2.857E+07 24.3829 1.00000
  6.310E+10 6.310E+10 4.567E+00 3.584E+02 6.395E+03 2.395E+04 3.070E+04 3.071E+04 2.881E+07 24.6132 1.00000
  7.079E+10 7.079E+10 4.585E+00 4.024E+02 7.176E+03 2.742E+04 3.500E+04 3.500E+04 2.904E+07 24.8434 1.00000
  7.943E+10 7.943E+10 4.604E+00 4.517E+02 8.051E+03 3.140E+04 3.990E+04 3.991E+04 2.928E+07 25.0737 1.00000
  8.913E+10 8.913E+10 4.623E+00 5.070E+02 9.033E+03 3.595E+04 4.550E+04 4.550E+04 2.950E+07 25.3040 1.00000
  1.000E+11 1.000E+11 4.642E+00 5.691E+02 1.014E+04 4.117E+04 5.188E+04 5.188E+04 2.973E+07 25.5342 1.00000
  1.122E+11 1.122E+11 4.661E+00 6.388E+02 1.137E+04 4.716E+04 5.917E+04 5.917E+04 2.995E+07 25.7645 1.00000
  1.259E+11 1.259E+11 4.680E+00 7.170E+02 1.276E+04 5.401E+04 6.748E+04 6.749E+04 3.017E+07 25.9947 1.00000
  1.413E+11 1.413E+11 4.699E+00 8.047E+02 1.432E+04 6.186E+04 7.698E+04 7.698E+04 3.038E+07 26.2250 1.00000
  1.585E+11 1.585E+11 4.719E+00 9.031E+02 1.606E+04 7.085E+04 8.782E+04 8.782E+04 3.059E+07 26.4552 1.00000
  1.778E+11 1.778E+11 4.738E+00 1.014E+03 1.802E+04 8.116E+04 1.002E+05 1.002E+05 3.080E+07 26.6855 1.00000
  1.995E+11 1.995E+11 4.758E+00 1.138E+03 2.022E+04 9.297E+04 1.143E+05 1.143E+05 3.100E+07 26.9158 1.00000
  2.239E+11 2.239E+11 4.777E+00 1.277E+03 2.269E+04 1.065E+05 1.305E+05 1.305E+05 3.120E+07 27.1460 1.00000
  2.512E+11 2.512E+11 4.797E+00 1.433E+03 2.545E+04 1.220E+05 1.489E+05 1.489E+05 3.139E+07 27.3763 1.00000
  2.818E+11 2.818E+11 4.817E+00 1.608E+03 2.856E+04 1.398E+05 1.700E+05 1.700E+05 3.159E+07 27.6065 1.00000
  3.162E+11 3.162E+11 4.837E+00 1.804E+03 3.204E+04 1.602E+05 1.940E+05 1.940E+05 3.178E+07 27.8368 1.00000
  3.548E+11 3.548E+11 4.857E+00 2.025E+03 3.595E+04 1.836E+05 2.215E+05 2.215E+05 3.196E+07 28.0671 1.00000
  3.981E+11 3.981E+11 4.878E+00 2.272E+03 4.034E+04 2.103E+05 2.529E+05 2.529E+05 3.215E+07 28.2973 1.00000
  4.467E+11 4.467E+11 4.898E+00 2.550E+03 4.526E+04 2.410E+05 2.888E+05 2.888E+05 3.233E+07 28.5276 1.00000
  5.012E+11 5.012E+11 4.918E+00 2.861E+03 5.078E+04 2.762E+05 3.299E+05 3.299E+05 3.250E+07 28.7578 1.00000
  5.623E+11 5.623E+11 4.939E+00 3.211E+03 5.697E+04 3.166E+05 3.768E+05 3.768E+05 3.268E+07 28.9881 1.00000
  6.310E+11 6.310E+11 4.960E+00 3.603E+03 6.392E+04 3.628E+05 4.304E+05 4.304E+05 3.285E+07 29.2183 1.00000
  7.079E+11 7.079E+11 4.981E+00 4.043E+03 7.172E+04 4.159E+05 4.916E+05 4.916E+05 3.302E+07 29.4486 1.00000
  7.943E+11 7.943E+11 5.002E+00 4.536E+03 8.047E+04 4.767E+05 5.617E+05 5.617E+05 3.318E+07 29.6789 1.00000
  8.913E+11 8.913E+11 5.023E+00 5.090E+03 9.028E+04 5.464E+05 6.418E+05 6.418E+05 3.334E+07 29.9091 1.00000
  1.000E+12 1.000E+12 5.044E+00 5.712E+03 1.013E+05 6.264E+05 7.334E+05 7.334E+05 3.350E+07 30.1394 1.00000
  1.122E+12 1.122E+12 5.065E+00 6.409E+03 1.137E+05 7.182E+05 8.382E+05 8.382E+05 3.366E+07 30.3696 1.00000
  1.259E+12 1.259E+12 5.086E+00 7.192E+03 1.275E+05 8.234E+05 9.581E+05 9.581E+05 3.381E+07 30.5999 1.00000
  1.413E+12 1.413E+12 5.108E+00 8.069E+03 1.431E+05 9.440E+05 1.095E+06 1.095E+06 3.396E+07 30.8302 1.00000
  1.585E+12 1.585E+12 5.130E+00 9.054E+03 1.605E+05 1.082E+06 1.252E+06 1.252E+06 3.411E+07 31.0604 1.00000
  1.778E+12 1.778E+12 5.151E+00 1.016E+04 1.801E+05 1.241E+06 1.431E+06 1.431E+06 3.425E+07 31.2907 1.00000
  1.995E+12 1.995E+12 5.173E+00 1.140E+04 2.021E+05 1.423E+06 1.637E+06 1.637E+06 3.440E+07 31.5209 1.00000
  2.239E+12 2.239E+12 5.195E+00 1.279E+04 2.267E+05 1.632E+06 1.872E+06 1.872E+06 3.454E+07 31.7512 1.00000
  2.512E+12 2.512E+12 5.218E+00 1.435E+04 2.544E+05 1.872E+06 2.141E+06 2.141E+06 3.467E+07 31.9814 1.00000
  2.818E+12 2.818E+12 5.240E+00 1.610E+04 2.854E+05 2.147E+06 2.448E+06 2.448E+06 3.481E+07 32.2117 1.00000
  3.162E+12 3.162E+12 5.262E+00 1.807E+04 3.202E+05 2.462E+06 2.801E+06 2.801E+06 3.494E+07 32.4420 1.00000
  3.548E+12 3.548E+12 5.285E+00 2.027E+04 3.593E+05 2.824E+06 3.204E+06 3.204E+06 3.507E+07 32.6722 1.00000
  3.981E+12 3.981E+12 5.307E+00 2.275E+04 4.031E+05 3.240E+06 3.665E+06 3.665E+06 3.519E+07 32.9025 1.00000
  4.467E+12 4.467E+12 5.330E+00 2.553E+04 4.522E+05 3.716E+06 4.194E+06 4.194E+06 3.532E+07 33.1327 1.00000
  5.012E+12 5.012E+12 5.353E+00 2.864E+04 5.074E+05 4.263E+06 4.799E+06 4.799E+06 3.544E+07 33.3630 1.00000
  5.623E+12 5.623E+12 5.376E+00 3.214E+04 5.693E+05 4.891E+06 5.492E+06 5.492E+06 3.556E+07 33.5933 1.00000
  6.310E+12 6.310E+12 5.399E+00 3.606E+04 6.387E+05 5.611E+06 6.286E+06 6.286E+06 3.568E+07 33.8235 1.00000
  7.079E+12 7.079E+12 5.422E+00 4.046E+04 7.166E+05 6.438E+06 7.195E+06 7.195E+06 3.579E+07 34.0538 1.00000
  7.943E+12 7.943E+12 5.446E+00 4.539E+04 8.040E+05 7.387E+06 8.236E+06 8.236E+06 3.590E+07 34.2840 1.00000
  8.913E+12 8.913E+12 5.469E+00 5.093E+04 9.021E+05 8.476E+06 9.429E+06 9.429E+06 3.601E+07 34.5143 1.00000
  1.000E+13 1.000E+13 5.493E+00 5.715E+04 1.012E+06 9.727E+06 1.080E+07 1.080E+07 3.612E+07 34.7446 1.00000
  1.122E+13 1.122E+13 5.517E+00 6.412E+04 1.136E+06 1.116E+07 1.236E+07 1.236E+07 3.623E+07 34.9748 1.00000
  1.259E+13 1.259E+13 5.540E+00 7.195E+04 1.274E+06 1.281E+07 1.416E+07 1.416E+07 3.633E+07 35.2051 1.00000
  1.413E+13 1.413E+13 5.565E+00 8.073E+04 1.429E+06 1.470E+07 1.621E+07 1.621E+07 3.643E+07 35.4353 1.00000
  1.585E+13 1.585E+13 5.589E+00 9.058E+04 1.604E+06 1.687E+07 1.857E+07 1.857E+07 3.653E+07 35.6656 1.00000
  1.778E+13 1.778E+13 5.613E+00 1.016E+05 1.799E+06 1.937E+07 2.127E+07 2.127E+07 3.663E+07 35.8958 1.00000
  1.995E+13 1.995E+13 5.637E+00 1.140E+05 2.019E+06 2.223E+07 2.436E+07 2.436E+07 3.673E+07 36.1261 1.00000
  2.239E+13 2.239E+13 5.662E+00 1.279E+05 2.265E+06 2.552E+07 2.791E+07 2.791E+07 3.682E+07 36.3564 1.00000
  2.512E+13 2.512E+13 5.687E+00 1.436E+05 2.541E+06 2.930E+07 3.198E+07 3.198E+07 3.691E+07 36.5866 1.00000
  2.818E+13 2.818E+13 5.711E+00 1.611E+05 2.851E+06 3.363E+07 3.664E+07 3.664E+07 3.700E+07 36.8169 1.00000
  3.162E+13 3.162E+13 5.736E+00 1.807E+05 3.199E+06 3.861E+07 4.199E+07 4.199E+07 3.709E+07 37.0471 1.00000
  3.548E+13 3.548E+13 5.761E+00 2.028E+05 3.589E+06 4.433E+07 4.812E+07 4.812E+07 3.717E+07 37.2774 1.00000
  3.981E+13 3.981E+13 5.787E+00 2.275E+05 4.027E+06 5.090E+07 5.515E+07 5.515E+07 3.726E+07 37.5077 1.00000
  4.467E+13 4.467E+13 5.812E+00 2.553E+05 4.518E+06 5.845E+07 6.322E+07 6.322E+07 3.734E+07 37.7379 1.00000
  5.012E+13 5.012E+13 5.838E+00 2.864E+05 5.069E+06 6.711E+07 7.247E+07 7.247E+07 3.742E+07 37.9682 1.00000
  5.623E+13 5.623E+13 5.863E+00 3.214E+05 5.687E+06 7.707E+07 8.308E+07 8.308E+07 3.750E+07 38.1984 1.00000
  6.310E+13 6.310E+13 5.889E+00 3.606E+05 6.380E+06 8.850E+07 9.525E+07 9.525E+07 3.758E+07 38.4287 1.00000
  7.079E+13 7.079E+13 5.915E+00 4.046E+05 7.159E+06 1.016E+08 1.092E+08 1.092E+08 3.765E+07 38.6589 1.00000
  7.943E+13 7.943E+13 5.941E+00 4.540E+05 8.032E+06 1.167E+08 1.252E+08 1.252E+08 3.773E+07 38.8892 1.00000
  8.913E+13 8.913E+13 5.967E+00 5.094E+05 9.011E+06 1.341E+08 1.436E+08 1.436E+08 3.780E+07 39.1195 1.00000
