 Incident particle is a Tau with M = 1776.82000 MeV
 Index = 0: NylonType610
      Absorber with <Z/A> = 0.55228
 Sternheimer coef:  a     k=m_s   x_0    x_1    I[eV]   Cbar  delta0
                 0.1185  3.3912  0.1304  2.5681   63.2  3.0333 0.00

 *** Table generated with PUMAS v1.00 ***

      T         p     Ionization  brems     pair     photonuc  Radloss    dE/dx   CSDA Range  delta   beta
    [MeV]    [MeV/c]  -----------------------[MeV cm^2/g]------------------------  [g/cm^2]
  1.000E+05 1.018E+05 2.425E+00 1.185E-04 1.842E-03 8.435E-03 1.040E-02 2.435E+00 2.053E+04  5.1203 0.99985
  1.122E+05 1.140E+05 2.445E+00 1.368E-04 2.228E-03 9.533E-03 1.190E-02 2.457E+00 2.552E+04  5.3358 0.99988
  1.259E+05 1.277E+05 2.466E+00 1.579E-04 2.684E-03 1.072E-02 1.356E-02 2.480E+00 3.107E+04  5.5531 0.99990
  1.413E+05 1.430E+05 2.487E+00 1.822E-04 3.222E-03 1.205E-02 1.545E-02 2.502E+00 3.723E+04  5.7723 0.99992
  1.585E+05 1.603E+05 2.507E+00 2.102E-04 3.855E-03 1.354E-02 1.761E-02 2.525E+00 4.409E+04  5.9931 0.99994
  1.778E+05 1.796E+05 2.528E+00 2.423E-04 4.599E-03 1.521E-02 2.005E-02 2.548E+00 5.172E+04  6.2154 0.99995
  1.995E+05 2.013E+05 2.548E+00 2.792E-04 5.470E-03 1.712E-02 2.287E-02 2.571E+00 6.020E+04  6.4390 0.99996
  2.239E+05 2.256E+05 2.568E+00 3.216E-04 6.489E-03 1.920E-02 2.601E-02 2.594E+00 6.962E+04  6.6637 0.99997
  2.512E+05 2.530E+05 2.589E+00 3.703E-04 7.679E-03 2.154E-02 2.959E-02 2.618E+00 8.010E+04  6.8895 0.99998
  2.818E+05 2.836E+05 2.609E+00 4.261E-04 9.065E-03 2.417E-02 3.367E-02 2.643E+00 9.175E+04  7.1161 0.99998
  3.162E+05 3.180E+05 2.629E+00 4.902E-04 1.068E-02 2.715E-02 3.832E-02 2.668E+00 1.047E+05  7.3435 0.99998
  3.548E+05 3.566E+05 2.649E+00 5.637E-04 1.255E-02 3.050E-02 4.362E-02 2.693E+00 1.191E+05  7.5715 0.99999
  3.981E+05 3.999E+05 2.670E+00 6.480E-04 1.472E-02 3.424E-02 4.961E-02 2.719E+00 1.351E+05  7.8000 0.99999
  4.467E+05 4.485E+05 2.690E+00 7.447E-04 1.724E-02 3.844E-02 5.642E-02 2.746E+00 1.529E+05  8.0289 0.99999
  5.012E+05 5.030E+05 2.710E+00 8.554E-04 2.014E-02 4.316E-02 6.416E-02 2.774E+00 1.726E+05  8.2582 0.99999
  5.623E+05 5.641E+05 2.730E+00 9.823E-04 2.350E-02 4.829E-02 7.277E-02 2.802E+00 1.946E+05  8.4876 1.00000
  6.310E+05 6.327E+05 2.750E+00 1.128E-03 2.738E-02 5.407E-02 8.257E-02 2.832E+00 2.189E+05  8.7171 1.00000
  7.079E+05 7.097E+05 2.769E+00 1.294E-03 3.184E-02 6.059E-02 9.372E-02 2.863E+00 2.460E+05  8.9468 1.00000
  7.943E+05 7.961E+05 2.789E+00 1.485E-03 3.697E-02 6.796E-02 1.064E-01 2.896E+00 2.760E+05  9.1765 1.00000
  8.913E+05 8.930E+05 2.809E+00 1.703E-03 4.286E-02 7.630E-02 1.209E-01 2.930E+00 3.092E+05  9.4063 1.00000
  1.000E+06 1.002E+06 2.828E+00 1.952E-03 4.963E-02 8.573E-02 1.373E-01 2.966E+00 3.461E+05  9.6361 1.00000
  1.122E+06 1.124E+06 2.848E+00 2.238E-03 5.739E-02 9.640E-02 1.560E-01 3.004E+00 3.870E+05  9.8660 1.00000
  1.259E+06 1.261E+06 2.867E+00 2.564E-03 6.628E-02 1.085E-01 1.773E-01 3.045E+00 4.323E+05 10.0959 1.00000
  1.413E+06 1.414E+06 2.887E+00 2.938E-03 7.644E-02 1.222E-01 2.016E-01 3.088E+00 4.824E+05 10.3258 1.00000
  1.585E+06 1.587E+06 2.906E+00 3.365E-03 8.806E-02 1.378E-01 2.292E-01 3.135E+00 5.378E+05 10.5558 1.00000
  1.778E+06 1.780E+06 2.925E+00 3.853E-03 1.013E-01 1.554E-01 2.606E-01 3.185E+00 5.990E+05 10.7858 1.00000
  1.995E+06 1.997E+06 2.944E+00 4.411E-03 1.165E-01 1.755E-01 2.963E-01 3.240E+00 6.665E+05 11.0159 1.00000
  2.239E+06 2.240E+06 2.962E+00 5.049E-03 1.337E-01 1.982E-01 3.370E-01 3.299E+00 7.410E+05 11.2460 1.00000
  2.512E+06 2.514E+06 2.981E+00 5.777E-03 1.533E-01 2.241E-01 3.832E-01 3.364E+00 8.230E+05 11.4760 1.00000
  2.818E+06 2.820E+06 2.999E+00 6.609E-03 1.757E-01 2.535E-01 4.358E-01 3.435E+00 9.132E+05 11.7061 1.00000
  3.162E+06 3.164E+06 3.018E+00 7.559E-03 2.011E-01 2.869E-01 4.956E-01 3.513E+00 1.012E+06 11.9363 1.00000
  3.548E+06 3.550E+06 3.036E+00 8.643E-03 2.299E-01 3.250E-01 5.635E-01 3.599E+00 1.121E+06 12.1664 1.00000
  3.981E+06 3.983E+06 3.053E+00 9.881E-03 2.626E-01 3.682E-01 6.408E-01 3.694E+00 1.239E+06 12.3966 1.00000
  4.467E+06 4.469E+06 3.071E+00 1.129E-02 2.998E-01 4.175E-01 7.286E-01 3.800E+00 1.369E+06 12.6267 1.00000
  5.012E+06 5.014E+06 3.089E+00 1.290E-02 3.418E-01 4.736E-01 8.283E-01 3.917E+00 1.510E+06 12.8569 1.00000
  5.623E+06 5.625E+06 3.106E+00 1.474E-02 3.895E-01 5.375E-01 9.417E-01 4.048E+00 1.664E+06 13.0871 1.00000
  6.310E+06 6.311E+06 3.123E+00 1.684E-02 4.434E-01 6.102E-01 1.070E+00 4.194E+00 1.831E+06 13.3173 1.00000
  7.079E+06 7.081E+06 3.140E+00 1.922E-02 5.044E-01 6.931E-01 1.217E+00 4.357E+00 2.011E+06 13.5475 1.00000
  7.943E+06 7.945E+06 3.157E+00 2.194E-02 5.734E-01 7.875E-01 1.383E+00 4.540E+00 2.205E+06 13.7777 1.00000
  8.913E+06 8.914E+06 3.174E+00 2.504E-02 6.513E-01 8.952E-01 1.571E+00 4.745E+00 2.414E+06 14.0079 1.00000
  1.000E+07 1.000E+07 3.190E+00 2.857E-02 7.393E-01 1.018E+00 1.786E+00 4.976E+00 2.638E+06 14.2381 1.00000
  1.122E+07 1.122E+07 3.207E+00 3.259E-02 8.386E-01 1.158E+00 2.029E+00 5.236E+00 2.877E+06 14.4683 1.00000
  1.259E+07 1.259E+07 3.223E+00 3.716E-02 9.507E-01 1.317E+00 2.305E+00 5.528E+00 3.131E+06 14.6985 1.00000
  1.413E+07 1.413E+07 3.239E+00 4.237E-02 1.077E+00 1.499E+00 2.618E+00 5.858E+00 3.401E+06 14.9288 1.00000
  1.585E+07 1.585E+07 3.255E+00 4.829E-02 1.220E+00 1.706E+00 2.974E+00 6.229E+00 3.687E+06 15.1590 1.00000
  1.778E+07 1.778E+07 3.271E+00 5.502E-02 1.380E+00 1.943E+00 3.378E+00 6.649E+00 3.988E+06 15.3892 1.00000
  1.995E+07 1.995E+07 3.287E+00 6.267E-02 1.561E+00 2.213E+00 3.837E+00 7.123E+00 4.303E+06 15.6195 1.00000
  2.239E+07 2.239E+07 3.302E+00 7.137E-02 1.765E+00 2.521E+00 4.357E+00 7.659E+00 4.633E+06 15.8497 1.00000
  2.512E+07 2.512E+07 3.318E+00 8.125E-02 1.994E+00 2.872E+00 4.947E+00 8.265E+00 4.976E+06 16.0799 1.00000
  2.818E+07 2.819E+07 3.333E+00 9.248E-02 2.252E+00 3.273E+00 5.618E+00 8.951E+00 5.333E+06 16.3102 1.00000
  3.162E+07 3.162E+07 3.349E+00 1.052E-01 2.543E+00 3.730E+00 6.378E+00 9.727E+00 5.702E+06 16.5404 1.00000
  3.548E+07 3.548E+07 3.364E+00 1.197E-01 2.870E+00 4.252E+00 7.241E+00 1.061E+01 6.082E+06 16.7707 1.00000
  3.981E+07 3.981E+07 3.380E+00 1.361E-01 3.237E+00 4.848E+00 8.221E+00 1.160E+01 6.473E+06 17.0009 1.00000
  4.467E+07 4.467E+07 3.395E+00 1.547E-01 3.650E+00 5.528E+00 9.333E+00 1.273E+01 6.873E+06 17.2312 1.00000
  5.012E+07 5.012E+07 3.410E+00 1.759E-01 4.115E+00 6.304E+00 1.059E+01 1.401E+01 7.282E+06 17.4614 1.00000
  5.623E+07 5.624E+07 3.426E+00 1.998E-01 4.637E+00 7.190E+00 1.203E+01 1.545E+01 7.698E+06 17.6917 1.00000
  6.310E+07 6.310E+07 3.441E+00 2.269E-01 5.224E+00 8.202E+00 1.365E+01 1.709E+01 8.121E+06 17.9219 1.00000
  7.079E+07 7.080E+07 3.456E+00 2.577E-01 5.883E+00 9.357E+00 1.550E+01 1.895E+01 8.549E+06 18.1522 1.00000
  7.943E+07 7.943E+07 3.472E+00 2.925E-01 6.624E+00 1.068E+01 1.759E+01 2.106E+01 8.982E+06 18.3824 1.00000
  8.913E+07 8.913E+07 3.487E+00 3.320E-01 7.456E+00 1.218E+01 1.997E+01 2.346E+01 9.418E+06 18.6127 1.00000
  1.000E+08 1.000E+08 3.503E+00 3.766E-01 8.391E+00 1.390E+01 2.267E+01 2.617E+01 9.858E+06 18.8429 1.00000
  1.122E+08 1.122E+08 3.518E+00 4.271E-01 9.441E+00 1.587E+01 2.573E+01 2.925E+01 1.030E+07 19.0732 1.00000
  1.259E+08 1.259E+08 3.534E+00 4.843E-01 1.062E+01 1.811E+01 2.921E+01 3.275E+01 1.074E+07 19.3034 1.00000
  1.413E+08 1.413E+08 3.549E+00 5.490E-01 1.194E+01 2.067E+01 3.316E+01 3.671E+01 1.119E+07 19.5337 1.00000
  1.585E+08 1.585E+08 3.565E+00 6.221E-01 1.343E+01 2.360E+01 3.765E+01 4.122E+01 1.163E+07 19.7640 1.00000
  1.778E+08 1.778E+08 3.580E+00 7.048E-01 1.510E+01 2.694E+01 4.275E+01 4.633E+01 1.207E+07 19.9942 1.00000
  1.995E+08 1.995E+08 3.596E+00 7.982E-01 1.697E+01 3.076E+01 4.853E+01 5.213E+01 1.252E+07 20.2245 1.00000
  2.239E+08 2.239E+08 3.612E+00 9.037E-01 1.908E+01 3.512E+01 5.510E+01 5.871E+01 1.296E+07 20.4547 1.00000
  2.512E+08 2.512E+08 3.627E+00 1.023E+00 2.144E+01 4.011E+01 6.257E+01 6.620E+01 1.340E+07 20.6850 1.00000
  2.818E+08 2.818E+08 3.643E+00 1.158E+00 2.409E+01 4.580E+01 7.105E+01 7.469E+01 1.383E+07 20.9152 1.00000
  3.162E+08 3.162E+08 3.659E+00 1.309E+00 2.706E+01 5.231E+01 8.068E+01 8.434E+01 1.427E+07 21.1455 1.00000
  3.548E+08 3.548E+08 3.675E+00 1.481E+00 3.040E+01 5.975E+01 9.163E+01 9.530E+01 1.470E+07 21.3758 1.00000
  3.981E+08 3.981E+08 3.691E+00 1.674E+00 3.415E+01 6.825E+01 1.041E+02 1.078E+02 1.513E+07 21.6060 1.00000
  4.467E+08 4.467E+08 3.708E+00 1.892E+00 3.835E+01 7.796E+01 1.182E+02 1.219E+02 1.555E+07 21.8363 1.00000
  5.012E+08 5.012E+08 3.724E+00 2.139E+00 4.307E+01 8.905E+01 1.343E+02 1.380E+02 1.597E+07 22.0665 1.00000
  5.623E+08 5.623E+08 3.740E+00 2.416E+00 4.837E+01 1.017E+02 1.525E+02 1.563E+02 1.639E+07 22.2968 1.00000
  6.310E+08 6.310E+08 3.757E+00 2.729E+00 5.431E+01 1.162E+02 1.733E+02 1.770E+02 1.680E+07 22.5270 1.00000
  7.079E+08 7.079E+08 3.773E+00 3.081E+00 6.098E+01 1.328E+02 1.969E+02 2.006E+02 1.721E+07 22.7573 1.00000
  7.943E+08 7.943E+08 3.790E+00 3.478E+00 6.847E+01 1.518E+02 2.237E+02 2.275E+02 1.762E+07 22.9876 1.00000
  8.913E+08 8.913E+08 3.806E+00 3.925E+00 7.687E+01 1.734E+02 2.542E+02 2.580E+02 1.802E+07 23.2178 1.00000
  1.000E+09 1.000E+09 3.823E+00 4.429E+00 8.629E+01 1.982E+02 2.889E+02 2.927E+02 1.841E+07 23.4481 1.00000
  1.122E+09 1.122E+09 3.840E+00 4.996E+00 9.687E+01 2.265E+02 3.283E+02 3.322E+02 1.881E+07 23.6783 1.00000
  1.259E+09 1.259E+09 3.857E+00 5.635E+00 1.087E+02 2.588E+02 3.732E+02 3.771E+02 1.919E+07 23.9086 1.00000
  1.413E+09 1.413E+09 3.874E+00 6.353E+00 1.221E+02 2.958E+02 4.242E+02 4.281E+02 1.958E+07 24.1388 1.00000
  1.585E+09 1.585E+09 3.891E+00 7.162E+00 1.370E+02 3.381E+02 4.823E+02 4.862E+02 1.996E+07 24.3691 1.00000
  1.778E+09 1.778E+09 3.908E+00 8.072E+00 1.538E+02 3.865E+02 5.483E+02 5.523E+02 2.033E+07 24.5994 1.00000
  1.995E+09 1.995E+09 3.925E+00 9.096E+00 1.726E+02 4.418E+02 6.235E+02 6.274E+02 2.070E+07 24.8296 1.00000
  2.239E+09 2.239E+09 3.943E+00 1.025E+01 1.937E+02 5.051E+02 7.090E+02 7.130E+02 2.106E+07 25.0599 1.00000
  2.512E+09 2.512E+09 3.960E+00 1.154E+01 2.174E+02 5.775E+02 8.064E+02 8.104E+02 2.142E+07 25.2901 1.00000
  2.818E+09 2.818E+09 3.978E+00 1.300E+01 2.440E+02 6.602E+02 9.172E+02 9.212E+02 2.178E+07 25.5204 1.00000
  3.162E+09 3.162E+09 3.996E+00 1.463E+01 2.738E+02 7.549E+02 1.043E+03 1.047E+03 2.213E+07 25.7507 1.00000
  3.548E+09 3.548E+09 4.013E+00 1.647E+01 3.073E+02 8.632E+02 1.187E+03 1.191E+03 2.248E+07 25.9809 1.00000
  3.981E+09 3.981E+09 4.031E+00 1.854E+01 3.448E+02 9.871E+02 1.350E+03 1.354E+03 2.282E+07 26.2112 1.00000
  4.467E+09 4.467E+09 4.049E+00 2.087E+01 3.869E+02 1.129E+03 1.537E+03 1.541E+03 2.315E+07 26.4414 1.00000
  5.012E+09 5.012E+09 4.067E+00 2.348E+01 4.342E+02 1.291E+03 1.749E+03 1.753E+03 2.349E+07 26.6717 1.00000
  5.623E+09 5.623E+09 4.085E+00 2.641E+01 4.872E+02 1.476E+03 1.990E+03 1.994E+03 2.381E+07 26.9019 1.00000
  6.310E+09 6.310E+09 4.104E+00 2.971E+01 5.468E+02 1.689E+03 2.265E+03 2.269E+03 2.414E+07 27.1322 1.00000
  7.079E+09 7.079E+09 4.122E+00 3.342E+01 6.135E+02 1.931E+03 2.578E+03 2.583E+03 2.446E+07 27.3625 1.00000
  7.943E+09 7.943E+09 4.141E+00 3.758E+01 6.884E+02 2.209E+03 2.935E+03 2.940E+03 2.477E+07 27.5927 1.00000
  8.913E+09 8.913E+09 4.159E+00 4.225E+01 7.725E+02 2.527E+03 3.342E+03 3.346E+03 2.508E+07 27.8230 1.00000
  1.000E+10 1.000E+10 4.178E+00 4.750E+01 8.668E+02 2.891E+03 3.806E+03 3.810E+03 2.539E+07 28.0532 1.00000
  1.122E+10 1.122E+10 4.197E+00 5.339E+01 9.726E+02 3.308E+03 4.334E+03 4.338E+03 2.569E+07 28.2835 1.00000
  1.259E+10 1.259E+10 4.216E+00 6.001E+01 1.091E+03 3.784E+03 4.936E+03 4.940E+03 2.598E+07 28.5138 1.00000
  1.413E+10 1.413E+10 4.235E+00 6.745E+01 1.225E+03 4.330E+03 5.622E+03 5.626E+03 2.627E+07 28.7440 1.00000
  1.585E+10 1.585E+10 4.254E+00 7.579E+01 1.374E+03 4.954E+03 6.404E+03 6.409E+03 2.656E+07 28.9743 1.00000
  1.778E+10 1.778E+10 4.273E+00 8.516E+01 1.542E+03 5.669E+03 7.296E+03 7.301E+03 2.685E+07 29.2045 1.00000
  1.995E+10 1.995E+10 4.292E+00 9.568E+01 1.730E+03 6.488E+03 8.313E+03 8.318E+03 2.712E+07 29.4348 1.00000
  2.239E+10 2.239E+10 4.312E+00 1.075E+02 1.941E+03 7.425E+03 9.473E+03 9.477E+03 2.740E+07 29.6651 1.00000
  2.512E+10 2.512E+10 4.331E+00 1.207E+02 2.178E+03 8.497E+03 1.080E+04 1.080E+04 2.767E+07 29.8953 1.00000
  2.818E+10 2.818E+10 4.351E+00 1.356E+02 2.444E+03 9.725E+03 1.230E+04 1.231E+04 2.794E+07 30.1256 1.00000
  3.162E+10 3.162E+10 4.371E+00 1.523E+02 2.742E+03 1.113E+04 1.403E+04 1.403E+04 2.820E+07 30.3558 1.00000
  3.548E+10 3.548E+10 4.391E+00 1.711E+02 3.077E+03 1.274E+04 1.599E+04 1.599E+04 2.846E+07 30.5861 1.00000
  3.981E+10 3.981E+10 4.411E+00 1.921E+02 3.452E+03 1.459E+04 1.823E+04 1.823E+04 2.871E+07 30.8163 1.00000
  4.467E+10 4.467E+10 4.431E+00 2.157E+02 3.873E+03 1.670E+04 2.079E+04 2.079E+04 2.896E+07 31.0466 1.00000
  5.012E+10 5.012E+10 4.451E+00 2.422E+02 4.346E+03 1.911E+04 2.370E+04 2.371E+04 2.921E+07 31.2769 1.00000
  5.623E+10 5.623E+10 4.471E+00 2.720E+02 4.876E+03 2.188E+04 2.703E+04 2.704E+04 2.945E+07 31.5071 1.00000
  6.310E+10 6.310E+10 4.492E+00 3.054E+02 5.471E+03 2.506E+04 3.083E+04 3.084E+04 2.969E+07 31.7374 1.00000
  7.079E+10 7.079E+10 4.512E+00 3.429E+02 6.138E+03 2.869E+04 3.517E+04 3.518E+04 2.992E+07 31.9676 1.00000
  7.943E+10 7.943E+10 4.533E+00 3.849E+02 6.887E+03 3.285E+04 4.012E+04 4.013E+04 3.015E+07 32.1979 1.00000
  8.913E+10 8.913E+10 4.554E+00 4.321E+02 7.728E+03 3.762E+04 4.578E+04 4.578E+04 3.038E+07 32.4282 1.00000
  1.000E+11 1.000E+11 4.575E+00 4.850E+02 8.670E+03 4.308E+04 5.224E+04 5.224E+04 3.060E+07 32.6584 1.00000
  1.122E+11 1.122E+11 4.596E+00 5.445E+02 9.728E+03 4.934E+04 5.961E+04 5.962E+04 3.082E+07 32.8887 1.00000
  1.259E+11 1.259E+11 4.617E+00 6.112E+02 1.091E+04 5.651E+04 6.803E+04 6.804E+04 3.104E+07 33.1189 1.00000
  1.413E+11 1.413E+11 4.638E+00 6.860E+02 1.225E+04 6.472E+04 7.765E+04 7.766E+04 3.125E+07 33.3492 1.00000
  1.585E+11 1.585E+11 4.660E+00 7.699E+02 1.374E+04 7.413E+04 8.864E+04 8.865E+04 3.146E+07 33.5794 1.00000
  1.778E+11 1.778E+11 4.681E+00 8.642E+02 1.542E+04 8.492E+04 1.012E+05 1.012E+05 3.166E+07 33.8097 1.00000
  1.995E+11 1.995E+11 4.703E+00 9.699E+02 1.730E+04 9.728E+04 1.155E+05 1.155E+05 3.186E+07 34.0400 1.00000
  2.239E+11 2.239E+11 4.725E+00 1.089E+03 1.941E+04 1.114E+05 1.319E+05 1.319E+05 3.206E+07 34.2702 1.00000
  2.512E+11 2.512E+11 4.746E+00 1.222E+03 2.178E+04 1.277E+05 1.507E+05 1.507E+05 3.225E+07 34.5005 1.00000
  2.818E+11 2.818E+11 4.768E+00 1.371E+03 2.443E+04 1.463E+05 1.721E+05 1.721E+05 3.244E+07 34.7307 1.00000
  3.162E+11 3.162E+11 4.791E+00 1.539E+03 2.741E+04 1.676E+05 1.966E+05 1.966E+05 3.263E+07 34.9610 1.00000
  3.548E+11 3.548E+11 4.813E+00 1.727E+03 3.076E+04 1.920E+05 2.245E+05 2.245E+05 3.282E+07 35.1913 1.00000
  3.981E+11 3.981E+11 4.835E+00 1.938E+03 3.451E+04 2.201E+05 2.565E+05 2.565E+05 3.300E+07 35.4215 1.00000
  4.467E+11 4.467E+11 4.858E+00 2.174E+03 3.872E+04 2.522E+05 2.931E+05 2.931E+05 3.317E+07 35.6518 1.00000
  5.012E+11 5.012E+11 4.880E+00 2.440E+03 4.344E+04 2.890E+05 3.349E+05 3.349E+05 3.335E+07 35.8820 1.00000
  5.623E+11 5.623E+11 4.903E+00 2.738E+03 4.874E+04 3.312E+05 3.827E+05 3.827E+05 3.352E+07 36.1123 1.00000
  6.310E+11 6.310E+11 4.926E+00 3.073E+03 5.468E+04 3.796E+05 4.374E+05 4.374E+05 3.369E+07 36.3425 1.00000
  7.079E+11 7.079E+11 4.949E+00 3.448E+03 6.135E+04 4.351E+05 4.999E+05 4.999E+05 3.385E+07 36.5728 1.00000
  7.943E+11 7.943E+11 4.972E+00 3.869E+03 6.884E+04 4.988E+05 5.715E+05 5.715E+05 3.401E+07 36.8031 1.00000
  8.913E+11 8.913E+11 4.995E+00 4.342E+03 7.723E+04 5.717E+05 6.533E+05 6.533E+05 3.417E+07 37.0333 1.00000
  1.000E+12 1.000E+12 5.019E+00 4.872E+03 8.666E+04 6.554E+05 7.470E+05 7.470E+05 3.433E+07 37.2636 1.00000
  1.122E+12 1.122E+12 5.042E+00 5.467E+03 9.723E+04 7.514E+05 8.541E+05 8.541E+05 3.448E+07 37.4938 1.00000
  1.259E+12 1.259E+12 5.066E+00 6.134E+03 1.091E+05 8.615E+05 9.767E+05 9.767E+05 3.463E+07 37.7241 1.00000
  1.413E+12 1.413E+12 5.090E+00 6.883E+03 1.224E+05 9.877E+05 1.117E+06 1.117E+06 3.478E+07 37.9544 1.00000
  1.585E+12 1.585E+12 5.114E+00 7.723E+03 1.373E+05 1.133E+06 1.278E+06 1.278E+06 3.493E+07 38.1846 1.00000
  1.778E+12 1.778E+12 5.138E+00 8.666E+03 1.541E+05 1.299E+06 1.461E+06 1.461E+06 3.507E+07 38.4149 1.00000
  1.995E+12 1.995E+12 5.162E+00 9.724E+03 1.729E+05 1.489E+06 1.672E+06 1.672E+06 3.521E+07 38.6451 1.00000
  2.239E+12 2.239E+12 5.186E+00 1.091E+04 1.939E+05 1.708E+06 1.913E+06 1.913E+06 3.534E+07 38.8754 1.00000
  2.512E+12 2.512E+12 5.211E+00 1.224E+04 2.176E+05 1.958E+06 2.188E+06 2.188E+06 3.548E+07 39.1056 1.00000
  2.818E+12 2.818E+12 5.235E+00 1.374E+04 2.441E+05 2.246E+06 2.504E+06 2.504E+06 3.561E+07 39.3359 1.00000
  3.162E+12 3.162E+12 5.260E+00 1.541E+04 2.739E+05 2.576E+06 2.866E+06 2.866E+06 3.574E+07 39.5662 1.00000
  3.548E+12 3.548E+12 5.285E+00 1.729E+04 3.073E+05 2.955E+06 3.280E+06 3.280E+06 3.586E+07 39.7964 1.00000
  3.981E+12 3.981E+12 5.310E+00 1.941E+04 3.448E+05 3.390E+06 3.754E+06 3.754E+06 3.599E+07 40.0267 1.00000
  4.467E+12 4.467E+12 5.335E+00 2.177E+04 3.869E+05 3.888E+06 4.297E+06 4.297E+06 3.611E+07 40.2569 1.00000
  5.012E+12 5.012E+12 5.360E+00 2.443E+04 4.341E+05 4.460E+06 4.919E+06 4.919E+06 3.623E+07 40.4872 1.00000
  5.623E+12 5.623E+12 5.386E+00 2.741E+04 4.870E+05 5.117E+06 5.632E+06 5.632E+06 3.634E+07 40.7175 1.00000
  6.310E+12 6.310E+12 5.411E+00 3.076E+04 5.464E+05 5.871E+06 6.448E+06 6.448E+06 3.646E+07 40.9477 1.00000
  7.079E+12 7.079E+12 5.437E+00 3.451E+04 6.130E+05 6.736E+06 7.384E+06 7.384E+06 3.657E+07 41.1780 1.00000
  7.943E+12 7.943E+12 5.463E+00 3.872E+04 6.878E+05 7.729E+06 8.455E+06 8.455E+06 3.668E+07 41.4082 1.00000
  8.913E+12 8.913E+12 5.489E+00 4.345E+04 7.717E+05 8.869E+06 9.684E+06 9.684E+06 3.679E+07 41.6385 1.00000
  1.000E+13 1.000E+13 5.515E+00 4.875E+04 8.658E+05 1.018E+07 1.109E+07 1.109E+07 3.689E+07 41.8688 1.00000
  1.122E+13 1.122E+13 5.541E+00 5.470E+04 9.714E+05 1.168E+07 1.270E+07 1.270E+07 3.699E+07 42.0990 1.00000
  1.259E+13 1.259E+13 5.568E+00 6.137E+04 1.090E+06 1.340E+07 1.455E+07 1.455E+07 3.709E+07 42.3293 1.00000
  1.413E+13 1.413E+13 5.594E+00 6.886E+04 1.223E+06 1.538E+07 1.667E+07 1.667E+07 3.719E+07 42.5595 1.00000
  1.585E+13 1.585E+13 5.621E+00 7.727E+04 1.372E+06 1.766E+07 1.910E+07 1.910E+07 3.729E+07 42.7898 1.00000
  1.778E+13 1.778E+13 5.648E+00 8.669E+04 1.539E+06 2.026E+07 2.189E+07 2.189E+07 3.738E+07 43.0200 1.00000
  1.995E+13 1.995E+13 5.675E+00 9.727E+04 1.727E+06 2.326E+07 2.508E+07 2.508E+07 3.748E+07 43.2503 1.00000
  2.239E+13 2.239E+13 5.702E+00 1.091E+05 1.938E+06 2.670E+07 2.875E+07 2.875E+07 3.757E+07 43.4806 1.00000
  2.512E+13 2.512E+13 5.729E+00 1.225E+05 2.174E+06 3.065E+07 3.295E+07 3.295E+07 3.766E+07 43.7108 1.00000
  2.818E+13 2.818E+13 5.757E+00 1.374E+05 2.439E+06 3.519E+07 3.777E+07 3.777E+07 3.774E+07 43.9411 1.00000
  3.162E+13 3.162E+13 5.784E+00 1.542E+05 2.737E+06 4.040E+07 4.329E+07 4.329E+07 3.783E+07 44.1713 1.00000
  3.548E+13 3.548E+13 5.812E+00 1.730E+05 3.070E+06 4.638E+07 4.963E+07 4.963E+07 3.791E+07 44.4016 1.00000
  3.981E+13 3.981E+13 5.840E+00 1.941E+05 3.445E+06 5.326E+07 5.690E+07 5.690E+07 3.800E+07 44.6319 1.00000
  4.467E+13 4.467E+13 5.868E+00 2.178E+05 3.865E+06 6.115E+07 6.523E+07 6.523E+07 3.807E+07 44.8621 1.00000
  5.012E+13 5.012E+13 5.896E+00 2.443E+05 4.336E+06 7.022E+07 7.480E+07 7.480E+07 3.815E+07 45.0924 1.00000
  5.623E+13 5.623E+13 5.924E+00 2.742E+05 4.865E+06 8.064E+07 8.577E+07 8.577E+07 3.823E+07 45.3226 1.00000
  6.310E+13 6.310E+13 5.953E+00 3.076E+05 5.458E+06 9.260E+07 9.837E+07 9.837E+07 3.830E+07 45.5529 1.00000
  7.079E+13 7.079E+13 5.981E+00 3.451E+05 6.124E+06 1.063E+08 1.128E+08 1.128E+08 3.838E+07 45.7831 1.00000
  7.943E+13 7.943E+13 6.010E+00 3.873E+05 6.871E+06 1.221E+08 1.294E+08 1.294E+08 3.845E+07 46.0134 1.00000
  8.913E+13 8.913E+13 6.039E+00 4.345E+05 7.709E+06 1.403E+08 1.484E+08 1.484E+08 3.852E+07 46.2437 1.00000
