 Incident particle is a Tau with M = 1776.82000 MeV
 Index = 0: NylonType11Rilsan
      Absorber with <Z/A> = 0.55640
 Sternheimer coef:  a     k=m_s   x_0    x_1    I[eV]   Cbar  delta0
                 0.1487  3.2576  0.0678  2.4281   61.6  2.7514 0.00

 *** Table generated with PUMAS v1.00 ***

      T         p     Ionization  brems     pair     photonuc  Radloss    dE/dx   CSDA Range  delta   beta
    [MeV]    [MeV/c]  -----------------------[MeV cm^2/g]------------------------  [g/cm^2]
  1.000E+05 1.018E+05 2.425E+00 1.165E-04 1.811E-03 8.446E-03 1.037E-02 2.435E+00 2.053E+04  5.3846 0.99985
  1.122E+05 1.140E+05 2.445E+00 1.345E-04 2.192E-03 9.545E-03 1.187E-02 2.457E+00 2.552E+04  5.6022 0.99988
  1.259E+05 1.277E+05 2.466E+00 1.553E-04 2.641E-03 1.073E-02 1.353E-02 2.479E+00 3.107E+04  5.8217 0.99990
  1.413E+05 1.430E+05 2.486E+00 1.792E-04 3.171E-03 1.207E-02 1.542E-02 2.502E+00 3.724E+04  6.0428 0.99992
  1.585E+05 1.603E+05 2.507E+00 2.066E-04 3.794E-03 1.356E-02 1.756E-02 2.525E+00 4.409E+04  6.2655 0.99994
  1.778E+05 1.796E+05 2.528E+00 2.382E-04 4.527E-03 1.524E-02 2.000E-02 2.548E+00 5.172E+04  6.4894 0.99995
  1.995E+05 2.013E+05 2.548E+00 2.745E-04 5.385E-03 1.715E-02 2.281E-02 2.571E+00 6.020E+04  6.7145 0.99996
  2.239E+05 2.256E+05 2.568E+00 3.162E-04 6.389E-03 1.924E-02 2.594E-02 2.594E+00 6.963E+04  6.9406 0.99997
  2.512E+05 2.530E+05 2.589E+00 3.640E-04 7.561E-03 2.158E-02 2.950E-02 2.618E+00 8.011E+04  7.1676 0.99998
  2.818E+05 2.836E+05 2.609E+00 4.189E-04 8.927E-03 2.422E-02 3.357E-02 2.643E+00 9.176E+04  7.3953 0.99998
  3.162E+05 3.180E+05 2.629E+00 4.819E-04 1.052E-02 2.721E-02 3.821E-02 2.668E+00 1.047E+05  7.6236 0.99998
  3.548E+05 3.566E+05 2.650E+00 5.542E-04 1.236E-02 3.057E-02 4.348E-02 2.693E+00 1.191E+05  7.8523 0.99999
  3.981E+05 3.999E+05 2.670E+00 6.371E-04 1.450E-02 3.432E-02 4.946E-02 2.719E+00 1.351E+05  8.0813 0.99999
  4.467E+05 4.485E+05 2.690E+00 7.321E-04 1.698E-02 3.852E-02 5.624E-02 2.746E+00 1.529E+05  8.3106 0.99999
  5.012E+05 5.030E+05 2.710E+00 8.409E-04 1.985E-02 4.326E-02 6.395E-02 2.774E+00 1.726E+05  8.5400 0.99999
  5.623E+05 5.641E+05 2.730E+00 9.657E-04 2.316E-02 4.840E-02 7.252E-02 2.803E+00 1.946E+05  8.7695 1.00000
  6.310E+05 6.327E+05 2.750E+00 1.109E-03 2.698E-02 5.420E-02 8.228E-02 2.833E+00 2.189E+05  8.9990 1.00000
  7.079E+05 7.097E+05 2.770E+00 1.272E-03 3.137E-02 6.074E-02 9.339E-02 2.864E+00 2.459E+05  9.2287 1.00000
  7.943E+05 7.961E+05 2.790E+00 1.460E-03 3.643E-02 6.813E-02 1.060E-01 2.896E+00 2.759E+05  9.4584 1.00000
  8.913E+05 8.930E+05 2.810E+00 1.674E-03 4.225E-02 7.649E-02 1.204E-01 2.930E+00 3.092E+05  9.6882 1.00000
  1.000E+06 1.002E+06 2.830E+00 1.919E-03 4.892E-02 8.595E-02 1.368E-01 2.967E+00 3.461E+05  9.9180 1.00000
  1.122E+06 1.124E+06 2.849E+00 2.200E-03 5.657E-02 9.666E-02 1.554E-01 3.005E+00 3.870E+05 10.1479 1.00000
  1.259E+06 1.261E+06 2.869E+00 2.521E-03 6.533E-02 1.088E-01 1.767E-01 3.046E+00 4.322E+05 10.3778 1.00000
  1.413E+06 1.414E+06 2.888E+00 2.889E-03 7.536E-02 1.226E-01 2.008E-01 3.089E+00 4.823E+05 10.6077 1.00000
  1.585E+06 1.587E+06 2.908E+00 3.309E-03 8.682E-02 1.382E-01 2.283E-01 3.136E+00 5.377E+05 10.8377 1.00000
  1.778E+06 1.780E+06 2.927E+00 3.789E-03 9.991E-02 1.559E-01 2.596E-01 3.186E+00 5.989E+05 11.0677 1.00000
  1.995E+06 1.997E+06 2.946E+00 4.338E-03 1.148E-01 1.760E-01 2.951E-01 3.241E+00 6.664E+05 11.2978 1.00000
  2.239E+06 2.240E+06 2.965E+00 4.965E-03 1.318E-01 1.988E-01 3.356E-01 3.300E+00 7.408E+05 11.5279 1.00000
  2.512E+06 2.514E+06 2.983E+00 5.681E-03 1.512E-01 2.248E-01 3.817E-01 3.365E+00 8.228E+05 11.7579 1.00000
  2.818E+06 2.820E+06 3.002E+00 6.500E-03 1.733E-01 2.543E-01 4.340E-01 3.436E+00 9.129E+05 11.9880 1.00000
  3.162E+06 3.164E+06 3.020E+00 7.435E-03 1.983E-01 2.878E-01 4.935E-01 3.514E+00 1.012E+06 12.2182 1.00000
  3.548E+06 3.550E+06 3.039E+00 8.502E-03 2.268E-01 3.260E-01 5.612E-01 3.600E+00 1.120E+06 12.4483 1.00000
  3.981E+06 3.983E+06 3.057E+00 9.719E-03 2.591E-01 3.694E-01 6.382E-01 3.695E+00 1.239E+06 12.6785 1.00000
  4.467E+06 4.469E+06 3.074E+00 1.111E-02 2.957E-01 4.188E-01 7.256E-01 3.800E+00 1.369E+06 12.9086 1.00000
  5.012E+06 5.014E+06 3.092E+00 1.269E-02 3.372E-01 4.751E-01 8.250E-01 3.917E+00 1.510E+06 13.1388 1.00000
  5.623E+06 5.625E+06 3.110E+00 1.450E-02 3.842E-01 5.392E-01 9.379E-01 4.048E+00 1.664E+06 13.3690 1.00000
  6.310E+06 6.311E+06 3.127E+00 1.656E-02 4.374E-01 6.122E-01 1.066E+00 4.193E+00 1.830E+06 13.5992 1.00000
  7.079E+06 7.081E+06 3.144E+00 1.891E-02 4.977E-01 6.953E-01 1.212E+00 4.356E+00 2.010E+06 13.8294 1.00000
  7.943E+06 7.945E+06 3.161E+00 2.159E-02 5.657E-01 7.901E-01 1.377E+00 4.538E+00 2.205E+06 14.0596 1.00000
  8.913E+06 8.914E+06 3.178E+00 2.464E-02 6.426E-01 8.980E-01 1.565E+00 4.743E+00 2.414E+06 14.2898 1.00000
  1.000E+07 1.000E+07 3.194E+00 2.812E-02 7.295E-01 1.021E+00 1.779E+00 4.973E+00 2.638E+06 14.5200 1.00000
  1.122E+07 1.122E+07 3.211E+00 3.207E-02 8.276E-01 1.161E+00 2.021E+00 5.232E+00 2.877E+06 14.7502 1.00000
  1.259E+07 1.259E+07 3.227E+00 3.658E-02 9.382E-01 1.321E+00 2.296E+00 5.524E+00 3.132E+06 14.9804 1.00000
  1.413E+07 1.413E+07 3.244E+00 4.170E-02 1.063E+00 1.504E+00 2.609E+00 5.852E+00 3.402E+06 15.2107 1.00000
  1.585E+07 1.585E+07 3.260E+00 4.753E-02 1.204E+00 1.712E+00 2.963E+00 6.223E+00 3.688E+06 15.4409 1.00000
  1.778E+07 1.778E+07 3.276E+00 5.416E-02 1.362E+00 1.949E+00 3.366E+00 6.641E+00 3.989E+06 15.6711 1.00000
  1.995E+07 1.995E+07 3.291E+00 6.170E-02 1.541E+00 2.220E+00 3.823E+00 7.114E+00 4.305E+06 15.9014 1.00000
  2.239E+07 2.239E+07 3.307E+00 7.027E-02 1.742E+00 2.529E+00 4.341E+00 7.648E+00 4.635E+06 16.1316 1.00000
  2.512E+07 2.512E+07 3.323E+00 8.000E-02 1.968E+00 2.881E+00 4.930E+00 8.253E+00 4.979E+06 16.3618 1.00000
  2.818E+07 2.819E+07 3.339E+00 9.106E-02 2.223E+00 3.284E+00 5.598E+00 8.937E+00 5.336E+06 16.5921 1.00000
  3.162E+07 3.162E+07 3.354E+00 1.036E-01 2.510E+00 3.742E+00 6.356E+00 9.710E+00 5.706E+06 16.8223 1.00000
  3.548E+07 3.548E+07 3.370E+00 1.179E-01 2.833E+00 4.266E+00 7.217E+00 1.059E+01 6.087E+06 17.0526 1.00000
  3.981E+07 3.981E+07 3.385E+00 1.341E-01 3.196E+00 4.864E+00 8.194E+00 1.158E+01 6.478E+06 17.2828 1.00000
  4.467E+07 4.467E+07 3.401E+00 1.524E-01 3.604E+00 5.546E+00 9.302E+00 1.270E+01 6.879E+06 17.5131 1.00000
  5.012E+07 5.012E+07 3.416E+00 1.732E-01 4.063E+00 6.325E+00 1.056E+01 1.398E+01 7.288E+06 17.7433 1.00000
  5.623E+07 5.624E+07 3.432E+00 1.968E-01 4.578E+00 7.214E+00 1.199E+01 1.542E+01 7.705E+06 17.9736 1.00000
  6.310E+07 6.310E+07 3.447E+00 2.236E-01 5.158E+00 8.229E+00 1.361E+01 1.706E+01 8.129E+06 18.2038 1.00000
  7.079E+07 7.080E+07 3.463E+00 2.539E-01 5.809E+00 9.388E+00 1.545E+01 1.891E+01 8.558E+06 18.4341 1.00000
  7.943E+07 7.943E+07 3.478E+00 2.882E-01 6.540E+00 1.071E+01 1.754E+01 2.102E+01 8.992E+06 18.6643 1.00000
  8.913E+07 8.913E+07 3.493E+00 3.271E-01 7.362E+00 1.222E+01 1.991E+01 2.341E+01 9.430E+06 18.8946 1.00000
  1.000E+08 1.000E+08 3.509E+00 3.711E-01 8.285E+00 1.395E+01 2.260E+01 2.611E+01 9.870E+06 19.1248 1.00000
  1.122E+08 1.122E+08 3.525E+00 4.209E-01 9.322E+00 1.592E+01 2.566E+01 2.919E+01 1.031E+07 19.3551 1.00000
  1.259E+08 1.259E+08 3.540E+00 4.773E-01 1.049E+01 1.817E+01 2.913E+01 3.267E+01 1.076E+07 19.5853 1.00000
  1.413E+08 1.413E+08 3.556E+00 5.410E-01 1.179E+01 2.074E+01 3.308E+01 3.663E+01 1.120E+07 19.8156 1.00000
  1.585E+08 1.585E+08 3.572E+00 6.131E-01 1.326E+01 2.368E+01 3.755E+01 4.112E+01 1.165E+07 20.0459 1.00000
  1.778E+08 1.778E+08 3.587E+00 6.947E-01 1.491E+01 2.703E+01 4.264E+01 4.622E+01 1.209E+07 20.2761 1.00000
  1.995E+08 1.995E+08 3.603E+00 7.868E-01 1.676E+01 3.086E+01 4.841E+01 5.201E+01 1.253E+07 20.5064 1.00000
  2.239E+08 2.239E+08 3.619E+00 8.909E-01 1.884E+01 3.524E+01 5.497E+01 5.859E+01 1.298E+07 20.7366 1.00000
  2.512E+08 2.512E+08 3.635E+00 1.008E+00 2.117E+01 4.024E+01 6.242E+01 6.605E+01 1.342E+07 20.9669 1.00000
  2.818E+08 2.818E+08 3.651E+00 1.141E+00 2.378E+01 4.596E+01 7.088E+01 7.453E+01 1.385E+07 21.1971 1.00000
  3.162E+08 3.162E+08 3.667E+00 1.291E+00 2.672E+01 5.249E+01 8.050E+01 8.417E+01 1.429E+07 21.4274 1.00000
  3.548E+08 3.548E+08 3.683E+00 1.460E+00 3.002E+01 5.995E+01 9.143E+01 9.511E+01 1.472E+07 21.6577 1.00000
  3.981E+08 3.981E+08 3.699E+00 1.651E+00 3.372E+01 6.847E+01 1.038E+02 1.075E+02 1.515E+07 21.8879 1.00000
  4.467E+08 4.467E+08 3.716E+00 1.866E+00 3.787E+01 7.822E+01 1.180E+02 1.217E+02 1.557E+07 22.1182 1.00000
  5.012E+08 5.012E+08 3.732E+00 2.109E+00 4.253E+01 8.935E+01 1.340E+02 1.377E+02 1.600E+07 22.3484 1.00000
  5.623E+08 5.623E+08 3.748E+00 2.382E+00 4.776E+01 1.021E+02 1.522E+02 1.560E+02 1.641E+07 22.5787 1.00000
  6.310E+08 6.310E+08 3.765E+00 2.691E+00 5.363E+01 1.166E+02 1.730E+02 1.767E+02 1.683E+07 22.8089 1.00000
  7.079E+08 7.079E+08 3.781E+00 3.039E+00 6.022E+01 1.333E+02 1.965E+02 2.003E+02 1.724E+07 23.0392 1.00000
  7.943E+08 7.943E+08 3.798E+00 3.430E+00 6.761E+01 1.523E+02 2.233E+02 2.271E+02 1.764E+07 23.2695 1.00000
  8.913E+08 8.913E+08 3.815E+00 3.872E+00 7.591E+01 1.740E+02 2.538E+02 2.576E+02 1.805E+07 23.4997 1.00000
  1.000E+09 1.000E+09 3.832E+00 4.369E+00 8.522E+01 1.988E+02 2.884E+02 2.922E+02 1.844E+07 23.7300 1.00000
  1.122E+09 1.122E+09 3.849E+00 4.928E+00 9.566E+01 2.272E+02 3.278E+02 3.317E+02 1.884E+07 23.9602 1.00000
  1.259E+09 1.259E+09 3.866E+00 5.558E+00 1.074E+02 2.597E+02 3.726E+02 3.765E+02 1.922E+07 24.1905 1.00000
  1.413E+09 1.413E+09 3.883E+00 6.267E+00 1.205E+02 2.968E+02 4.236E+02 4.275E+02 1.961E+07 24.4207 1.00000
  1.585E+09 1.585E+09 3.900E+00 7.066E+00 1.353E+02 3.393E+02 4.816E+02 4.855E+02 1.999E+07 24.6510 1.00000
  1.778E+09 1.778E+09 3.918E+00 7.964E+00 1.519E+02 3.878E+02 5.476E+02 5.515E+02 2.036E+07 24.8813 1.00000
  1.995E+09 1.995E+09 3.935E+00 8.974E+00 1.704E+02 4.433E+02 6.227E+02 6.267E+02 2.073E+07 25.1115 1.00000
  2.239E+09 2.239E+09 3.952E+00 1.011E+01 1.913E+02 5.068E+02 7.082E+02 7.122E+02 2.110E+07 25.3418 1.00000
  2.512E+09 2.512E+09 3.970E+00 1.139E+01 2.147E+02 5.794E+02 8.055E+02 8.095E+02 2.146E+07 25.5720 1.00000
  2.818E+09 2.818E+09 3.988E+00 1.283E+01 2.409E+02 6.625E+02 9.162E+02 9.202E+02 2.181E+07 25.8023 1.00000
  3.162E+09 3.162E+09 4.006E+00 1.444E+01 2.704E+02 7.574E+02 1.042E+03 1.046E+03 2.216E+07 26.0326 1.00000
  3.548E+09 3.548E+09 4.024E+00 1.626E+01 3.034E+02 8.661E+02 1.186E+03 1.190E+03 2.251E+07 26.2628 1.00000
  3.981E+09 3.981E+09 4.042E+00 1.830E+01 3.405E+02 9.904E+02 1.349E+03 1.353E+03 2.285E+07 26.4931 1.00000
  4.467E+09 4.467E+09 4.060E+00 2.059E+01 3.821E+02 1.133E+03 1.535E+03 1.539E+03 2.319E+07 26.7233 1.00000
  5.012E+09 5.012E+09 4.078E+00 2.317E+01 4.288E+02 1.295E+03 1.747E+03 1.751E+03 2.352E+07 26.9536 1.00000
  5.623E+09 5.623E+09 4.096E+00 2.607E+01 4.812E+02 1.481E+03 1.989E+03 1.993E+03 2.385E+07 27.1838 1.00000
  6.310E+09 6.310E+09 4.115E+00 2.932E+01 5.400E+02 1.694E+03 2.264E+03 2.268E+03 2.417E+07 27.4141 1.00000
  7.079E+09 7.079E+09 4.133E+00 3.298E+01 6.059E+02 1.938E+03 2.577E+03 2.581E+03 2.449E+07 27.6444 1.00000
  7.943E+09 7.943E+09 4.152E+00 3.709E+01 6.799E+02 2.217E+03 2.934E+03 2.938E+03 2.481E+07 27.8746 1.00000
  8.913E+09 8.913E+09 4.170E+00 4.170E+01 7.629E+02 2.536E+03 3.340E+03 3.345E+03 2.512E+07 28.1049 1.00000
  1.000E+10 1.000E+10 4.189E+00 4.688E+01 8.561E+02 2.901E+03 3.804E+03 3.808E+03 2.542E+07 28.3351 1.00000
  1.122E+10 1.122E+10 4.208E+00 5.270E+01 9.606E+02 3.319E+03 4.332E+03 4.336E+03 2.572E+07 28.5654 1.00000
  1.259E+10 1.259E+10 4.227E+00 5.924E+01 1.078E+03 3.797E+03 4.934E+03 4.938E+03 2.602E+07 28.7957 1.00000
  1.413E+10 1.413E+10 4.246E+00 6.657E+01 1.209E+03 4.345E+03 5.621E+03 5.625E+03 2.631E+07 29.0259 1.00000
  1.585E+10 1.585E+10 4.266E+00 7.481E+01 1.357E+03 4.971E+03 6.403E+03 6.407E+03 2.660E+07 29.2562 1.00000
  1.778E+10 1.778E+10 4.285E+00 8.406E+01 1.523E+03 5.688E+03 7.295E+03 7.299E+03 2.688E+07 29.4864 1.00000
  1.995E+10 1.995E+10 4.305E+00 9.445E+01 1.708E+03 6.510E+03 8.312E+03 8.317E+03 2.716E+07 29.7167 1.00000
  2.239E+10 2.239E+10 4.324E+00 1.061E+02 1.917E+03 7.450E+03 9.473E+03 9.477E+03 2.744E+07 29.9470 1.00000
  2.512E+10 2.512E+10 4.344E+00 1.192E+02 2.151E+03 8.526E+03 1.080E+04 1.080E+04 2.771E+07 30.1772 1.00000
  2.818E+10 2.818E+10 4.364E+00 1.339E+02 2.413E+03 9.758E+03 1.231E+04 1.231E+04 2.797E+07 30.4075 1.00000
  3.162E+10 3.162E+10 4.384E+00 1.504E+02 2.708E+03 1.117E+04 1.403E+04 1.403E+04 2.824E+07 30.6377 1.00000
  3.548E+10 3.548E+10 4.404E+00 1.689E+02 3.038E+03 1.278E+04 1.599E+04 1.600E+04 2.849E+07 30.8680 1.00000
  3.981E+10 3.981E+10 4.424E+00 1.897E+02 3.409E+03 1.463E+04 1.823E+04 1.824E+04 2.875E+07 31.0982 1.00000
  4.467E+10 4.467E+10 4.444E+00 2.130E+02 3.825E+03 1.675E+04 2.079E+04 2.080E+04 2.900E+07 31.3285 1.00000
  5.012E+10 5.012E+10 4.464E+00 2.392E+02 4.292E+03 1.918E+04 2.371E+04 2.371E+04 2.924E+07 31.5588 1.00000
  5.623E+10 5.623E+10 4.485E+00 2.685E+02 4.815E+03 2.196E+04 2.704E+04 2.705E+04 2.949E+07 31.7890 1.00000
  6.310E+10 6.310E+10 4.506E+00 3.015E+02 5.403E+03 2.514E+04 3.085E+04 3.085E+04 2.972E+07 32.0193 1.00000
  7.079E+10 7.079E+10 4.526E+00 3.385E+02 6.062E+03 2.879E+04 3.519E+04 3.519E+04 2.996E+07 32.2495 1.00000
  7.943E+10 7.943E+10 4.547E+00 3.800E+02 6.802E+03 3.296E+04 4.014E+04 4.015E+04 3.019E+07 32.4798 1.00000
  8.913E+10 8.913E+10 4.568E+00 4.266E+02 7.632E+03 3.775E+04 4.580E+04 4.581E+04 3.042E+07 32.7101 1.00000
  1.000E+11 1.000E+11 4.589E+00 4.789E+02 8.563E+03 4.323E+04 5.227E+04 5.227E+04 3.064E+07 32.9403 1.00000
  1.122E+11 1.122E+11 4.610E+00 5.375E+02 9.607E+03 4.950E+04 5.965E+04 5.965E+04 3.086E+07 33.1706 1.00000
  1.259E+11 1.259E+11 4.632E+00 6.034E+02 1.078E+04 5.670E+04 6.808E+04 6.808E+04 3.107E+07 33.4008 1.00000
  1.413E+11 1.413E+11 4.653E+00 6.773E+02 1.209E+04 6.494E+04 7.771E+04 7.772E+04 3.128E+07 33.6311 1.00000
  1.585E+11 1.585E+11 4.675E+00 7.602E+02 1.357E+04 7.438E+04 8.871E+04 8.872E+04 3.149E+07 33.8613 1.00000
  1.778E+11 1.778E+11 4.696E+00 8.532E+02 1.523E+04 8.520E+04 1.013E+05 1.013E+05 3.170E+07 34.0916 1.00000
  1.995E+11 1.995E+11 4.718E+00 9.576E+02 1.708E+04 9.761E+04 1.156E+05 1.157E+05 3.190E+07 34.3219 1.00000
  2.239E+11 2.239E+11 4.740E+00 1.075E+03 1.917E+04 1.118E+05 1.321E+05 1.321E+05 3.209E+07 34.5521 1.00000
  2.512E+11 2.512E+11 4.762E+00 1.206E+03 2.150E+04 1.281E+05 1.508E+05 1.508E+05 3.229E+07 34.7824 1.00000
  2.818E+11 2.818E+11 4.784E+00 1.354E+03 2.413E+04 1.468E+05 1.723E+05 1.723E+05 3.248E+07 35.0126 1.00000
  3.162E+11 3.162E+11 4.807E+00 1.519E+03 2.707E+04 1.682E+05 1.968E+05 1.968E+05 3.267E+07 35.2429 1.00000
  3.548E+11 3.548E+11 4.829E+00 1.705E+03 3.037E+04 1.927E+05 2.248E+05 2.248E+05 3.285E+07 35.4732 1.00000
  3.981E+11 3.981E+11 4.852E+00 1.913E+03 3.408E+04 2.208E+05 2.568E+05 2.568E+05 3.303E+07 35.7034 1.00000
  4.467E+11 4.467E+11 4.874E+00 2.147E+03 3.824E+04 2.530E+05 2.934E+05 2.934E+05 3.321E+07 35.9337 1.00000
  5.012E+11 5.012E+11 4.897E+00 2.409E+03 4.290E+04 2.900E+05 3.353E+05 3.353E+05 3.338E+07 36.1639 1.00000
  5.623E+11 5.623E+11 4.920E+00 2.704E+03 4.813E+04 3.323E+05 3.832E+05 3.832E+05 3.355E+07 36.3942 1.00000
  6.310E+11 6.310E+11 4.943E+00 3.034E+03 5.400E+04 3.809E+05 4.379E+05 4.380E+05 3.372E+07 36.6244 1.00000
  7.079E+11 7.079E+11 4.966E+00 3.404E+03 6.059E+04 4.366E+05 5.006E+05 5.006E+05 3.389E+07 36.8547 1.00000
  7.943E+11 7.943E+11 4.990E+00 3.820E+03 6.798E+04 5.004E+05 5.723E+05 5.723E+05 3.405E+07 37.0850 1.00000
  8.913E+11 8.913E+11 5.013E+00 4.287E+03 7.628E+04 5.737E+05 6.542E+05 6.542E+05 3.421E+07 37.3152 1.00000
  1.000E+12 1.000E+12 5.037E+00 4.810E+03 8.558E+04 6.576E+05 7.480E+05 7.480E+05 3.436E+07 37.5455 1.00000
  1.122E+12 1.122E+12 5.060E+00 5.397E+03 9.602E+04 7.539E+05 8.553E+05 8.554E+05 3.452E+07 37.7757 1.00000
  1.259E+12 1.259E+12 5.084E+00 6.056E+03 1.077E+05 8.644E+05 9.782E+05 9.782E+05 3.467E+07 38.0060 1.00000
  1.413E+12 1.413E+12 5.108E+00 6.796E+03 1.209E+05 9.910E+05 1.119E+06 1.119E+06 3.481E+07 38.2363 1.00000
  1.585E+12 1.585E+12 5.132E+00 7.625E+03 1.356E+05 1.136E+06 1.280E+06 1.280E+06 3.496E+07 38.4665 1.00000
  1.778E+12 1.778E+12 5.156E+00 8.556E+03 1.522E+05 1.303E+06 1.464E+06 1.464E+06 3.510E+07 38.6968 1.00000
  1.995E+12 1.995E+12 5.181E+00 9.601E+03 1.707E+05 1.494E+06 1.674E+06 1.674E+06 3.524E+07 38.9270 1.00000
  2.239E+12 2.239E+12 5.205E+00 1.077E+04 1.915E+05 1.713E+06 1.916E+06 1.916E+06 3.537E+07 39.1573 1.00000
  2.512E+12 2.512E+12 5.230E+00 1.209E+04 2.149E+05 1.965E+06 2.192E+06 2.192E+06 3.551E+07 39.3875 1.00000
  2.818E+12 2.818E+12 5.255E+00 1.356E+04 2.411E+05 2.254E+06 2.508E+06 2.508E+06 3.564E+07 39.6178 1.00000
  3.162E+12 3.162E+12 5.280E+00 1.522E+04 2.705E+05 2.585E+06 2.871E+06 2.871E+06 3.577E+07 39.8481 1.00000
  3.548E+12 3.548E+12 5.305E+00 1.708E+04 3.035E+05 2.965E+06 3.285E+06 3.286E+06 3.589E+07 40.0783 1.00000
  3.981E+12 3.981E+12 5.330E+00 1.916E+04 3.405E+05 3.401E+06 3.761E+06 3.761E+06 3.602E+07 40.3086 1.00000
  4.467E+12 4.467E+12 5.355E+00 2.150E+04 3.821E+05 3.901E+06 4.305E+06 4.305E+06 3.614E+07 40.5388 1.00000
  5.012E+12 5.012E+12 5.381E+00 2.412E+04 4.287E+05 4.475E+06 4.928E+06 4.928E+06 3.626E+07 40.7691 1.00000
  5.623E+12 5.623E+12 5.406E+00 2.707E+04 4.810E+05 5.134E+06 5.642E+06 5.642E+06 3.637E+07 40.9994 1.00000
  6.310E+12 6.310E+12 5.432E+00 3.037E+04 5.396E+05 5.891E+06 6.461E+06 6.461E+06 3.649E+07 41.2296 1.00000
  7.079E+12 7.079E+12 5.458E+00 3.407E+04 6.054E+05 6.759E+06 7.398E+06 7.398E+06 3.660E+07 41.4599 1.00000
  7.943E+12 7.943E+12 5.484E+00 3.823E+04 6.793E+05 7.755E+06 8.472E+06 8.472E+06 3.671E+07 41.6901 1.00000
  8.913E+12 8.913E+12 5.510E+00 4.290E+04 7.621E+05 8.899E+06 9.704E+06 9.704E+06 3.681E+07 41.9204 1.00000
  1.000E+13 1.000E+13 5.536E+00 4.813E+04 8.551E+05 1.021E+07 1.111E+07 1.111E+07 3.692E+07 42.1507 1.00000
  1.122E+13 1.122E+13 5.563E+00 5.401E+04 9.593E+05 1.172E+07 1.273E+07 1.273E+07 3.702E+07 42.3809 1.00000
  1.259E+13 1.259E+13 5.590E+00 6.060E+04 1.076E+06 1.345E+07 1.459E+07 1.459E+07 3.712E+07 42.6112 1.00000
  1.413E+13 1.413E+13 5.616E+00 6.799E+04 1.208E+06 1.543E+07 1.671E+07 1.671E+07 3.722E+07 42.8414 1.00000
  1.585E+13 1.585E+13 5.643E+00 7.629E+04 1.355E+06 1.771E+07 1.915E+07 1.915E+07 3.732E+07 43.0717 1.00000
  1.778E+13 1.778E+13 5.670E+00 8.560E+04 1.520E+06 2.033E+07 2.194E+07 2.194E+07 3.741E+07 43.3019 1.00000
  1.995E+13 1.995E+13 5.697E+00 9.604E+04 1.706E+06 2.334E+07 2.514E+07 2.514E+07 3.750E+07 43.5322 1.00000
  2.239E+13 2.239E+13 5.725E+00 1.078E+05 1.914E+06 2.679E+07 2.881E+07 2.881E+07 3.760E+07 43.7625 1.00000
  2.512E+13 2.512E+13 5.752E+00 1.209E+05 2.147E+06 3.075E+07 3.302E+07 3.302E+07 3.768E+07 43.9927 1.00000
  2.818E+13 2.818E+13 5.780E+00 1.357E+05 2.409E+06 3.531E+07 3.785E+07 3.785E+07 3.777E+07 44.2230 1.00000
  3.162E+13 3.162E+13 5.808E+00 1.522E+05 2.703E+06 4.054E+07 4.339E+07 4.339E+07 3.786E+07 44.4532 1.00000
  3.548E+13 3.548E+13 5.835E+00 1.708E+05 3.032E+06 4.654E+07 4.974E+07 4.974E+07 3.794E+07 44.6835 1.00000
  3.981E+13 3.981E+13 5.864E+00 1.916E+05 3.402E+06 5.344E+07 5.703E+07 5.703E+07 3.802E+07 44.9138 1.00000
  4.467E+13 4.467E+13 5.892E+00 2.150E+05 3.817E+06 6.136E+07 6.539E+07 6.539E+07 3.810E+07 45.1440 1.00000
  5.012E+13 5.012E+13 5.920E+00 2.412E+05 4.282E+06 7.045E+07 7.498E+07 7.498E+07 3.818E+07 45.3743 1.00000
  5.623E+13 5.623E+13 5.949E+00 2.707E+05 4.805E+06 8.091E+07 8.598E+07 8.598E+07 3.825E+07 45.6045 1.00000
  6.310E+13 6.310E+13 5.977E+00 3.037E+05 5.390E+06 9.291E+07 9.861E+07 9.861E+07 3.833E+07 45.8348 1.00000
  7.079E+13 7.079E+13 6.006E+00 3.408E+05 6.048E+06 1.067E+08 1.131E+08 1.131E+08 3.840E+07 46.0650 1.00000
  7.943E+13 7.943E+13 6.035E+00 3.824E+05 6.785E+06 1.226E+08 1.297E+08 1.297E+08 3.847E+07 46.2953 1.00000
  8.913E+13 8.913E+13 6.064E+00 4.290E+05 7.613E+06 1.408E+08 1.488E+08 1.488E+08 3.854E+07 46.5256 1.00000
