 Incident particle is a Tau with M = 1776.82000 MeV
 Index = 0: Oganesson
      Absorber with <Z/A> = 0.40107
 Sternheimer coef:  a     k=m_s   x_0    x_1    I[eV]   Cbar  delta0
                 0.0703  3.0000  2.0204  1.9972 1242.0 13.8662 0.00

 *** Table generated with PUMAS v1.00 ***

      T         p     Ionization  brems     pair     photonuc  Radloss    dE/dx   CSDA Range  delta   beta
    [MeV]    [MeV/c]  -----------------------[MeV cm^2/g]------------------------  [g/cm^2]
  1.000E+05 1.018E+05 1.709E+00 1.478E-03 2.694E-02 7.457E-03 3.587E-02 1.745E+00 2.865E+04  0.0000 0.99985
  1.122E+05 1.140E+05 1.738E+00 1.715E-03 3.224E-02 8.362E-03 4.231E-02 1.780E+00 3.557E+04  0.0000 0.99988
  1.259E+05 1.277E+05 1.766E+00 1.989E-03 3.846E-02 9.328E-03 4.978E-02 1.816E+00 4.319E+04  0.0000 0.99990
  1.413E+05 1.430E+05 1.794E+00 2.305E-03 4.576E-02 1.041E-02 5.848E-02 1.853E+00 5.156E+04  0.0000 0.99992
  1.585E+05 1.603E+05 1.823E+00 2.670E-03 5.431E-02 1.161E-02 6.859E-02 1.892E+00 6.077E+04  0.0000 0.99994
  1.778E+05 1.796E+05 1.852E+00 3.091E-03 6.429E-02 1.294E-02 8.032E-02 1.932E+00 7.089E+04  0.0000 0.99995
  1.995E+05 2.013E+05 2.152E+00 3.577E-03 7.593E-02 1.445E-02 9.396E-02 2.245E+00 8.133E+04 -4.4063 0.99996
  2.239E+05 2.256E+05 2.166E+00 4.136E-03 8.948E-02 1.608E-02 1.097E-01 2.276E+00 9.210E+04 -4.1780 0.99997
  2.512E+05 2.530E+05 2.181E+00 4.779E-03 1.052E-01 1.790E-02 1.279E-01 2.309E+00 1.040E+05 -3.9494 0.99998
  2.818E+05 2.836E+05 2.195E+00 5.519E-03 1.234E-01 1.994E-02 1.489E-01 2.344E+00 1.172E+05 -3.7207 0.99998
  3.162E+05 3.180E+05 2.210E+00 6.371E-03 1.445E-01 2.224E-02 1.731E-01 2.383E+00 1.317E+05 -3.4918 0.99998
  3.548E+05 3.566E+05 2.224E+00 7.349E-03 1.689E-01 2.480E-02 2.010E-01 2.425E+00 1.478E+05 -3.2627 0.99999
  3.981E+05 3.999E+05 2.239E+00 8.473E-03 1.969E-01 2.764E-02 2.331E-01 2.472E+00 1.655E+05 -3.0335 0.99999
  4.467E+05 4.485E+05 2.254E+00 9.763E-03 2.293E-01 3.081E-02 2.699E-01 2.523E+00 1.849E+05 -2.8042 0.99999
  5.012E+05 5.030E+05 2.268E+00 1.124E-02 2.665E-01 3.436E-02 3.121E-01 2.580E+00 2.063E+05 -2.5748 0.99999
  5.623E+05 5.641E+05 2.283E+00 1.294E-02 3.091E-01 3.817E-02 3.602E-01 2.643E+00 2.297E+05 -2.3453 1.00000
  6.310E+05 6.327E+05 2.297E+00 1.489E-02 3.581E-01 4.246E-02 4.154E-01 2.712E+00 2.553E+05 -2.1158 1.00000
  7.079E+05 7.097E+05 2.311E+00 1.712E-02 4.141E-01 4.728E-02 4.785E-01 2.790E+00 2.833E+05 -1.8861 1.00000
  7.943E+05 7.961E+05 2.326E+00 1.967E-02 4.782E-01 5.270E-02 5.506E-01 2.876E+00 3.138E+05 -1.6564 1.00000
  8.913E+05 8.930E+05 2.340E+00 2.259E-02 5.514E-01 5.880E-02 6.328E-01 2.973E+00 3.470E+05 -1.4266 1.00000
  1.000E+06 1.002E+06 2.354E+00 2.594E-02 6.349E-01 6.569E-02 7.265E-01 3.081E+00 3.829E+05 -1.1968 1.00000
  1.122E+06 1.124E+06 2.368E+00 2.977E-02 7.301E-01 7.346E-02 8.333E-01 3.202E+00 4.218E+05 -0.9669 1.00000
  1.259E+06 1.261E+06 2.383E+00 3.414E-02 8.385E-01 8.224E-02 9.549E-01 3.337E+00 4.637E+05 -0.7370 1.00000
  1.413E+06 1.414E+06 2.397E+00 3.914E-02 9.618E-01 9.217E-02 1.093E+00 3.490E+00 5.087E+05 -0.5071 1.00000
  1.585E+06 1.587E+06 2.410E+00 4.486E-02 1.102E+00 1.034E-01 1.250E+00 3.661E+00 5.569E+05 -0.2771 1.00000
  1.778E+06 1.780E+06 2.424E+00 5.138E-02 1.261E+00 1.161E-01 1.428E+00 3.853E+00 6.084E+05 -0.0471 1.00000
  1.995E+06 1.997E+06 2.438E+00 5.882E-02 1.441E+00 1.306E-01 1.631E+00 4.069E+00 6.633E+05  0.1830 1.00000
  2.239E+06 2.240E+06 2.452E+00 6.732E-02 1.646E+00 1.469E-01 1.860E+00 4.312E+00 7.214E+05  0.4131 1.00000
  2.512E+06 2.514E+06 2.465E+00 7.701E-02 1.878E+00 1.655E-01 2.120E+00 4.585E+00 7.829E+05  0.6431 1.00000
  2.818E+06 2.820E+06 2.478E+00 8.806E-02 2.140E+00 1.865E-01 2.414E+00 4.893E+00 8.476E+05  0.8732 1.00000
  3.162E+06 3.164E+06 2.492E+00 1.007E-01 2.436E+00 2.104E-01 2.748E+00 5.239E+00 9.156E+05  1.1034 1.00000
  3.548E+06 3.550E+06 2.505E+00 1.150E-01 2.772E+00 2.376E-01 3.124E+00 5.629E+00 9.867E+05  1.3335 1.00000
  3.981E+06 3.983E+06 2.518E+00 1.314E-01 3.151E+00 2.685E-01 3.550E+00 6.068E+00 1.061E+06  1.5637 1.00000
  4.467E+06 4.469E+06 2.531E+00 1.500E-01 3.578E+00 3.037E-01 4.032E+00 6.563E+00 1.138E+06  1.7938 1.00000
  5.012E+06 5.014E+06 2.543E+00 1.711E-01 4.061E+00 3.436E-01 4.576E+00 7.119E+00 1.218E+06  2.0240 1.00000
  5.623E+06 5.625E+06 2.556E+00 1.952E-01 4.605E+00 3.891E-01 5.190E+00 7.746E+00 1.300E+06  2.2542 1.00000
  6.310E+06 6.311E+06 2.568E+00 2.227E-01 5.219E+00 4.409E-01 5.883E+00 8.451E+00 1.385E+06  2.4844 1.00000
  7.079E+06 7.081E+06 2.581E+00 2.538E-01 5.911E+00 4.999E-01 6.665E+00 9.246E+00 1.472E+06  2.7146 1.00000
  7.943E+06 7.945E+06 2.593E+00 2.892E-01 6.691E+00 5.670E-01 7.547E+00 1.014E+01 1.561E+06  2.9448 1.00000
  8.913E+06 8.914E+06 2.605E+00 3.295E-01 7.569E+00 6.435E-01 8.542E+00 1.115E+01 1.653E+06  3.1750 1.00000
  1.000E+07 1.000E+07 2.617E+00 3.752E-01 8.557E+00 7.306E-01 9.663E+00 1.228E+01 1.746E+06  3.4052 1.00000
  1.122E+07 1.122E+07 2.629E+00 4.271E-01 9.670E+00 8.300E-01 1.093E+01 1.356E+01 1.840E+06  3.6354 1.00000
  1.259E+07 1.259E+07 2.641E+00 4.860E-01 1.092E+01 9.432E-01 1.235E+01 1.499E+01 1.937E+06  3.8656 1.00000
  1.413E+07 1.413E+07 2.653E+00 5.528E-01 1.233E+01 1.072E+00 1.396E+01 1.661E+01 2.034E+06  4.0959 1.00000
  1.585E+07 1.585E+07 2.664E+00 6.286E-01 1.391E+01 1.219E+00 1.576E+01 1.843E+01 2.133E+06  4.3261 1.00000
  1.778E+07 1.778E+07 2.676E+00 7.145E-01 1.570E+01 1.387E+00 1.780E+01 2.047E+01 2.232E+06  4.5563 1.00000
  1.995E+07 1.995E+07 2.687E+00 8.119E-01 1.770E+01 1.579E+00 2.009E+01 2.277E+01 2.333E+06  4.7866 1.00000
  2.239E+07 2.239E+07 2.698E+00 9.223E-01 1.995E+01 1.797E+00 2.267E+01 2.537E+01 2.435E+06  5.0168 1.00000
  2.512E+07 2.512E+07 2.710E+00 1.047E+00 2.248E+01 2.046E+00 2.557E+01 2.828E+01 2.537E+06  5.2470 1.00000
  2.818E+07 2.819E+07 2.721E+00 1.189E+00 2.532E+01 2.330E+00 2.884E+01 3.156E+01 2.639E+06  5.4773 1.00000
  3.162E+07 3.162E+07 2.732E+00 1.349E+00 2.851E+01 2.654E+00 3.252E+01 3.525E+01 2.743E+06  5.7075 1.00000
  3.548E+07 3.548E+07 2.743E+00 1.530E+00 3.210E+01 3.024E+00 3.665E+01 3.940E+01 2.846E+06  5.9378 1.00000
  3.981E+07 3.981E+07 2.755E+00 1.735E+00 3.613E+01 3.447E+00 4.131E+01 4.407E+01 2.950E+06  6.1680 1.00000
  4.467E+07 4.467E+07 2.766E+00 1.967E+00 4.066E+01 3.928E+00 4.655E+01 4.932E+01 3.055E+06  6.3983 1.00000
  5.012E+07 5.012E+07 2.777E+00 2.229E+00 4.574E+01 4.479E+00 5.245E+01 5.522E+01 3.159E+06  6.6285 1.00000
  5.623E+07 5.624E+07 2.788E+00 2.526E+00 5.144E+01 5.107E+00 5.908E+01 6.186E+01 3.264E+06  6.8588 1.00000
  6.310E+07 6.310E+07 2.799E+00 2.860E+00 5.785E+01 5.823E+00 6.654E+01 6.934E+01 3.369E+06  7.0890 1.00000
  7.079E+07 7.080E+07 2.810E+00 3.238E+00 6.505E+01 6.642E+00 7.493E+01 7.774E+01 3.474E+06  7.3193 1.00000
  7.943E+07 7.943E+07 2.822E+00 3.665E+00 7.313E+01 7.576E+00 8.437E+01 8.719E+01 3.579E+06  7.5495 1.00000
  8.913E+07 8.913E+07 2.833E+00 4.147E+00 8.219E+01 8.643E+00 9.498E+01 9.782E+01 3.684E+06  7.7798 1.00000
  1.000E+08 1.000E+08 2.844E+00 4.690E+00 9.237E+01 9.862E+00 1.069E+02 1.098E+02 3.790E+06  8.0100 1.00000
  1.122E+08 1.122E+08 2.855E+00 5.303E+00 1.038E+02 1.125E+01 1.204E+02 1.232E+02 3.895E+06  8.2403 1.00000
  1.259E+08 1.259E+08 2.866E+00 5.994E+00 1.166E+02 1.284E+01 1.355E+02 1.383E+02 4.000E+06  8.4705 1.00000
  1.413E+08 1.413E+08 2.878E+00 6.774E+00 1.310E+02 1.466E+01 1.525E+02 1.553E+02 4.105E+06  8.7008 1.00000
  1.585E+08 1.585E+08 2.889E+00 7.653E+00 1.472E+02 1.673E+01 1.716E+02 1.745E+02 4.210E+06  8.9311 1.00000
  1.778E+08 1.778E+08 2.900E+00 8.643E+00 1.653E+02 1.910E+01 1.931E+02 1.960E+02 4.314E+06  9.1613 1.00000
  1.995E+08 1.995E+08 2.912E+00 9.758E+00 1.857E+02 2.180E+01 2.172E+02 2.202E+02 4.419E+06  9.3916 1.00000
  2.239E+08 2.239E+08 2.923E+00 1.101E+01 2.085E+02 2.490E+01 2.444E+02 2.474E+02 4.523E+06  9.6218 1.00000
  2.512E+08 2.512E+08 2.935E+00 1.243E+01 2.342E+02 2.843E+01 2.750E+02 2.779E+02 4.628E+06  9.8521 1.00000
  2.818E+08 2.818E+08 2.946E+00 1.402E+01 2.629E+02 3.246E+01 3.094E+02 3.124E+02 4.732E+06 10.0823 1.00000
  3.162E+08 3.162E+08 2.958E+00 1.581E+01 2.952E+02 3.707E+01 3.481E+02 3.511E+02 4.836E+06 10.3126 1.00000
  3.548E+08 3.548E+08 2.969E+00 1.783E+01 3.314E+02 4.234E+01 3.916E+02 3.946E+02 4.940E+06 10.5429 1.00000
  3.981E+08 3.981E+08 2.981E+00 2.010E+01 3.721E+02 4.836E+01 4.406E+02 4.435E+02 5.044E+06 10.7731 1.00000
  4.467E+08 4.467E+08 2.993E+00 2.266E+01 4.177E+02 5.524E+01 4.956E+02 4.986E+02 5.147E+06 11.0034 1.00000
  5.012E+08 5.012E+08 3.005E+00 2.553E+01 4.689E+02 6.310E+01 5.575E+02 5.605E+02 5.250E+06 11.2336 1.00000
  5.623E+08 5.623E+08 3.016E+00 2.876E+01 5.264E+02 7.208E+01 6.272E+02 6.302E+02 5.353E+06 11.4639 1.00000
  6.310E+08 6.310E+08 3.028E+00 3.239E+01 5.908E+02 8.235E+01 7.056E+02 7.086E+02 5.456E+06 11.6941 1.00000
  7.079E+08 7.079E+08 3.040E+00 3.647E+01 6.632E+02 9.409E+01 7.937E+02 7.968E+02 5.559E+06 11.9244 1.00000
  7.943E+08 7.943E+08 3.052E+00 4.106E+01 7.443E+02 1.075E+02 8.929E+02 8.959E+02 5.661E+06 12.1547 1.00000
  8.913E+08 8.913E+08 3.064E+00 4.622E+01 8.354E+02 1.228E+02 1.004E+03 1.008E+03 5.763E+06 12.3849 1.00000
  1.000E+09 1.000E+09 3.077E+00 5.201E+01 9.376E+02 1.404E+02 1.130E+03 1.133E+03 5.865E+06 12.6152 1.00000
  1.122E+09 1.122E+09 3.089E+00 5.852E+01 1.052E+03 1.604E+02 1.271E+03 1.274E+03 5.967E+06 12.8454 1.00000
  1.259E+09 1.259E+09 3.101E+00 6.584E+01 1.181E+03 1.833E+02 1.430E+03 1.433E+03 6.069E+06 13.0757 1.00000
  1.413E+09 1.413E+09 3.113E+00 7.405E+01 1.325E+03 2.095E+02 1.609E+03 1.612E+03 6.170E+06 13.3059 1.00000
  1.585E+09 1.585E+09 3.126E+00 8.328E+01 1.487E+03 2.395E+02 1.810E+03 1.813E+03 6.271E+06 13.5362 1.00000
  1.778E+09 1.778E+09 3.138E+00 9.365E+01 1.669E+03 2.738E+02 2.036E+03 2.040E+03 6.372E+06 13.7665 1.00000
  1.995E+09 1.995E+09 3.151E+00 1.053E+02 1.873E+03 3.130E+02 2.291E+03 2.294E+03 6.472E+06 13.9967 1.00000
  2.239E+09 2.239E+09 3.164E+00 1.184E+02 2.102E+03 3.578E+02 2.578E+03 2.581E+03 6.572E+06 14.2270 1.00000
  2.512E+09 2.512E+09 3.176E+00 1.330E+02 2.358E+03 4.090E+02 2.901E+03 2.904E+03 6.672E+06 14.4572 1.00000
  2.818E+09 2.818E+09 3.189E+00 1.495E+02 2.647E+03 4.677E+02 3.264E+03 3.267E+03 6.772E+06 14.6875 1.00000
  3.162E+09 3.162E+09 3.202E+00 1.680E+02 2.970E+03 5.347E+02 3.673E+03 3.676E+03 6.871E+06 14.9178 1.00000
  3.548E+09 3.548E+09 3.215E+00 1.888E+02 3.332E+03 6.114E+02 4.133E+03 4.136E+03 6.970E+06 15.1480 1.00000
  3.981E+09 3.981E+09 3.228E+00 2.121E+02 3.739E+03 6.991E+02 4.651E+03 4.654E+03 7.069E+06 15.3783 1.00000
  4.467E+09 4.467E+09 3.241E+00 2.383E+02 4.196E+03 7.995E+02 5.234E+03 5.237E+03 7.168E+06 15.6085 1.00000
  5.012E+09 5.012E+09 3.254E+00 2.677E+02 4.708E+03 9.144E+02 5.890E+03 5.893E+03 7.266E+06 15.8388 1.00000
  5.623E+09 5.623E+09 3.267E+00 3.007E+02 5.283E+03 1.046E+03 6.629E+03 6.633E+03 7.364E+06 16.0690 1.00000
  6.310E+09 6.310E+09 3.280E+00 3.377E+02 5.928E+03 1.196E+03 7.462E+03 7.465E+03 7.462E+06 16.2993 1.00000
  7.079E+09 7.079E+09 3.294E+00 3.793E+02 6.651E+03 1.368E+03 8.399E+03 8.402E+03 7.559E+06 16.5296 1.00000
  7.943E+09 7.943E+09 3.307E+00 4.259E+02 7.463E+03 1.565E+03 9.454E+03 9.457E+03 7.656E+06 16.7598 1.00000
  8.913E+09 8.913E+09 3.321E+00 4.783E+02 8.374E+03 1.790E+03 1.064E+04 1.065E+04 7.753E+06 16.9901 1.00000
  1.000E+10 1.000E+10 3.334E+00 5.371E+02 9.396E+03 2.048E+03 1.198E+04 1.198E+04 7.850E+06 17.2203 1.00000
  1.122E+10 1.122E+10 3.348E+00 6.030E+02 1.054E+04 2.343E+03 1.349E+04 1.349E+04 7.946E+06 17.4506 1.00000
  1.259E+10 1.259E+10 3.362E+00 6.770E+02 1.183E+04 2.680E+03 1.519E+04 1.519E+04 8.041E+06 17.6809 1.00000
  1.413E+10 1.413E+10 3.375E+00 7.600E+02 1.327E+04 3.067E+03 1.710E+04 1.710E+04 8.137E+06 17.9111 1.00000
  1.585E+10 1.585E+10 3.389E+00 8.532E+02 1.489E+04 3.509E+03 1.925E+04 1.926E+04 8.232E+06 18.1414 1.00000
  1.778E+10 1.778E+10 3.403E+00 9.578E+02 1.671E+04 4.016E+03 2.168E+04 2.169E+04 8.327E+06 18.3716 1.00000
  1.995E+10 1.995E+10 3.417E+00 1.075E+03 1.875E+04 4.595E+03 2.442E+04 2.442E+04 8.421E+06 18.6019 1.00000
  2.239E+10 2.239E+10 3.431E+00 1.207E+03 2.104E+04 5.259E+03 2.750E+04 2.751E+04 8.515E+06 18.8322 1.00000
  2.512E+10 2.512E+10 3.446E+00 1.355E+03 2.360E+04 6.018E+03 3.098E+04 3.098E+04 8.609E+06 19.0624 1.00000
  2.818E+10 2.818E+10 3.460E+00 1.520E+03 2.648E+04 6.888E+03 3.489E+04 3.490E+04 8.703E+06 19.2927 1.00000
  3.162E+10 3.162E+10 3.474E+00 1.707E+03 2.971E+04 7.884E+03 3.930E+04 3.931E+04 8.796E+06 19.5229 1.00000
  3.548E+10 3.548E+10 3.489E+00 1.915E+03 3.334E+04 9.025E+03 4.428E+04 4.428E+04 8.888E+06 19.7532 1.00000
  3.981E+10 3.981E+10 3.503E+00 2.150E+03 3.741E+04 1.033E+04 4.989E+04 4.989E+04 8.980E+06 19.9834 1.00000
  4.467E+10 4.467E+10 3.518E+00 2.412E+03 4.197E+04 1.183E+04 5.621E+04 5.621E+04 9.072E+06 20.2137 1.00000
  5.012E+10 5.012E+10 3.533E+00 2.707E+03 4.709E+04 1.354E+04 6.334E+04 6.334E+04 9.164E+06 20.4440 1.00000
  5.623E+10 5.623E+10 3.547E+00 3.038E+03 5.284E+04 1.550E+04 7.138E+04 7.138E+04 9.255E+06 20.6742 1.00000
  6.310E+10 6.310E+10 3.562E+00 3.410E+03 5.928E+04 1.775E+04 8.044E+04 8.044E+04 9.346E+06 20.9045 1.00000
  7.079E+10 7.079E+10 3.577E+00 3.827E+03 6.652E+04 2.032E+04 9.066E+04 9.067E+04 9.436E+06 21.1347 1.00000
  7.943E+10 7.943E+10 3.592E+00 4.294E+03 7.463E+04 2.327E+04 1.022E+05 1.022E+05 9.526E+06 21.3650 1.00000
  8.913E+10 8.913E+10 3.607E+00 4.819E+03 8.373E+04 2.665E+04 1.152E+05 1.152E+05 9.615E+06 21.5953 1.00000
  1.000E+11 1.000E+11 3.623E+00 5.407E+03 9.395E+04 3.051E+04 1.299E+05 1.299E+05 9.704E+06 21.8255 1.00000
  1.122E+11 1.122E+11 3.638E+00 6.068E+03 1.054E+05 3.495E+04 1.464E+05 1.464E+05 9.793E+06 22.0558 1.00000
  1.259E+11 1.259E+11 3.653E+00 6.809E+03 1.183E+05 4.002E+04 1.651E+05 1.651E+05 9.881E+06 22.2860 1.00000
  1.413E+11 1.413E+11 3.669E+00 7.641E+03 1.327E+05 4.584E+04 1.862E+05 1.862E+05 9.969E+06 22.5163 1.00000
  1.585E+11 1.585E+11 3.684E+00 8.574E+03 1.489E+05 5.251E+04 2.100E+05 2.100E+05 1.006E+07 22.7465 1.00000
  1.778E+11 1.778E+11 3.700E+00 9.620E+03 1.670E+05 6.015E+04 2.368E+05 2.368E+05 1.014E+07 22.9768 1.00000
  1.995E+11 1.995E+11 3.715E+00 1.080E+04 1.874E+05 6.890E+04 2.671E+05 2.671E+05 1.023E+07 23.2071 1.00000
  2.239E+11 2.239E+11 3.731E+00 1.211E+04 2.103E+05 7.893E+04 3.013E+05 3.013E+05 1.032E+07 23.4373 1.00000
  2.512E+11 2.512E+11 3.747E+00 1.359E+04 2.359E+05 9.043E+04 3.400E+05 3.400E+05 1.040E+07 23.6676 1.00000
  2.818E+11 2.818E+11 3.763E+00 1.525E+04 2.647E+05 1.036E+05 3.836E+05 3.836E+05 1.049E+07 23.8978 1.00000
  3.162E+11 3.162E+11 3.779E+00 1.711E+04 2.970E+05 1.187E+05 4.328E+05 4.328E+05 1.057E+07 24.1281 1.00000
  3.548E+11 3.548E+11 3.795E+00 1.920E+04 3.332E+05 1.360E+05 4.885E+05 4.885E+05 1.065E+07 24.3584 1.00000
  3.981E+11 3.981E+11 3.812E+00 2.155E+04 3.739E+05 1.559E+05 5.513E+05 5.513E+05 1.074E+07 24.5886 1.00000
  4.467E+11 4.467E+11 3.828E+00 2.418E+04 4.195E+05 1.786E+05 6.223E+05 6.223E+05 1.082E+07 24.8189 1.00000
  5.012E+11 5.012E+11 3.844E+00 2.713E+04 4.707E+05 2.047E+05 7.025E+05 7.025E+05 1.090E+07 25.0491 1.00000
  5.623E+11 5.623E+11 3.861E+00 3.044E+04 5.281E+05 2.346E+05 7.931E+05 7.931E+05 1.099E+07 25.2794 1.00000
  6.310E+11 6.310E+11 3.878E+00 3.415E+04 5.925E+05 2.689E+05 8.955E+05 8.955E+05 1.107E+07 25.5096 1.00000
  7.079E+11 7.079E+11 3.894E+00 3.832E+04 6.648E+05 3.082E+05 1.011E+06 1.011E+06 1.115E+07 25.7399 1.00000
  7.943E+11 7.943E+11 3.911E+00 4.300E+04 7.459E+05 3.533E+05 1.142E+06 1.142E+06 1.123E+07 25.9702 1.00000
  8.913E+11 8.913E+11 3.928E+00 4.824E+04 8.368E+05 4.050E+05 1.290E+06 1.290E+06 1.131E+07 26.2004 1.00000
  1.000E+12 1.000E+12 3.945E+00 5.413E+04 9.389E+05 4.642E+05 1.457E+06 1.457E+06 1.139E+07 26.4307 1.00000
  1.122E+12 1.122E+12 3.962E+00 6.074E+04 1.053E+06 5.322E+05 1.646E+06 1.646E+06 1.147E+07 26.6609 1.00000
  1.259E+12 1.259E+12 3.979E+00 6.815E+04 1.182E+06 6.102E+05 1.860E+06 1.860E+06 1.155E+07 26.8912 1.00000
  1.413E+12 1.413E+12 3.997E+00 7.646E+04 1.326E+06 6.996E+05 2.102E+06 2.102E+06 1.162E+07 27.1215 1.00000
  1.585E+12 1.585E+12 4.014E+00 8.579E+04 1.488E+06 8.021E+05 2.376E+06 2.376E+06 1.170E+07 27.3517 1.00000
  1.778E+12 1.778E+12 4.031E+00 9.626E+04 1.669E+06 9.198E+05 2.685E+06 2.685E+06 1.178E+07 27.5820 1.00000
  1.995E+12 1.995E+12 4.049E+00 1.080E+05 1.873E+06 1.055E+06 3.036E+06 3.036E+06 1.185E+07 27.8122 1.00000
  2.239E+12 2.239E+12 4.067E+00 1.212E+05 2.101E+06 1.210E+06 3.432E+06 3.432E+06 1.193E+07 28.0425 1.00000
  2.512E+12 2.512E+12 4.084E+00 1.360E+05 2.358E+06 1.387E+06 3.881E+06 3.881E+06 1.200E+07 28.2727 1.00000
  2.818E+12 2.818E+12 4.102E+00 1.526E+05 2.645E+06 1.591E+06 4.389E+06 4.389E+06 1.208E+07 28.5030 1.00000
  3.162E+12 3.162E+12 4.120E+00 1.712E+05 2.968E+06 1.825E+06 4.964E+06 4.964E+06 1.215E+07 28.7333 1.00000
  3.548E+12 3.548E+12 4.138E+00 1.921E+05 3.330E+06 2.093E+06 5.615E+06 5.615E+06 1.223E+07 28.9635 1.00000
  3.981E+12 3.981E+12 4.156E+00 2.155E+05 3.736E+06 2.401E+06 6.352E+06 6.352E+06 1.230E+07 29.1938 1.00000
  4.467E+12 4.467E+12 4.175E+00 2.418E+05 4.192E+06 2.754E+06 7.188E+06 7.188E+06 1.237E+07 29.4240 1.00000
  5.012E+12 5.012E+12 4.193E+00 2.713E+05 4.703E+06 3.159E+06 8.134E+06 8.134E+06 1.244E+07 29.6543 1.00000
  5.623E+12 5.623E+12 4.212E+00 3.044E+05 5.277E+06 3.624E+06 9.205E+06 9.205E+06 1.251E+07 29.8846 1.00000
  6.310E+12 6.310E+12 4.230E+00 3.416E+05 5.920E+06 4.158E+06 1.042E+07 1.042E+07 1.258E+07 30.1148 1.00000
  7.079E+12 7.079E+12 4.249E+00 3.833E+05 6.642E+06 4.771E+06 1.180E+07 1.180E+07 1.265E+07 30.3451 1.00000
  7.943E+12 7.943E+12 4.267E+00 4.300E+05 7.452E+06 5.474E+06 1.336E+07 1.336E+07 1.272E+07 30.5753 1.00000
  8.913E+12 8.913E+12 4.286E+00 4.825E+05 8.361E+06 6.282E+06 1.513E+07 1.513E+07 1.279E+07 30.8056 1.00000
  1.000E+13 1.000E+13 4.305E+00 5.414E+05 9.381E+06 7.208E+06 1.713E+07 1.713E+07 1.286E+07 31.0359 1.00000
  1.122E+13 1.122E+13 4.324E+00 6.074E+05 1.053E+07 8.272E+06 1.940E+07 1.940E+07 1.292E+07 31.2661 1.00000
  1.259E+13 1.259E+13 4.344E+00 6.815E+05 1.181E+07 9.493E+06 2.198E+07 2.198E+07 1.299E+07 31.4964 1.00000
  1.413E+13 1.413E+13 4.363E+00 7.647E+05 1.325E+07 1.090E+07 2.491E+07 2.491E+07 1.306E+07 31.7266 1.00000
  1.585E+13 1.585E+13 4.382E+00 8.580E+05 1.487E+07 1.250E+07 2.823E+07 2.823E+07 1.312E+07 31.9569 1.00000
  1.778E+13 1.778E+13 4.402E+00 9.627E+05 1.668E+07 1.435E+07 3.199E+07 3.199E+07 1.319E+07 32.1871 1.00000
  1.995E+13 1.995E+13 4.421E+00 1.080E+06 1.871E+07 1.648E+07 3.627E+07 3.627E+07 1.325E+07 32.4174 1.00000
  2.239E+13 2.239E+13 4.441E+00 1.212E+06 2.099E+07 1.891E+07 4.112E+07 4.112E+07 1.331E+07 32.6477 1.00000
  2.512E+13 2.512E+13 4.461E+00 1.360E+06 2.355E+07 2.171E+07 4.662E+07 4.662E+07 1.338E+07 32.8779 1.00000
  2.818E+13 2.818E+13 4.481E+00 1.526E+06 2.643E+07 2.492E+07 5.288E+07 5.288E+07 1.344E+07 33.1082 1.00000
  3.162E+13 3.162E+13 4.501E+00 1.712E+06 2.965E+07 2.861E+07 5.998E+07 5.998E+07 1.350E+07 33.3384 1.00000
  3.548E+13 3.548E+13 4.521E+00 1.921E+06 3.327E+07 3.285E+07 6.804E+07 6.804E+07 1.356E+07 33.5687 1.00000
  3.981E+13 3.981E+13 4.541E+00 2.155E+06 3.732E+07 3.772E+07 7.720E+07 7.720E+07 1.362E+07 33.7990 1.00000
  4.467E+13 4.467E+13 4.561E+00 2.418E+06 4.188E+07 4.331E+07 8.761E+07 8.761E+07 1.368E+07 34.0292 1.00000
  5.012E+13 5.012E+13 4.582E+00 2.713E+06 4.698E+07 4.973E+07 9.943E+07 9.943E+07 1.374E+07 34.2595 1.00000
  5.623E+13 5.623E+13 4.602E+00 3.044E+06 5.271E+07 5.711E+07 1.129E+08 1.129E+08 1.379E+07 34.4897 1.00000
  6.310E+13 6.310E+13 4.623E+00 3.416E+06 5.914E+07 6.559E+07 1.281E+08 1.281E+08 1.385E+07 34.7200 1.00000
  7.079E+13 7.079E+13 4.644E+00 3.833E+06 6.635E+07 7.532E+07 1.455E+08 1.455E+08 1.391E+07 34.9502 1.00000
  7.943E+13 7.943E+13 4.665E+00 4.300E+06 7.444E+07 8.651E+07 1.653E+08 1.653E+08 1.396E+07 35.1805 1.00000
  8.913E+13 8.913E+13 4.686E+00 4.825E+06 8.352E+07 9.936E+07 1.877E+08 1.877E+08 1.402E+07 35.4108 1.00000
