 Incident particle is a Tau with M = 1776.82000 MeV
 Index = 0: Osmium
      Absorber with <Z/A> = 0.39951
 Sternheimer coef:  a     k=m_s   x_0    x_1    I[eV]   Cbar  delta0
                 0.1275  2.9608  0.0891  3.5414  746.0  5.3083 0.10

 *** Table generated with PUMAS v1.00 ***

      T         p     Ionization  brems     pair     photonuc  Radloss    dE/dx   CSDA Range  delta   beta
    [MeV]    [MeV/c]  -----------------------[MeV cm^2/g]------------------------  [g/cm^2]
  1.000E+05 1.018E+05 1.551E+00 9.831E-04 1.742E-02 7.569E-03 2.597E-02 1.577E+00 3.171E+04  3.4944 0.99985
  1.122E+05 1.140E+05 1.569E+00 1.140E-03 2.086E-02 8.496E-03 3.049E-02 1.599E+00 3.939E+04  3.6647 0.99988
  1.259E+05 1.277E+05 1.586E+00 1.321E-03 2.490E-02 9.487E-03 3.571E-02 1.622E+00 4.789E+04  3.8384 0.99990
  1.413E+05 1.430E+05 1.604E+00 1.530E-03 2.964E-02 1.060E-02 4.177E-02 1.646E+00 5.730E+04  4.0153 0.99992
  1.585E+05 1.603E+05 1.621E+00 1.771E-03 3.520E-02 1.183E-02 4.880E-02 1.670E+00 6.770E+04  4.1953 0.99994
  1.778E+05 1.796E+05 1.638E+00 2.049E-03 4.169E-02 1.320E-02 5.693E-02 1.695E+00 7.919E+04  4.3785 0.99995
  1.995E+05 2.013E+05 1.655E+00 2.370E-03 4.926E-02 1.475E-02 6.638E-02 1.722E+00 9.189E+04  4.5645 0.99996
  2.239E+05 2.256E+05 1.672E+00 2.738E-03 5.808E-02 1.643E-02 7.725E-02 1.750E+00 1.059E+05  4.7534 0.99997
  2.512E+05 2.530E+05 1.689E+00 3.162E-03 6.833E-02 1.831E-02 8.980E-02 1.779E+00 1.214E+05  4.9451 0.99998
  2.818E+05 2.836E+05 1.706E+00 3.650E-03 8.021E-02 2.042E-02 1.043E-01 1.810E+00 1.385E+05  5.1394 0.99998
  3.162E+05 3.180E+05 1.722E+00 4.211E-03 9.396E-02 2.279E-02 1.210E-01 1.843E+00 1.573E+05  5.3363 0.99998
  3.548E+05 3.566E+05 1.739E+00 4.854E-03 1.099E-01 2.544E-02 1.402E-01 1.879E+00 1.780E+05  5.5356 0.99999
  3.981E+05 3.999E+05 1.755E+00 5.594E-03 1.282E-01 2.838E-02 1.622E-01 1.917E+00 2.009E+05  5.7373 0.99999
  4.467E+05 4.485E+05 1.771E+00 6.442E-03 1.493E-01 3.166E-02 1.874E-01 1.958E+00 2.259E+05  5.9413 0.99999
  5.012E+05 5.030E+05 1.787E+00 7.415E-03 1.737E-01 3.534E-02 2.164E-01 2.003E+00 2.535E+05  6.1474 0.99999
  5.623E+05 5.641E+05 1.803E+00 8.531E-03 2.016E-01 3.930E-02 2.494E-01 2.052E+00 2.836E+05  6.3556 1.00000
  6.310E+05 6.327E+05 1.818E+00 9.810E-03 2.337E-01 4.374E-02 2.872E-01 2.105E+00 3.166E+05  6.5658 1.00000
  7.079E+05 7.097E+05 1.834E+00 1.127E-02 2.704E-01 4.875E-02 3.305E-01 2.164E+00 3.527E+05  6.7779 1.00000
  7.943E+05 7.961E+05 1.849E+00 1.295E-02 3.125E-01 5.438E-02 3.798E-01 2.229E+00 3.920E+05  6.9918 1.00000
  8.913E+05 8.930E+05 1.864E+00 1.487E-02 3.606E-01 6.073E-02 4.362E-01 2.300E+00 4.349E+05  7.2074 1.00000
  1.000E+06 1.002E+06 1.879E+00 1.707E-02 4.155E-01 6.790E-02 5.005E-01 2.379E+00 4.814E+05  7.4246 1.00000
  1.122E+06 1.124E+06 1.894E+00 1.958E-02 4.781E-01 7.599E-02 5.737E-01 2.467E+00 5.317E+05  7.6433 1.00000
  1.259E+06 1.261E+06 1.908E+00 2.245E-02 5.495E-01 8.513E-02 6.571E-01 2.565E+00 5.861E+05  7.8635 1.00000
  1.413E+06 1.414E+06 1.923E+00 2.573E-02 6.307E-01 9.547E-02 7.519E-01 2.675E+00 6.448E+05  8.0849 1.00000
  1.585E+06 1.587E+06 1.937E+00 2.947E-02 7.231E-01 1.072E-01 8.597E-01 2.797E+00 7.078E+05  8.3076 1.00000
  1.778E+06 1.780E+06 1.951E+00 3.375E-02 8.281E-01 1.204E-01 9.822E-01 2.933E+00 7.754E+05  8.5315 1.00000
  1.995E+06 1.997E+06 1.965E+00 3.863E-02 9.472E-01 1.355E-01 1.121E+00 3.086E+00 8.475E+05  8.7564 1.00000
  2.239E+06 2.240E+06 1.979E+00 4.420E-02 1.082E+00 1.525E-01 1.279E+00 3.258E+00 9.243E+05  8.9822 1.00000
  2.512E+06 2.514E+06 1.993E+00 5.055E-02 1.235E+00 1.719E-01 1.458E+00 3.450E+00 1.006E+06  9.2089 1.00000
  2.818E+06 2.820E+06 2.006E+00 5.780E-02 1.409E+00 1.938E-01 1.661E+00 3.667E+00 1.092E+06  9.4364 1.00000
  3.162E+06 3.164E+06 2.019E+00 6.605E-02 1.605E+00 2.188E-01 1.890E+00 3.909E+00 1.183E+06  9.6646 1.00000
  3.548E+06 3.550E+06 2.033E+00 7.546E-02 1.827E+00 2.471E-01 2.150E+00 4.182E+00 1.278E+06  9.8933 1.00000
  3.981E+06 3.983E+06 2.046E+00 8.617E-02 2.078E+00 2.794E-01 2.444E+00 4.489E+00 1.378E+06 10.1225 1.00000
  4.467E+06 4.469E+06 2.058E+00 9.836E-02 2.362E+00 3.161E-01 2.776E+00 4.834E+00 1.483E+06 10.3521 1.00000
  5.012E+06 5.014E+06 2.071E+00 1.122E-01 2.682E+00 3.578E-01 3.152E+00 5.223E+00 1.591E+06 10.5820 1.00000
  5.623E+06 5.625E+06 2.084E+00 1.280E-01 3.043E+00 4.053E-01 3.576E+00 5.660E+00 1.704E+06 10.8121 1.00000
  6.310E+06 6.311E+06 2.096E+00 1.460E-01 3.450E+00 4.593E-01 4.056E+00 6.152E+00 1.820E+06 11.0423 1.00000
  7.079E+06 7.081E+06 2.108E+00 1.664E-01 3.910E+00 5.209E-01 4.597E+00 6.705E+00 1.940E+06 11.2725 1.00000
  7.943E+06 7.945E+06 2.121E+00 1.896E-01 4.427E+00 5.910E-01 5.208E+00 7.328E+00 2.064E+06 11.5027 1.00000
  8.913E+06 8.914E+06 2.133E+00 2.160E-01 5.010E+00 6.708E-01 5.897E+00 8.030E+00 2.190E+06 11.7329 1.00000
  1.000E+07 1.000E+07 2.145E+00 2.460E-01 5.667E+00 7.618E-01 6.675E+00 8.820E+00 2.319E+06 11.9631 1.00000
  1.122E+07 1.122E+07 2.156E+00 2.800E-01 6.407E+00 8.655E-01 7.552E+00 9.709E+00 2.451E+06 12.1933 1.00000
  1.259E+07 1.259E+07 2.168E+00 3.186E-01 7.239E+00 9.837E-01 8.541E+00 1.071E+01 2.586E+06 12.4235 1.00000
  1.413E+07 1.413E+07 2.180E+00 3.625E-01 8.175E+00 1.119E+00 9.656E+00 1.184E+01 2.722E+06 12.6538 1.00000
  1.585E+07 1.585E+07 2.191E+00 4.122E-01 9.229E+00 1.272E+00 1.091E+01 1.310E+01 2.861E+06 12.8840 1.00000
  1.778E+07 1.778E+07 2.203E+00 4.686E-01 1.041E+01 1.447E+00 1.233E+01 1.453E+01 3.001E+06 13.1142 1.00000
  1.995E+07 1.995E+07 2.214E+00 5.325E-01 1.175E+01 1.647E+00 1.393E+01 1.614E+01 3.143E+06 13.3445 1.00000
  2.239E+07 2.239E+07 2.226E+00 6.049E-01 1.324E+01 1.875E+00 1.572E+01 1.795E+01 3.286E+06 13.5747 1.00000
  2.512E+07 2.512E+07 2.237E+00 6.870E-01 1.493E+01 2.135E+00 1.775E+01 1.999E+01 3.431E+06 13.8049 1.00000
  2.818E+07 2.819E+07 2.248E+00 7.799E-01 1.682E+01 2.432E+00 2.003E+01 2.228E+01 3.576E+06 14.0352 1.00000
  3.162E+07 3.162E+07 2.259E+00 8.851E-01 1.894E+01 2.771E+00 2.260E+01 2.486E+01 3.723E+06 14.2654 1.00000
  3.548E+07 3.548E+07 2.270E+00 1.004E+00 2.133E+01 3.157E+00 2.549E+01 2.776E+01 3.870E+06 14.4957 1.00000
  3.981E+07 3.981E+07 2.282E+00 1.139E+00 2.402E+01 3.598E+00 2.875E+01 3.103E+01 4.018E+06 14.7259 1.00000
  4.467E+07 4.467E+07 2.293E+00 1.291E+00 2.703E+01 4.102E+00 3.242E+01 3.471E+01 4.166E+06 14.9562 1.00000
  5.012E+07 5.012E+07 2.304E+00 1.464E+00 3.041E+01 4.676E+00 3.655E+01 3.886E+01 4.314E+06 15.1864 1.00000
  5.623E+07 5.624E+07 2.315E+00 1.658E+00 3.421E+01 5.332E+00 4.120E+01 4.352E+01 4.463E+06 15.4167 1.00000
  6.310E+07 6.310E+07 2.326E+00 1.878E+00 3.848E+01 6.081E+00 4.644E+01 4.877E+01 4.613E+06 15.6469 1.00000
  7.079E+07 7.080E+07 2.337E+00 2.127E+00 4.328E+01 6.936E+00 5.234E+01 5.468E+01 4.762E+06 15.8772 1.00000
  7.943E+07 7.943E+07 2.348E+00 2.408E+00 4.866E+01 7.912E+00 5.898E+01 6.132E+01 4.911E+06 16.1074 1.00000
  8.913E+07 8.913E+07 2.359E+00 2.725E+00 5.470E+01 9.027E+00 6.645E+01 6.881E+01 5.061E+06 16.3377 1.00000
  1.000E+08 1.000E+08 2.370E+00 3.083E+00 6.148E+01 1.030E+01 7.486E+01 7.723E+01 5.210E+06 16.5679 1.00000
  1.122E+08 1.122E+08 2.382E+00 3.487E+00 6.909E+01 1.175E+01 8.433E+01 8.671E+01 5.360E+06 16.7982 1.00000
  1.259E+08 1.259E+08 2.393E+00 3.942E+00 7.764E+01 1.341E+01 9.499E+01 9.739E+01 5.509E+06 17.0284 1.00000
  1.413E+08 1.413E+08 2.404E+00 4.456E+00 8.723E+01 1.531E+01 1.070E+02 1.094E+02 5.658E+06 17.2587 1.00000
  1.585E+08 1.585E+08 2.415E+00 5.035E+00 9.800E+01 1.747E+01 1.205E+02 1.229E+02 5.807E+06 17.4890 1.00000
  1.778E+08 1.778E+08 2.427E+00 5.687E+00 1.101E+02 1.995E+01 1.357E+02 1.381E+02 5.955E+06 17.7192 1.00000
  1.995E+08 1.995E+08 2.438E+00 6.423E+00 1.236E+02 2.277E+01 1.528E+02 1.553E+02 6.104E+06 17.9495 1.00000
  2.239E+08 2.239E+08 2.449E+00 7.252E+00 1.389E+02 2.600E+01 1.721E+02 1.746E+02 6.252E+06 18.1797 1.00000
  2.512E+08 2.512E+08 2.461E+00 8.185E+00 1.560E+02 2.969E+01 1.938E+02 1.963E+02 6.400E+06 18.4100 1.00000
  2.818E+08 2.818E+08 2.472E+00 9.236E+00 1.751E+02 3.390E+01 2.183E+02 2.207E+02 6.547E+06 18.6402 1.00000
  3.162E+08 3.162E+08 2.484E+00 1.042E+01 1.966E+02 3.872E+01 2.458E+02 2.483E+02 6.694E+06 18.8705 1.00000
  3.548E+08 3.548E+08 2.495E+00 1.175E+01 2.208E+02 4.422E+01 2.768E+02 2.793E+02 6.841E+06 19.1008 1.00000
  3.981E+08 3.981E+08 2.507E+00 1.325E+01 2.479E+02 5.051E+01 3.116E+02 3.141E+02 6.988E+06 19.3310 1.00000
  4.467E+08 4.467E+08 2.519E+00 1.494E+01 2.783E+02 5.769E+01 3.509E+02 3.534E+02 7.134E+06 19.5613 1.00000
  5.012E+08 5.012E+08 2.530E+00 1.683E+01 3.124E+02 6.591E+01 3.951E+02 3.977E+02 7.279E+06 19.7915 1.00000
  5.623E+08 5.623E+08 2.542E+00 1.897E+01 3.507E+02 7.529E+01 4.449E+02 4.475E+02 7.425E+06 20.0218 1.00000
  6.310E+08 6.310E+08 2.554E+00 2.137E+01 3.936E+02 8.602E+01 5.010E+02 5.036E+02 7.569E+06 20.2520 1.00000
  7.079E+08 7.079E+08 2.566E+00 2.406E+01 4.419E+02 9.828E+01 5.642E+02 5.668E+02 7.714E+06 20.4823 1.00000
  7.943E+08 7.943E+08 2.578E+00 2.710E+01 4.959E+02 1.123E+02 6.353E+02 6.379E+02 7.858E+06 20.7126 1.00000
  8.913E+08 8.913E+08 2.590E+00 3.051E+01 5.566E+02 1.283E+02 7.155E+02 7.181E+02 8.001E+06 20.9428 1.00000
  1.000E+09 1.000E+09 2.602E+00 3.434E+01 6.248E+02 1.466E+02 8.057E+02 8.083E+02 8.144E+06 21.1731 1.00000
  1.122E+09 1.122E+09 2.614E+00 3.865E+01 7.012E+02 1.676E+02 9.074E+02 9.100E+02 8.287E+06 21.4033 1.00000
  1.259E+09 1.259E+09 2.627E+00 4.348E+01 7.869E+02 1.915E+02 1.022E+03 1.025E+03 8.429E+06 21.6336 1.00000
  1.413E+09 1.413E+09 2.639E+00 4.892E+01 8.831E+02 2.189E+02 1.151E+03 1.154E+03 8.570E+06 21.8638 1.00000
  1.585E+09 1.585E+09 2.651E+00 5.503E+01 9.911E+02 2.502E+02 1.296E+03 1.299E+03 8.711E+06 22.0941 1.00000
  1.778E+09 1.778E+09 2.664E+00 6.189E+01 1.112E+03 2.860E+02 1.460E+03 1.463E+03 8.852E+06 22.3244 1.00000
  1.995E+09 1.995E+09 2.676E+00 6.959E+01 1.248E+03 3.269E+02 1.645E+03 1.647E+03 8.992E+06 22.5546 1.00000
  2.239E+09 2.239E+09 2.689E+00 7.824E+01 1.401E+03 3.737E+02 1.853E+03 1.855E+03 9.131E+06 22.7849 1.00000
  2.512E+09 2.512E+09 2.702E+00 8.796E+01 1.572E+03 4.273E+02 2.087E+03 2.090E+03 9.270E+06 23.0151 1.00000
  2.818E+09 2.818E+09 2.714E+00 9.887E+01 1.764E+03 4.885E+02 2.351E+03 2.354E+03 9.409E+06 23.2454 1.00000
  3.162E+09 3.162E+09 2.727E+00 1.111E+02 1.979E+03 5.585E+02 2.649E+03 2.652E+03 9.547E+06 23.4757 1.00000
  3.548E+09 3.548E+09 2.740E+00 1.249E+02 2.221E+03 6.387E+02 2.984E+03 2.987E+03 9.684E+06 23.7059 1.00000
  3.981E+09 3.981E+09 2.753E+00 1.403E+02 2.492E+03 7.303E+02 3.363E+03 3.366E+03 9.821E+06 23.9362 1.00000
  4.467E+09 4.467E+09 2.766E+00 1.577E+02 2.796E+03 8.352E+02 3.789E+03 3.792E+03 9.957E+06 24.1664 1.00000
  5.012E+09 5.012E+09 2.779E+00 1.771E+02 3.138E+03 9.551E+02 4.270E+03 4.273E+03 1.009E+07 24.3967 1.00000
  5.623E+09 5.623E+09 2.792E+00 1.990E+02 3.521E+03 1.092E+03 4.812E+03 4.815E+03 1.023E+07 24.6269 1.00000
  6.310E+09 6.310E+09 2.805E+00 2.235E+02 3.951E+03 1.249E+03 5.424E+03 5.426E+03 1.036E+07 24.8572 1.00000
  7.079E+09 7.079E+09 2.819E+00 2.510E+02 4.433E+03 1.429E+03 6.113E+03 6.116E+03 1.050E+07 25.0875 1.00000
  7.943E+09 7.943E+09 2.832E+00 2.819E+02 4.974E+03 1.635E+03 6.891E+03 6.893E+03 1.063E+07 25.3177 1.00000
  8.913E+09 8.913E+09 2.845E+00 3.166E+02 5.581E+03 1.870E+03 7.768E+03 7.771E+03 1.076E+07 25.5480 1.00000
  1.000E+10 1.000E+10 2.859E+00 3.555E+02 6.262E+03 2.139E+03 8.757E+03 8.760E+03 1.089E+07 25.7782 1.00000
  1.122E+10 1.122E+10 2.873E+00 3.992E+02 7.027E+03 2.447E+03 9.873E+03 9.876E+03 1.103E+07 26.0085 1.00000
  1.259E+10 1.259E+10 2.886E+00 4.482E+02 7.884E+03 2.800E+03 1.113E+04 1.114E+04 1.116E+07 26.2388 1.00000
  1.413E+10 1.413E+10 2.900E+00 5.032E+02 8.846E+03 3.204E+03 1.255E+04 1.256E+04 1.129E+07 26.4690 1.00000
  1.585E+10 1.585E+10 2.914E+00 5.650E+02 9.926E+03 3.666E+03 1.416E+04 1.416E+04 1.142E+07 26.6993 1.00000
  1.778E+10 1.778E+10 2.928E+00 6.342E+02 1.114E+04 4.194E+03 1.597E+04 1.597E+04 1.154E+07 26.9295 1.00000
  1.995E+10 1.995E+10 2.942E+00 7.120E+02 1.250E+04 4.800E+03 1.801E+04 1.801E+04 1.167E+07 27.1598 1.00000
  2.239E+10 2.239E+10 2.956E+00 7.992E+02 1.402E+04 5.493E+03 2.031E+04 2.032E+04 1.180E+07 27.3901 1.00000
  2.512E+10 2.512E+10 2.970E+00 8.971E+02 1.573E+04 6.287E+03 2.292E+04 2.292E+04 1.193E+07 27.6203 1.00000
  2.818E+10 2.818E+10 2.984E+00 1.007E+03 1.765E+04 7.195E+03 2.585E+04 2.586E+04 1.205E+07 27.8506 1.00000
  3.162E+10 3.162E+10 2.998E+00 1.130E+03 1.980E+04 8.236E+03 2.917E+04 2.917E+04 1.218E+07 28.0808 1.00000
  3.548E+10 3.548E+10 3.013E+00 1.269E+03 2.222E+04 9.427E+03 3.292E+04 3.292E+04 1.230E+07 28.3111 1.00000
  3.981E+10 3.981E+10 3.027E+00 1.424E+03 2.493E+04 1.079E+04 3.715E+04 3.715E+04 1.243E+07 28.5413 1.00000
  4.467E+10 4.467E+10 3.042E+00 1.598E+03 2.797E+04 1.235E+04 4.193E+04 4.193E+04 1.255E+07 28.7716 1.00000
  5.012E+10 5.012E+10 3.056E+00 1.793E+03 3.139E+04 1.414E+04 4.732E+04 4.733E+04 1.267E+07 29.0019 1.00000
  5.623E+10 5.623E+10 3.071E+00 2.013E+03 3.522E+04 1.619E+04 5.342E+04 5.342E+04 1.280E+07 29.2321 1.00000
  6.310E+10 6.310E+10 3.086E+00 2.259E+03 3.951E+04 1.854E+04 6.031E+04 6.031E+04 1.292E+07 29.4624 1.00000
  7.079E+10 7.079E+10 3.101E+00 2.535E+03 4.433E+04 2.123E+04 6.809E+04 6.810E+04 1.304E+07 29.6926 1.00000
  7.943E+10 7.943E+10 3.116E+00 2.845E+03 4.974E+04 2.431E+04 7.689E+04 7.690E+04 1.316E+07 29.9229 1.00000
  8.913E+10 8.913E+10 3.131E+00 3.192E+03 5.581E+04 2.783E+04 8.684E+04 8.684E+04 1.328E+07 30.1532 1.00000
  1.000E+11 1.000E+11 3.146E+00 3.582E+03 6.262E+04 3.187E+04 9.808E+04 9.808E+04 1.339E+07 30.3834 1.00000
  1.122E+11 1.122E+11 3.161E+00 4.020E+03 7.026E+04 3.650E+04 1.108E+05 1.108E+05 1.351E+07 30.6137 1.00000
  1.259E+11 1.259E+11 3.177E+00 4.511E+03 7.883E+04 4.181E+04 1.251E+05 1.252E+05 1.363E+07 30.8439 1.00000
  1.413E+11 1.413E+11 3.192E+00 5.062E+03 8.845E+04 4.788E+04 1.414E+05 1.414E+05 1.374E+07 31.0742 1.00000
  1.585E+11 1.585E+11 3.207E+00 5.680E+03 9.923E+04 5.485E+04 1.598E+05 1.598E+05 1.386E+07 31.3044 1.00000
  1.778E+11 1.778E+11 3.223E+00 6.374E+03 1.113E+05 6.283E+04 1.805E+05 1.805E+05 1.397E+07 31.5347 1.00000
  1.995E+11 1.995E+11 3.239E+00 7.152E+03 1.249E+05 7.197E+04 2.040E+05 2.040E+05 1.408E+07 31.7650 1.00000
  2.239E+11 2.239E+11 3.254E+00 8.026E+03 1.402E+05 8.245E+04 2.306E+05 2.306E+05 1.420E+07 31.9952 1.00000
  2.512E+11 2.512E+11 3.270E+00 9.006E+03 1.573E+05 9.446E+04 2.607E+05 2.607E+05 1.431E+07 32.2255 1.00000
  2.818E+11 2.818E+11 3.286E+00 1.011E+04 1.764E+05 1.082E+05 2.948E+05 2.948E+05 1.442E+07 32.4557 1.00000
  3.162E+11 3.162E+11 3.302E+00 1.134E+04 1.980E+05 1.240E+05 3.333E+05 3.333E+05 1.453E+07 32.6860 1.00000
  3.548E+11 3.548E+11 3.318E+00 1.272E+04 2.221E+05 1.421E+05 3.769E+05 3.769E+05 1.464E+07 32.9163 1.00000
  3.981E+11 3.981E+11 3.334E+00 1.428E+04 2.492E+05 1.628E+05 4.263E+05 4.263E+05 1.475E+07 33.1465 1.00000
  4.467E+11 4.467E+11 3.351E+00 1.602E+04 2.796E+05 1.866E+05 4.822E+05 4.822E+05 1.485E+07 33.3768 1.00000
  5.012E+11 5.012E+11 3.367E+00 1.797E+04 3.137E+05 2.138E+05 5.455E+05 5.455E+05 1.496E+07 33.6070 1.00000
  5.623E+11 5.623E+11 3.384E+00 2.017E+04 3.520E+05 2.451E+05 6.172E+05 6.172E+05 1.507E+07 33.8373 1.00000
  6.310E+11 6.310E+11 3.400E+00 2.263E+04 3.949E+05 2.809E+05 6.984E+05 6.984E+05 1.517E+07 34.0675 1.00000
  7.079E+11 7.079E+11 3.417E+00 2.539E+04 4.431E+05 3.219E+05 7.904E+05 7.904E+05 1.527E+07 34.2978 1.00000
  7.943E+11 7.943E+11 3.434E+00 2.849E+04 4.971E+05 3.690E+05 8.946E+05 8.946E+05 1.538E+07 34.5281 1.00000
  8.913E+11 8.913E+11 3.450E+00 3.197E+04 5.578E+05 4.230E+05 1.013E+06 1.013E+06 1.548E+07 34.7583 1.00000
  1.000E+12 1.000E+12 3.467E+00 3.587E+04 6.258E+05 4.849E+05 1.147E+06 1.147E+06 1.558E+07 34.9886 1.00000
  1.122E+12 1.122E+12 3.484E+00 4.025E+04 7.021E+05 5.559E+05 1.298E+06 1.298E+06 1.568E+07 35.2188 1.00000
  1.259E+12 1.259E+12 3.501E+00 4.516E+04 7.878E+05 6.374E+05 1.470E+06 1.470E+06 1.578E+07 35.4491 1.00000
  1.413E+12 1.413E+12 3.519E+00 5.067E+04 8.839E+05 7.308E+05 1.665E+06 1.665E+06 1.588E+07 35.6794 1.00000
  1.585E+12 1.585E+12 3.536E+00 5.685E+04 9.917E+05 8.379E+05 1.886E+06 1.886E+06 1.598E+07 35.9096 1.00000
  1.778E+12 1.778E+12 3.553E+00 6.379E+04 1.113E+06 9.608E+05 2.137E+06 2.137E+06 1.607E+07 36.1399 1.00000
  1.995E+12 1.995E+12 3.571E+00 7.157E+04 1.248E+06 1.102E+06 2.422E+06 2.422E+06 1.617E+07 36.3701 1.00000
  2.239E+12 2.239E+12 3.588E+00 8.031E+04 1.401E+06 1.263E+06 2.744E+06 2.744E+06 1.626E+07 36.6004 1.00000
  2.512E+12 2.512E+12 3.606E+00 9.010E+04 1.571E+06 1.449E+06 3.111E+06 3.111E+06 1.636E+07 36.8306 1.00000
  2.818E+12 2.818E+12 3.624E+00 1.011E+05 1.763E+06 1.662E+06 3.526E+06 3.526E+06 1.645E+07 37.0609 1.00000
  3.162E+12 3.162E+12 3.642E+00 1.134E+05 1.978E+06 1.906E+06 3.998E+06 3.998E+06 1.654E+07 37.2912 1.00000
  3.548E+12 3.548E+12 3.660E+00 1.273E+05 2.219E+06 2.186E+06 4.533E+06 4.533E+06 1.663E+07 37.5214 1.00000
  3.981E+12 3.981E+12 3.678E+00 1.428E+05 2.490E+06 2.508E+06 5.141E+06 5.141E+06 1.672E+07 37.7517 1.00000
  4.467E+12 4.467E+12 3.696E+00 1.602E+05 2.794E+06 2.877E+06 5.831E+06 5.831E+06 1.681E+07 37.9819 1.00000
  5.012E+12 5.012E+12 3.714E+00 1.798E+05 3.135E+06 3.300E+06 6.615E+06 6.615E+06 1.690E+07 38.2122 1.00000
  5.623E+12 5.623E+12 3.733E+00 2.017E+05 3.517E+06 3.786E+06 7.505E+06 7.505E+06 1.699E+07 38.4425 1.00000
  6.310E+12 6.310E+12 3.751E+00 2.263E+05 3.946E+06 4.344E+06 8.516E+06 8.516E+06 1.707E+07 38.6727 1.00000
  7.079E+12 7.079E+12 3.770E+00 2.540E+05 4.427E+06 4.984E+06 9.665E+06 9.665E+06 1.716E+07 38.9030 1.00000
  7.943E+12 7.943E+12 3.789E+00 2.849E+05 4.967E+06 5.718E+06 1.097E+07 1.097E+07 1.724E+07 39.1332 1.00000
  8.913E+12 8.913E+12 3.807E+00 3.197E+05 5.573E+06 6.562E+06 1.245E+07 1.245E+07 1.732E+07 39.3635 1.00000
  1.000E+13 1.000E+13 3.826E+00 3.587E+05 6.253E+06 7.529E+06 1.414E+07 1.414E+07 1.741E+07 39.5938 1.00000
  1.122E+13 1.122E+13 3.845E+00 4.025E+05 7.015E+06 8.641E+06 1.606E+07 1.606E+07 1.749E+07 39.8240 1.00000
  1.259E+13 1.259E+13 3.864E+00 4.516E+05 7.871E+06 9.916E+06 1.824E+07 1.824E+07 1.757E+07 40.0543 1.00000
  1.413E+13 1.413E+13 3.883E+00 5.067E+05 8.831E+06 1.138E+07 2.072E+07 2.072E+07 1.765E+07 40.2845 1.00000
  1.585E+13 1.585E+13 3.903E+00 5.686E+05 9.908E+06 1.306E+07 2.354E+07 2.354E+07 1.772E+07 40.5148 1.00000
  1.778E+13 1.778E+13 3.922E+00 6.379E+05 1.112E+07 1.499E+07 2.675E+07 2.675E+07 1.780E+07 40.7450 1.00000
  1.995E+13 1.995E+13 3.942E+00 7.158E+05 1.247E+07 1.721E+07 3.040E+07 3.040E+07 1.788E+07 40.9753 1.00000
  2.239E+13 2.239E+13 3.961E+00 8.031E+05 1.399E+07 1.975E+07 3.455E+07 3.455E+07 1.795E+07 41.2056 1.00000
  2.512E+13 2.512E+13 3.981E+00 9.011E+05 1.570E+07 2.268E+07 3.928E+07 3.928E+07 1.803E+07 41.4358 1.00000
  2.818E+13 2.818E+13 4.001E+00 1.011E+06 1.761E+07 2.603E+07 4.466E+07 4.466E+07 1.810E+07 41.6661 1.00000
  3.162E+13 3.162E+13 4.021E+00 1.134E+06 1.976E+07 2.989E+07 5.079E+07 5.079E+07 1.817E+07 41.8963 1.00000
  3.548E+13 3.548E+13 4.041E+00 1.273E+06 2.217E+07 3.432E+07 5.776E+07 5.776E+07 1.824E+07 42.1266 1.00000
  3.981E+13 3.981E+13 4.061E+00 1.428E+06 2.488E+07 3.940E+07 6.571E+07 6.571E+07 1.831E+07 42.3569 1.00000
  4.467E+13 4.467E+13 4.081E+00 1.602E+06 2.791E+07 4.524E+07 7.476E+07 7.476E+07 1.838E+07 42.5871 1.00000
  5.012E+13 5.012E+13 4.102E+00 1.798E+06 3.131E+07 5.195E+07 8.506E+07 8.506E+07 1.845E+07 42.8174 1.00000
  5.623E+13 5.623E+13 4.122E+00 2.017E+06 3.513E+07 5.966E+07 9.681E+07 9.681E+07 1.852E+07 43.0476 1.00000
  6.310E+13 6.310E+13 4.143E+00 2.263E+06 3.942E+07 6.851E+07 1.102E+08 1.102E+08 1.859E+07 43.2779 1.00000
  7.079E+13 7.079E+13 4.163E+00 2.540E+06 4.423E+07 7.868E+07 1.254E+08 1.254E+08 1.865E+07 43.5081 1.00000
  7.943E+13 7.943E+13 4.184E+00 2.850E+06 4.962E+07 9.037E+07 1.428E+08 1.428E+08 1.872E+07 43.7384 1.00000
  8.913E+13 8.913E+13 4.205E+00 3.197E+06 5.567E+07 1.038E+08 1.627E+08 1.627E+08 1.878E+07 43.9687 1.00000
