 Incident particle is a Tau with M = 1776.82000 MeV
 Index = 0: OxygenGas
      Absorber with <Z/A> = 0.50002
 Sternheimer coef:  a     k=m_s   x_0    x_1    I[eV]   Cbar  delta0
                 0.1178  3.2913  1.7541  4.3213   95.0 10.7004 0.00

 *** Table generated with PUMAS v1.00 ***

      T         p     Ionization  brems     pair     photonuc  Radloss    dE/dx   CSDA Range  delta   beta
    [MeV]    [MeV/c]  -----------------------[MeV cm^2/g]------------------------  [g/cm^2]
  1.000E+05 1.018E+05 2.526E+00 1.571E-04 2.442E-03 8.271E-03 1.087E-02 2.536E+00 1.971E+04  0.0053 0.99985
  1.122E+05 1.140E+05 2.556E+00 1.815E-04 2.945E-03 9.336E-03 1.246E-02 2.568E+00 2.449E+04  0.0706 0.99988
  1.259E+05 1.277E+05 2.586E+00 2.095E-04 3.537E-03 1.048E-02 1.423E-02 2.600E+00 2.979E+04  0.1431 0.99990
  1.413E+05 1.430E+05 2.615E+00 2.418E-04 4.236E-03 1.177E-02 1.625E-02 2.631E+00 3.567E+04  0.2226 0.99992
  1.585E+05 1.603E+05 2.644E+00 2.790E-04 5.056E-03 1.321E-02 1.855E-02 2.662E+00 4.218E+04  0.3090 0.99994
  1.778E+05 1.796E+05 2.672E+00 3.217E-04 6.019E-03 1.482E-02 2.117E-02 2.693E+00 4.940E+04  0.4021 0.99995
  1.995E+05 2.013E+05 2.700E+00 3.708E-04 7.146E-03 1.666E-02 2.418E-02 2.724E+00 5.741E+04  0.5018 0.99996
  2.239E+05 2.256E+05 2.728E+00 4.272E-04 8.464E-03 1.867E-02 2.756E-02 2.755E+00 6.630E+04  0.6078 0.99997
  2.512E+05 2.530E+05 2.755E+00 4.919E-04 1.000E-02 2.091E-02 3.141E-02 2.786E+00 7.615E+04  0.7201 0.99998
  2.818E+05 2.836E+05 2.782E+00 5.662E-04 1.179E-02 2.345E-02 3.580E-02 2.817E+00 8.709E+04  0.8384 0.99998
  3.162E+05 3.180E+05 2.808E+00 6.514E-04 1.387E-02 2.631E-02 4.082E-02 2.849E+00 9.923E+04  0.9625 0.99998
  3.548E+05 3.566E+05 2.834E+00 7.492E-04 1.628E-02 2.952E-02 4.654E-02 2.880E+00 1.127E+05  1.0924 0.99999
  3.981E+05 3.999E+05 2.859E+00 8.612E-04 1.907E-02 3.310E-02 5.303E-02 2.912E+00 1.277E+05  1.2278 0.99999
  4.467E+05 4.485E+05 2.884E+00 9.897E-04 2.231E-02 3.711E-02 6.041E-02 2.944E+00 1.442E+05  1.3685 0.99999
  5.012E+05 5.030E+05 2.908E+00 1.137E-03 2.604E-02 4.163E-02 6.881E-02 2.977E+00 1.627E+05  1.5144 0.99999
  5.623E+05 5.641E+05 2.933E+00 1.305E-03 3.035E-02 4.652E-02 7.818E-02 3.011E+00 1.831E+05  1.6653 1.00000
  6.310E+05 6.327E+05 2.956E+00 1.498E-03 3.532E-02 5.204E-02 8.886E-02 3.045E+00 2.057E+05  1.8211 1.00000
  7.079E+05 7.097E+05 2.979E+00 1.719E-03 4.104E-02 5.826E-02 1.010E-01 3.081E+00 2.309E+05  1.9815 1.00000
  7.943E+05 7.961E+05 3.002E+00 1.972E-03 4.761E-02 6.528E-02 1.149E-01 3.117E+00 2.588E+05  2.1464 1.00000
  8.913E+05 8.930E+05 3.025E+00 2.261E-03 5.515E-02 7.322E-02 1.306E-01 3.155E+00 2.897E+05  2.3157 1.00000
  1.000E+06 1.002E+06 3.047E+00 2.592E-03 6.380E-02 8.220E-02 1.486E-01 3.195E+00 3.239E+05  2.4891 1.00000
  1.122E+06 1.124E+06 3.069E+00 2.970E-03 7.371E-02 9.236E-02 1.690E-01 3.238E+00 3.618E+05  2.6665 1.00000
  1.259E+06 1.261E+06 3.090E+00 3.402E-03 8.505E-02 1.039E-01 1.923E-01 3.282E+00 4.038E+05  2.8477 1.00000
  1.413E+06 1.414E+06 3.111E+00 3.896E-03 9.801E-02 1.169E-01 2.188E-01 3.330E+00 4.503E+05  3.0327 1.00000
  1.585E+06 1.587E+06 3.131E+00 4.461E-03 1.128E-01 1.317E-01 2.490E-01 3.380E+00 5.017E+05  3.2211 1.00000
  1.778E+06 1.780E+06 3.151E+00 5.105E-03 1.297E-01 1.485E-01 2.833E-01 3.435E+00 5.584E+05  3.4129 1.00000
  1.995E+06 1.997E+06 3.171E+00 5.842E-03 1.489E-01 1.675E-01 3.223E-01 3.494E+00 6.211E+05  3.6079 1.00000
  2.239E+06 2.240E+06 3.191E+00 6.682E-03 1.709E-01 1.891E-01 3.667E-01 3.557E+00 6.902E+05  3.8059 1.00000
  2.512E+06 2.514E+06 3.210E+00 7.642E-03 1.958E-01 2.137E-01 4.171E-01 3.627E+00 7.662E+05  4.0068 1.00000
  2.818E+06 2.820E+06 3.228E+00 8.737E-03 2.241E-01 2.416E-01 4.745E-01 3.703E+00 8.498E+05  4.2104 1.00000
  3.162E+06 3.164E+06 3.247E+00 9.986E-03 2.563E-01 2.733E-01 5.396E-01 3.786E+00 9.417E+05  4.4167 1.00000
  3.548E+06 3.550E+06 3.265E+00 1.141E-02 2.929E-01 3.094E-01 6.137E-01 3.878E+00 1.042E+06  4.6253 1.00000
  3.981E+06 3.983E+06 3.282E+00 1.304E-02 3.343E-01 3.505E-01 6.978E-01 3.980E+00 1.153E+06  4.8363 1.00000
  4.467E+06 4.469E+06 3.300E+00 1.489E-02 3.813E-01 3.972E-01 7.934E-01 4.093E+00 1.273E+06  5.0494 1.00000
  5.012E+06 5.014E+06 3.317E+00 1.700E-02 4.344E-01 4.504E-01 9.019E-01 4.219E+00 1.404E+06  5.2645 1.00000
  5.623E+06 5.625E+06 3.334E+00 1.941E-02 4.946E-01 5.110E-01 1.025E+00 4.359E+00 1.547E+06  5.4815 1.00000
  6.310E+06 6.311E+06 3.350E+00 2.215E-02 5.627E-01 5.800E-01 1.165E+00 4.515E+00 1.701E+06  5.7002 1.00000
  7.079E+06 7.081E+06 3.366E+00 2.527E-02 6.397E-01 6.586E-01 1.324E+00 4.690E+00 1.869E+06  5.9205 1.00000
  7.943E+06 7.945E+06 3.382E+00 2.882E-02 7.266E-01 7.481E-01 1.504E+00 4.886E+00 2.049E+06  6.1422 1.00000
  8.913E+06 8.914E+06 3.398E+00 3.286E-02 8.248E-01 8.502E-01 1.708E+00 5.106E+00 2.243E+06  6.3653 1.00000
  1.000E+07 1.000E+07 3.413E+00 3.746E-02 9.356E-01 9.665E-01 1.940E+00 5.353E+00 2.452E+06  6.5896 1.00000
  1.122E+07 1.122E+07 3.428E+00 4.269E-02 1.061E+00 1.099E+00 2.202E+00 5.631E+00 2.674E+06  6.8150 1.00000
  1.259E+07 1.259E+07 3.443E+00 4.864E-02 1.202E+00 1.250E+00 2.501E+00 5.944E+00 2.911E+06  7.0413 1.00000
  1.413E+07 1.413E+07 3.458E+00 5.541E-02 1.361E+00 1.423E+00 2.839E+00 6.297E+00 3.162E+06  7.2685 1.00000
  1.585E+07 1.585E+07 3.473E+00 6.310E-02 1.540E+00 1.619E+00 3.222E+00 6.695E+00 3.427E+06  7.4964 1.00000
  1.778E+07 1.778E+07 3.487E+00 7.183E-02 1.741E+00 1.843E+00 3.657E+00 7.144E+00 3.707E+06  7.7249 1.00000
  1.995E+07 1.995E+07 3.502E+00 8.176E-02 1.969E+00 2.099E+00 4.150E+00 7.651E+00 4.001E+06  7.9540 1.00000
  2.239E+07 2.239E+07 3.516E+00 9.302E-02 2.224E+00 2.391E+00 4.708E+00 8.224E+00 4.308E+06  8.1834 1.00000
  2.512E+07 2.512E+07 3.530E+00 1.058E-01 2.512E+00 2.724E+00 5.342E+00 8.872E+00 4.628E+06  8.4132 1.00000
  2.818E+07 2.819E+07 3.544E+00 1.203E-01 2.836E+00 3.104E+00 6.060E+00 9.604E+00 4.960E+06  8.6432 1.00000
  3.162E+07 3.162E+07 3.558E+00 1.368E-01 3.200E+00 3.537E+00 6.874E+00 1.043E+01 5.304E+06  8.8733 1.00000
  3.548E+07 3.548E+07 3.572E+00 1.555E-01 3.610E+00 4.032E+00 7.797E+00 1.137E+01 5.659E+06  9.1036 1.00000
  3.981E+07 3.981E+07 3.586E+00 1.767E-01 4.070E+00 4.597E+00 8.844E+00 1.243E+01 6.023E+06  9.3338 1.00000
  4.467E+07 4.467E+07 3.600E+00 2.007E-01 4.588E+00 5.241E+00 1.003E+01 1.363E+01 6.397E+06  9.5641 1.00000
  5.012E+07 5.012E+07 3.614E+00 2.279E-01 5.170E+00 5.977E+00 1.137E+01 1.499E+01 6.779E+06  9.7943 1.00000
  5.623E+07 5.624E+07 3.628E+00 2.587E-01 5.824E+00 6.817E+00 1.290E+01 1.653E+01 7.168E+06 10.0246 1.00000
  6.310E+07 6.310E+07 3.642E+00 2.936E-01 6.558E+00 7.776E+00 1.463E+01 1.827E+01 7.563E+06 10.2548 1.00000
  7.079E+07 7.080E+07 3.655E+00 3.331E-01 7.384E+00 8.870E+00 1.659E+01 2.024E+01 7.964E+06 10.4851 1.00000
  7.943E+07 7.943E+07 3.669E+00 3.778E-01 8.311E+00 1.012E+01 1.881E+01 2.248E+01 8.369E+06 10.7153 1.00000
  8.913E+07 8.913E+07 3.683E+00 4.284E-01 9.352E+00 1.155E+01 2.133E+01 2.501E+01 8.779E+06 10.9456 1.00000
  1.000E+08 1.000E+08 3.697E+00 4.857E-01 1.052E+01 1.318E+01 2.419E+01 2.788E+01 9.191E+06 11.1758 1.00000
  1.122E+08 1.122E+08 3.711E+00 5.504E-01 1.184E+01 1.504E+01 2.742E+01 3.114E+01 9.606E+06 11.4061 1.00000
  1.259E+08 1.259E+08 3.725E+00 6.236E-01 1.331E+01 1.717E+01 3.110E+01 3.482E+01 1.002E+07 11.6363 1.00000
  1.413E+08 1.413E+08 3.739E+00 7.063E-01 1.497E+01 1.959E+01 3.527E+01 3.901E+01 1.044E+07 11.8666 1.00000
  1.585E+08 1.585E+08 3.753E+00 7.998E-01 1.682E+01 2.237E+01 3.999E+01 4.375E+01 1.086E+07 12.0969 1.00000
  1.778E+08 1.778E+08 3.768E+00 9.053E-01 1.891E+01 2.554E+01 4.535E+01 4.912E+01 1.128E+07 12.3271 1.00000
  1.995E+08 1.995E+08 3.782E+00 1.025E+00 2.125E+01 2.916E+01 5.143E+01 5.522E+01 1.169E+07 12.5574 1.00000
  2.239E+08 2.239E+08 3.796E+00 1.159E+00 2.388E+01 3.329E+01 5.833E+01 6.213E+01 1.211E+07 12.7876 1.00000
  2.512E+08 2.512E+08 3.810E+00 1.311E+00 2.684E+01 3.801E+01 6.616E+01 6.997E+01 1.252E+07 13.0179 1.00000
  2.818E+08 2.818E+08 3.825E+00 1.483E+00 3.015E+01 4.341E+01 7.504E+01 7.887E+01 1.294E+07 13.2481 1.00000
  3.162E+08 3.162E+08 3.839E+00 1.676E+00 3.387E+01 4.958E+01 8.512E+01 8.896E+01 1.335E+07 13.4784 1.00000
  3.548E+08 3.548E+08 3.854E+00 1.894E+00 3.804E+01 5.663E+01 9.656E+01 1.004E+02 1.376E+07 13.7087 1.00000
  3.981E+08 3.981E+08 3.868E+00 2.140E+00 4.273E+01 6.468E+01 1.095E+02 1.134E+02 1.416E+07 13.9389 1.00000
  4.467E+08 4.467E+08 3.883E+00 2.417E+00 4.799E+01 7.388E+01 1.243E+02 1.282E+02 1.457E+07 14.1692 1.00000
  5.012E+08 5.012E+08 3.898E+00 2.730E+00 5.389E+01 8.440E+01 1.410E+02 1.449E+02 1.497E+07 14.3994 1.00000
  5.623E+08 5.623E+08 3.912E+00 3.082E+00 6.051E+01 9.642E+01 1.600E+02 1.639E+02 1.537E+07 14.6297 1.00000
  6.310E+08 6.310E+08 3.927E+00 3.478E+00 6.794E+01 1.102E+02 1.816E+02 1.855E+02 1.576E+07 14.8599 1.00000
  7.079E+08 7.079E+08 3.942E+00 3.925E+00 7.628E+01 1.259E+02 2.061E+02 2.100E+02 1.615E+07 15.0902 1.00000
  7.943E+08 7.943E+08 3.957E+00 4.428E+00 8.563E+01 1.438E+02 2.339E+02 2.378E+02 1.654E+07 15.3205 1.00000
  8.913E+08 8.913E+08 3.972E+00 4.994E+00 9.613E+01 1.643E+02 2.655E+02 2.694E+02 1.692E+07 15.5507 1.00000
  1.000E+09 1.000E+09 3.987E+00 5.632E+00 1.079E+02 1.878E+02 3.013E+02 3.053E+02 1.730E+07 15.7810 1.00000
  1.122E+09 1.122E+09 4.003E+00 6.349E+00 1.211E+02 2.146E+02 3.421E+02 3.461E+02 1.768E+07 16.0112 1.00000
  1.259E+09 1.259E+09 4.018E+00 7.157E+00 1.360E+02 2.453E+02 3.884E+02 3.924E+02 1.805E+07 16.2415 1.00000
  1.413E+09 1.413E+09 4.033E+00 8.065E+00 1.526E+02 2.804E+02 4.410E+02 4.451E+02 1.842E+07 16.4717 1.00000
  1.585E+09 1.585E+09 4.049E+00 9.086E+00 1.713E+02 3.204E+02 5.008E+02 5.049E+02 1.878E+07 16.7020 1.00000
  1.778E+09 1.778E+09 4.064E+00 1.024E+01 1.923E+02 3.663E+02 5.688E+02 5.729E+02 1.914E+07 16.9323 1.00000
  1.995E+09 1.995E+09 4.080E+00 1.153E+01 2.158E+02 4.187E+02 6.460E+02 6.501E+02 1.950E+07 17.1625 1.00000
  2.239E+09 2.239E+09 4.096E+00 1.298E+01 2.422E+02 4.787E+02 7.338E+02 7.379E+02 1.985E+07 17.3928 1.00000
  2.512E+09 2.512E+09 4.112E+00 1.461E+01 2.718E+02 5.473E+02 8.337E+02 8.378E+02 2.020E+07 17.6230 1.00000
  2.818E+09 2.818E+09 4.127E+00 1.645E+01 3.050E+02 6.257E+02 9.471E+02 9.513E+02 2.054E+07 17.8533 1.00000
  3.162E+09 3.162E+09 4.143E+00 1.851E+01 3.423E+02 7.154E+02 1.076E+03 1.080E+03 2.088E+07 18.0836 1.00000
  3.548E+09 3.548E+09 4.160E+00 2.083E+01 3.841E+02 8.180E+02 1.223E+03 1.227E+03 2.122E+07 18.3138 1.00000
  3.981E+09 3.981E+09 4.176E+00 2.344E+01 4.310E+02 9.354E+02 1.390E+03 1.394E+03 2.155E+07 18.5441 1.00000
  4.467E+09 4.467E+09 4.192E+00 2.636E+01 4.837E+02 1.070E+03 1.580E+03 1.584E+03 2.188E+07 18.7743 1.00000
  5.012E+09 5.012E+09 4.208E+00 2.965E+01 5.428E+02 1.223E+03 1.796E+03 1.800E+03 2.220E+07 19.0046 1.00000
  5.623E+09 5.623E+09 4.225E+00 3.334E+01 6.091E+02 1.399E+03 2.042E+03 2.046E+03 2.252E+07 19.2348 1.00000
  6.310E+09 6.310E+09 4.241E+00 3.749E+01 6.835E+02 1.600E+03 2.321E+03 2.325E+03 2.284E+07 19.4651 1.00000
  7.079E+09 7.079E+09 4.258E+00 4.215E+01 7.669E+02 1.830E+03 2.639E+03 2.644E+03 2.315E+07 19.6954 1.00000
  7.943E+09 7.943E+09 4.275E+00 4.738E+01 8.606E+02 2.094E+03 3.002E+03 3.006E+03 2.346E+07 19.9256 1.00000
  8.913E+09 8.913E+09 4.292E+00 5.326E+01 9.656E+02 2.395E+03 3.414E+03 3.418E+03 2.376E+07 20.1559 1.00000
  1.000E+10 1.000E+10 4.309E+00 5.986E+01 1.084E+03 2.740E+03 3.883E+03 3.888E+03 2.406E+07 20.3861 1.00000
  1.122E+10 1.122E+10 4.326E+00 6.727E+01 1.216E+03 3.135E+03 4.418E+03 4.422E+03 2.435E+07 20.6164 1.00000
  1.259E+10 1.259E+10 4.343E+00 7.559E+01 1.364E+03 3.586E+03 5.026E+03 5.031E+03 2.464E+07 20.8467 1.00000
  1.413E+10 1.413E+10 4.360E+00 8.492E+01 1.531E+03 4.103E+03 5.719E+03 5.723E+03 2.493E+07 21.0769 1.00000
  1.585E+10 1.585E+10 4.377E+00 9.541E+01 1.718E+03 4.695E+03 6.508E+03 6.513E+03 2.521E+07 21.3072 1.00000
  1.778E+10 1.778E+10 4.395E+00 1.072E+02 1.927E+03 5.373E+03 7.407E+03 7.412E+03 2.549E+07 21.5374 1.00000
  1.995E+10 1.995E+10 4.412E+00 1.204E+02 2.162E+03 6.148E+03 8.431E+03 8.435E+03 2.577E+07 21.7677 1.00000
  2.239E+10 2.239E+10 4.430E+00 1.352E+02 2.426E+03 7.036E+03 9.598E+03 9.602E+03 2.604E+07 21.9980 1.00000
  2.512E+10 2.512E+10 4.447E+00 1.519E+02 2.722E+03 8.053E+03 1.093E+04 1.093E+04 2.630E+07 22.2282 1.00000
  2.818E+10 2.818E+10 4.465E+00 1.706E+02 3.055E+03 9.216E+03 1.244E+04 1.245E+04 2.657E+07 22.4585 1.00000
  3.162E+10 3.162E+10 4.483E+00 1.915E+02 3.427E+03 1.055E+04 1.417E+04 1.417E+04 2.683E+07 22.6887 1.00000
  3.548E+10 3.548E+10 4.501E+00 2.151E+02 3.846E+03 1.207E+04 1.614E+04 1.614E+04 2.708E+07 22.9190 1.00000
  3.981E+10 3.981E+10 4.519E+00 2.415E+02 4.315E+03 1.382E+04 1.838E+04 1.838E+04 2.734E+07 23.1492 1.00000
  4.467E+10 4.467E+10 4.538E+00 2.711E+02 4.841E+03 1.582E+04 2.094E+04 2.094E+04 2.758E+07 23.3795 1.00000
  5.012E+10 5.012E+10 4.556E+00 3.044E+02 5.432E+03 1.811E+04 2.385E+04 2.386E+04 2.783E+07 23.6098 1.00000
  5.623E+10 5.623E+10 4.574E+00 3.417E+02 6.095E+03 2.074E+04 2.718E+04 2.718E+04 2.807E+07 23.8400 1.00000
  6.310E+10 6.310E+10 4.593E+00 3.836E+02 6.838E+03 2.375E+04 3.097E+04 3.097E+04 2.831E+07 24.0703 1.00000
  7.079E+10 7.079E+10 4.611E+00 4.306E+02 7.672E+03 2.719E+04 3.529E+04 3.530E+04 2.854E+07 24.3005 1.00000
  7.943E+10 7.943E+10 4.630E+00 4.834E+02 8.609E+03 3.113E+04 4.022E+04 4.023E+04 2.877E+07 24.5308 1.00000
  8.913E+10 8.913E+10 4.649E+00 5.426E+02 9.659E+03 3.565E+04 4.585E+04 4.586E+04 2.899E+07 24.7611 1.00000
  1.000E+11 1.000E+11 4.668E+00 6.091E+02 1.084E+04 4.083E+04 5.227E+04 5.228E+04 2.922E+07 24.9913 1.00000
  1.122E+11 1.122E+11 4.687E+00 6.836E+02 1.216E+04 4.676E+04 5.960E+04 5.960E+04 2.944E+07 25.2216 1.00000
  1.259E+11 1.259E+11 4.706E+00 7.673E+02 1.364E+04 5.355E+04 6.796E+04 6.797E+04 2.965E+07 25.4518 1.00000
  1.413E+11 1.413E+11 4.725E+00 8.612E+02 1.531E+04 6.134E+04 7.750E+04 7.751E+04 2.986E+07 25.6821 1.00000
  1.585E+11 1.585E+11 4.745E+00 9.665E+02 1.717E+04 7.025E+04 8.840E+04 8.840E+04 3.007E+07 25.9123 1.00000
  1.778E+11 1.778E+11 4.764E+00 1.085E+03 1.927E+04 8.048E+04 1.008E+05 1.008E+05 3.028E+07 26.1426 1.00000
  1.995E+11 1.995E+11 4.784E+00 1.217E+03 2.162E+04 9.219E+04 1.150E+05 1.150E+05 3.048E+07 26.3729 1.00000
  2.239E+11 2.239E+11 4.804E+00 1.366E+03 2.426E+04 1.056E+05 1.312E+05 1.312E+05 3.068E+07 26.6031 1.00000
  2.512E+11 2.512E+11 4.823E+00 1.533E+03 2.722E+04 1.210E+05 1.497E+05 1.497E+05 3.087E+07 26.8334 1.00000
  2.818E+11 2.818E+11 4.843E+00 1.721E+03 3.054E+04 1.386E+05 1.709E+05 1.709E+05 3.107E+07 27.0636 1.00000
  3.162E+11 3.162E+11 4.863E+00 1.931E+03 3.426E+04 1.588E+05 1.950E+05 1.950E+05 3.125E+07 27.2939 1.00000
  3.548E+11 3.548E+11 4.883E+00 2.167E+03 3.844E+04 1.820E+05 2.226E+05 2.226E+05 3.144E+07 27.5242 1.00000
  3.981E+11 3.981E+11 4.904E+00 2.431E+03 4.313E+04 2.086E+05 2.541E+05 2.541E+05 3.162E+07 27.7544 1.00000
  4.467E+11 4.467E+11 4.924E+00 2.728E+03 4.839E+04 2.390E+05 2.901E+05 2.901E+05 3.180E+07 27.9847 1.00000
  5.012E+11 5.012E+11 4.945E+00 3.062E+03 5.429E+04 2.739E+05 3.312E+05 3.313E+05 3.198E+07 28.2149 1.00000
  5.623E+11 5.623E+11 4.965E+00 3.436E+03 6.092E+04 3.139E+05 3.783E+05 3.783E+05 3.215E+07 28.4452 1.00000
  6.310E+11 6.310E+11 4.986E+00 3.855E+03 6.835E+04 3.598E+05 4.320E+05 4.320E+05 3.232E+07 28.6754 1.00000
  7.079E+11 7.079E+11 5.007E+00 4.326E+03 7.669E+04 4.124E+05 4.934E+05 4.934E+05 3.249E+07 28.9057 1.00000
  7.943E+11 7.943E+11 5.028E+00 4.854E+03 8.604E+04 4.727E+05 5.636E+05 5.636E+05 3.265E+07 29.1360 1.00000
  8.913E+11 8.913E+11 5.049E+00 5.447E+03 9.653E+04 5.418E+05 6.438E+05 6.438E+05 3.281E+07 29.3662 1.00000
  1.000E+12 1.000E+12 5.070E+00 6.112E+03 1.083E+05 6.211E+05 7.356E+05 7.356E+05 3.297E+07 29.5965 1.00000
  1.122E+12 1.122E+12 5.091E+00 6.858E+03 1.215E+05 7.121E+05 8.405E+05 8.405E+05 3.313E+07 29.8267 1.00000
  1.259E+12 1.259E+12 5.113E+00 7.695E+03 1.363E+05 8.164E+05 9.604E+05 9.604E+05 3.328E+07 30.0570 1.00000
  1.413E+12 1.413E+12 5.134E+00 8.635E+03 1.530E+05 9.360E+05 1.098E+06 1.098E+06 3.343E+07 30.2873 1.00000
  1.585E+12 1.585E+12 5.156E+00 9.689E+03 1.716E+05 1.073E+06 1.255E+06 1.255E+06 3.358E+07 30.5175 1.00000
  1.778E+12 1.778E+12 5.178E+00 1.087E+04 1.926E+05 1.231E+06 1.434E+06 1.434E+06 3.372E+07 30.7478 1.00000
  1.995E+12 1.995E+12 5.200E+00 1.220E+04 2.161E+05 1.411E+06 1.639E+06 1.640E+06 3.386E+07 30.9780 1.00000
  2.239E+12 2.239E+12 5.222E+00 1.369E+04 2.424E+05 1.618E+06 1.874E+06 1.874E+06 3.400E+07 31.2083 1.00000
  2.512E+12 2.512E+12 5.244E+00 1.536E+04 2.720E+05 1.856E+06 2.143E+06 2.143E+06 3.414E+07 31.4385 1.00000
  2.818E+12 2.818E+12 5.266E+00 1.723E+04 3.051E+05 2.129E+06 2.451E+06 2.451E+06 3.427E+07 31.6688 1.00000
  3.162E+12 3.162E+12 5.288E+00 1.933E+04 3.424E+05 2.441E+06 2.803E+06 2.803E+06 3.441E+07 31.8991 1.00000
  3.548E+12 3.548E+12 5.311E+00 2.169E+04 3.841E+05 2.800E+06 3.206E+06 3.206E+06 3.453E+07 32.1293 1.00000
  3.981E+12 3.981E+12 5.334E+00 2.434E+04 4.310E+05 3.212E+06 3.668E+06 3.668E+06 3.466E+07 32.3596 1.00000
  4.467E+12 4.467E+12 5.356E+00 2.731E+04 4.835E+05 3.685E+06 4.196E+06 4.196E+06 3.478E+07 32.5898 1.00000
  5.012E+12 5.012E+12 5.379E+00 3.065E+04 5.425E+05 4.227E+06 4.800E+06 4.800E+06 3.491E+07 32.8201 1.00000
  5.623E+12 5.623E+12 5.402E+00 3.439E+04 6.087E+05 4.850E+06 5.493E+06 5.493E+06 3.503E+07 33.0504 1.00000
  6.310E+12 6.310E+12 5.425E+00 3.858E+04 6.829E+05 5.564E+06 6.285E+06 6.285E+06 3.514E+07 33.2806 1.00000
  7.079E+12 7.079E+12 5.449E+00 4.329E+04 7.662E+05 6.384E+06 7.193E+06 7.193E+06 3.526E+07 33.5109 1.00000
  7.943E+12 7.943E+12 5.472E+00 4.857E+04 8.597E+05 7.325E+06 8.233E+06 8.233E+06 3.537E+07 33.7411 1.00000
  8.913E+12 8.913E+12 5.496E+00 5.450E+04 9.645E+05 8.405E+06 9.424E+06 9.424E+06 3.548E+07 33.9714 1.00000
  1.000E+13 1.000E+13 5.519E+00 6.115E+04 1.082E+06 9.645E+06 1.079E+07 1.079E+07 3.559E+07 34.2017 1.00000
  1.122E+13 1.122E+13 5.543E+00 6.861E+04 1.214E+06 1.107E+07 1.235E+07 1.235E+07 3.569E+07 34.4319 1.00000
  1.259E+13 1.259E+13 5.567E+00 7.698E+04 1.362E+06 1.270E+07 1.414E+07 1.414E+07 3.580E+07 34.6622 1.00000
  1.413E+13 1.413E+13 5.591E+00 8.638E+04 1.528E+06 1.458E+07 1.619E+07 1.619E+07 3.590E+07 34.8924 1.00000
  1.585E+13 1.585E+13 5.615E+00 9.692E+04 1.715E+06 1.673E+07 1.854E+07 1.854E+07 3.600E+07 35.1227 1.00000
  1.778E+13 1.778E+13 5.639E+00 1.087E+05 1.924E+06 1.920E+07 2.124E+07 2.124E+07 3.610E+07 35.3529 1.00000
  1.995E+13 1.995E+13 5.664E+00 1.220E+05 2.159E+06 2.204E+07 2.432E+07 2.432E+07 3.619E+07 35.5832 1.00000
  2.239E+13 2.239E+13 5.688E+00 1.369E+05 2.422E+06 2.530E+07 2.786E+07 2.786E+07 3.629E+07 35.8135 1.00000
  2.512E+13 2.512E+13 5.713E+00 1.536E+05 2.717E+06 2.905E+07 3.192E+07 3.192E+07 3.638E+07 36.0437 1.00000
  2.818E+13 2.818E+13 5.738E+00 1.723E+05 3.049E+06 3.335E+07 3.657E+07 3.657E+07 3.647E+07 36.2740 1.00000
  3.162E+13 3.162E+13 5.763E+00 1.934E+05 3.420E+06 3.829E+07 4.190E+07 4.190E+07 3.656E+07 36.5042 1.00000
  3.548E+13 3.548E+13 5.788E+00 2.170E+05 3.837E+06 4.396E+07 4.801E+07 4.801E+07 3.664E+07 36.7345 1.00000
  3.981E+13 3.981E+13 5.813E+00 2.435E+05 4.305E+06 5.047E+07 5.502E+07 5.502E+07 3.673E+07 36.9648 1.00000
  4.467E+13 4.467E+13 5.839E+00 2.732E+05 4.831E+06 5.795E+07 6.306E+07 6.306E+07 3.681E+07 37.1950 1.00000
  5.012E+13 5.012E+13 5.864E+00 3.065E+05 5.420E+06 6.655E+07 7.227E+07 7.227E+07 3.689E+07 37.4253 1.00000
  5.623E+13 5.623E+13 5.890E+00 3.439E+05 6.081E+06 7.642E+07 8.284E+07 8.284E+07 3.697E+07 37.6555 1.00000
  6.310E+13 6.310E+13 5.915E+00 3.858E+05 6.822E+06 8.776E+07 9.496E+07 9.496E+07 3.705E+07 37.8858 1.00000
  7.079E+13 7.079E+13 5.941E+00 4.329E+05 7.654E+06 1.008E+08 1.089E+08 1.089E+08 3.712E+07 38.1160 1.00000
  7.943E+13 7.943E+13 5.967E+00 4.858E+05 8.588E+06 1.158E+08 1.248E+08 1.248E+08 3.720E+07 38.3463 1.00000
  8.913E+13 8.913E+13 5.994E+00 5.450E+05 9.635E+06 1.329E+08 1.431E+08 1.431E+08 3.727E+07 38.5766 1.00000
