 Incident particle is a Tau with M = 1776.82000 MeV
 Index = 0: Palladium
      Absorber with <Z/A> = 0.43225
 Sternheimer coef:  a     k=m_s   x_0    x_1    I[eV]   Cbar  delta0
                 0.2418  2.7239  0.0563  3.0555  470.0  4.9358 0.14

 *** Table generated with PUMAS v1.00 ***

      T         p     Ionization  brems     pair     photonuc  Radloss    dE/dx   CSDA Range  delta   beta
    [MeV]    [MeV/c]  -----------------------[MeV cm^2/g]------------------------  [g/cm^2]
  1.000E+05 1.018E+05 1.729E+00 6.749E-04 1.152E-02 7.724E-03 1.992E-02 1.749E+00 2.859E+04  3.6514 0.99985
  1.122E+05 1.140E+05 1.748E+00 7.818E-04 1.380E-02 8.681E-03 2.326E-02 1.771E+00 3.553E+04  3.8288 0.99988
  1.259E+05 1.277E+05 1.766E+00 9.052E-04 1.648E-02 9.705E-03 2.709E-02 1.793E+00 4.321E+04  4.0097 0.99990
  1.413E+05 1.430E+05 1.785E+00 1.048E-03 1.964E-02 1.085E-02 3.154E-02 1.816E+00 5.172E+04  4.1941 0.99992
  1.585E+05 1.603E+05 1.803E+00 1.212E-03 2.333E-02 1.213E-02 3.667E-02 1.840E+00 6.115E+04  4.3818 0.99994
  1.778E+05 1.796E+05 1.821E+00 1.400E-03 2.765E-02 1.355E-02 4.261E-02 1.864E+00 7.160E+04  4.5727 0.99995
  1.995E+05 2.013E+05 1.839E+00 1.618E-03 3.270E-02 1.517E-02 4.948E-02 1.888E+00 8.316E+04  4.7668 0.99996
  2.239E+05 2.256E+05 1.857E+00 1.868E-03 3.858E-02 1.692E-02 5.737E-02 1.914E+00 9.597E+04  4.9638 0.99997
  2.512E+05 2.530E+05 1.874E+00 2.156E-03 4.541E-02 1.888E-02 6.645E-02 1.941E+00 1.101E+05  5.1636 0.99998
  2.818E+05 2.836E+05 1.892E+00 2.486E-03 5.334E-02 2.108E-02 7.691E-02 1.969E+00 1.258E+05  5.3663 0.99998
  3.162E+05 3.180E+05 1.909E+00 2.866E-03 6.253E-02 2.355E-02 8.895E-02 1.998E+00 1.432E+05  5.5715 0.99998
  3.548E+05 3.566E+05 1.926E+00 3.302E-03 7.317E-02 2.632E-02 1.028E-01 2.029E+00 1.623E+05  5.7793 0.99999
  3.981E+05 3.999E+05 1.943E+00 3.802E-03 8.544E-02 2.940E-02 1.186E-01 2.062E+00 1.835E+05  5.9895 0.99999
  4.467E+05 4.485E+05 1.960E+00 4.376E-03 9.960E-02 3.284E-02 1.368E-01 2.097E+00 2.069E+05  6.2020 0.99999
  5.012E+05 5.030E+05 1.977E+00 5.033E-03 1.159E-01 3.670E-02 1.576E-01 2.134E+00 2.326E+05  6.4167 0.99999
  5.623E+05 5.641E+05 1.993E+00 5.787E-03 1.347E-01 4.086E-02 1.813E-01 2.174E+00 2.610E+05  6.6334 1.00000
  6.310E+05 6.327E+05 2.009E+00 6.651E-03 1.562E-01 4.554E-02 2.084E-01 2.218E+00 2.923E+05  6.8520 1.00000
  7.079E+05 7.097E+05 2.026E+00 7.640E-03 1.809E-01 5.080E-02 2.393E-01 2.265E+00 3.266E+05  7.0724 1.00000
  7.943E+05 7.961E+05 2.042E+00 8.771E-03 2.092E-01 5.673E-02 2.747E-01 2.316E+00 3.643E+05  7.2945 1.00000
  8.913E+05 8.930E+05 2.057E+00 1.007E-02 2.416E-01 6.342E-02 3.151E-01 2.372E+00 4.057E+05  7.5181 1.00000
  1.000E+06 1.002E+06 2.073E+00 1.155E-02 2.786E-01 7.097E-02 3.611E-01 2.434E+00 4.509E+05  7.7431 1.00000
  1.122E+06 1.124E+06 2.089E+00 1.324E-02 3.208E-01 7.951E-02 4.136E-01 2.502E+00 5.004E+05  7.9693 1.00000
  1.259E+06 1.261E+06 2.104E+00 1.517E-02 3.690E-01 8.915E-02 4.734E-01 2.577E+00 5.543E+05  8.1966 1.00000
  1.413E+06 1.414E+06 2.119E+00 1.739E-02 4.239E-01 1.001E-01 5.414E-01 2.660E+00 6.130E+05  8.4248 1.00000
  1.585E+06 1.587E+06 2.134E+00 1.991E-02 4.864E-01 1.124E-01 6.187E-01 2.753E+00 6.767E+05  8.6539 1.00000
  1.778E+06 1.780E+06 2.149E+00 2.279E-02 5.574E-01 1.264E-01 7.067E-01 2.856E+00 7.457E+05  8.8834 1.00000
  1.995E+06 1.997E+06 2.164E+00 2.608E-02 6.381E-01 1.423E-01 8.065E-01 2.970E+00 8.202E+05  9.1134 1.00000
  2.239E+06 2.240E+06 2.178E+00 2.983E-02 7.298E-01 1.604E-01 9.199E-01 3.098E+00 9.004E+05  9.3435 1.00000
  2.512E+06 2.514E+06 2.193E+00 3.411E-02 8.337E-01 1.808E-01 1.049E+00 3.242E+00 9.867E+05  9.5735 1.00000
  2.818E+06 2.820E+06 2.207E+00 3.899E-02 9.514E-01 2.040E-01 1.194E+00 3.402E+00 1.079E+06  9.8036 1.00000
  3.162E+06 3.164E+06 2.222E+00 4.455E-02 1.085E+00 2.304E-01 1.360E+00 3.581E+00 1.178E+06 10.0338 1.00000
  3.548E+06 3.550E+06 2.236E+00 5.088E-02 1.236E+00 2.605E-01 1.547E+00 3.783E+00 1.282E+06 10.2639 1.00000
  3.981E+06 3.983E+06 2.250E+00 5.809E-02 1.406E+00 2.946E-01 1.759E+00 4.009E+00 1.394E+06 10.4941 1.00000
  4.467E+06 4.469E+06 2.264E+00 6.631E-02 1.599E+00 3.334E-01 1.999E+00 4.263E+00 1.511E+06 10.7242 1.00000
  5.012E+06 5.014E+06 2.277E+00 7.565E-02 1.817E+00 3.776E-01 2.270E+00 4.548E+00 1.635E+06 10.9544 1.00000
  5.623E+06 5.625E+06 2.291E+00 8.629E-02 2.063E+00 4.278E-01 2.577E+00 4.868E+00 1.765E+06 11.1846 1.00000
  6.310E+06 6.311E+06 2.304E+00 9.839E-02 2.341E+00 4.851E-01 2.924E+00 5.229E+00 1.901E+06 11.4148 1.00000
  7.079E+06 7.081E+06 2.318E+00 1.121E-01 2.654E+00 5.502E-01 3.317E+00 5.634E+00 2.043E+06 11.6450 1.00000
  7.943E+06 7.945E+06 2.331E+00 1.278E-01 3.007E+00 6.245E-01 3.760E+00 6.091E+00 2.191E+06 11.8752 1.00000
  8.913E+06 8.914E+06 2.344E+00 1.456E-01 3.405E+00 7.091E-01 4.260E+00 6.604E+00 2.344E+06 12.1054 1.00000
  1.000E+07 1.000E+07 2.357E+00 1.657E-01 3.854E+00 8.055E-01 4.825E+00 7.182E+00 2.502E+06 12.3356 1.00000
  1.122E+07 1.122E+07 2.370E+00 1.887E-01 4.359E+00 9.153E-01 5.463E+00 7.832E+00 2.665E+06 12.5658 1.00000
  1.259E+07 1.259E+07 2.382E+00 2.147E-01 4.927E+00 1.041E+00 6.183E+00 8.565E+00 2.832E+06 12.7960 1.00000
  1.413E+07 1.413E+07 2.395E+00 2.442E-01 5.567E+00 1.183E+00 6.995E+00 9.390E+00 3.003E+06 13.0263 1.00000
  1.585E+07 1.585E+07 2.408E+00 2.778E-01 6.287E+00 1.346E+00 7.911E+00 1.032E+01 3.179E+06 13.2565 1.00000
  1.778E+07 1.778E+07 2.420E+00 3.158E-01 7.097E+00 1.532E+00 8.945E+00 1.136E+01 3.357E+06 13.4867 1.00000
  1.995E+07 1.995E+07 2.432E+00 3.589E-01 8.008E+00 1.744E+00 1.011E+01 1.254E+01 3.539E+06 13.7170 1.00000
  2.239E+07 2.239E+07 2.445E+00 4.078E-01 9.033E+00 1.985E+00 1.143E+01 1.387E+01 3.724E+06 13.9472 1.00000
  2.512E+07 2.512E+07 2.457E+00 4.631E-01 1.018E+01 2.261E+00 1.291E+01 1.536E+01 3.912E+06 14.1774 1.00000
  2.818E+07 2.819E+07 2.469E+00 5.259E-01 1.148E+01 2.575E+00 1.458E+01 1.705E+01 4.101E+06 14.4077 1.00000
  3.162E+07 3.162E+07 2.481E+00 5.969E-01 1.293E+01 2.934E+00 1.646E+01 1.895E+01 4.293E+06 14.6379 1.00000
  3.548E+07 3.548E+07 2.493E+00 6.773E-01 1.457E+01 3.344E+00 1.859E+01 2.108E+01 4.486E+06 14.8682 1.00000
  3.981E+07 3.981E+07 2.505E+00 7.683E-01 1.640E+01 3.811E+00 2.098E+01 2.349E+01 4.681E+06 15.0984 1.00000
  4.467E+07 4.467E+07 2.517E+00 8.713E-01 1.847E+01 4.344E+00 2.368E+01 2.620E+01 4.877E+06 15.3287 1.00000
  5.012E+07 5.012E+07 2.529E+00 9.878E-01 2.079E+01 4.953E+00 2.673E+01 2.926E+01 5.074E+06 15.5589 1.00000
  5.623E+07 5.624E+07 2.541E+00 1.119E+00 2.339E+01 5.648E+00 3.016E+01 3.270E+01 5.272E+06 15.7892 1.00000
  6.310E+07 6.310E+07 2.553E+00 1.268E+00 2.631E+01 6.442E+00 3.402E+01 3.657E+01 5.471E+06 16.0194 1.00000
  7.079E+07 7.080E+07 2.565E+00 1.437E+00 2.959E+01 7.348E+00 3.838E+01 4.094E+01 5.670E+06 16.2497 1.00000
  7.943E+07 7.943E+07 2.577E+00 1.627E+00 3.328E+01 8.382E+00 4.329E+01 4.587E+01 5.870E+06 16.4799 1.00000
  8.913E+07 8.913E+07 2.589E+00 1.841E+00 3.742E+01 9.563E+00 4.882E+01 5.141E+01 6.070E+06 16.7102 1.00000
  1.000E+08 1.000E+08 2.601E+00 2.083E+00 4.206E+01 1.091E+01 5.506E+01 5.766E+01 6.270E+06 16.9404 1.00000
  1.122E+08 1.122E+08 2.613E+00 2.357E+00 4.728E+01 1.245E+01 6.209E+01 6.470E+01 6.470E+06 17.1707 1.00000
  1.259E+08 1.259E+08 2.625E+00 2.666E+00 5.313E+01 1.421E+01 7.001E+01 7.264E+01 6.670E+06 17.4009 1.00000
  1.413E+08 1.413E+08 2.638E+00 3.014E+00 5.971E+01 1.622E+01 7.894E+01 8.158E+01 6.870E+06 17.6312 1.00000
  1.585E+08 1.585E+08 2.650E+00 3.406E+00 6.708E+01 1.852E+01 8.901E+01 9.166E+01 7.070E+06 17.8615 1.00000
  1.778E+08 1.778E+08 2.662E+00 3.849E+00 7.537E+01 2.114E+01 1.004E+02 1.030E+02 7.269E+06 18.0917 1.00000
  1.995E+08 1.995E+08 2.674E+00 4.348E+00 8.466E+01 2.413E+01 1.131E+02 1.158E+02 7.468E+06 18.3220 1.00000
  2.239E+08 2.239E+08 2.687E+00 4.910E+00 9.509E+01 2.755E+01 1.276E+02 1.302E+02 7.667E+06 18.5522 1.00000
  2.512E+08 2.512E+08 2.699E+00 5.544E+00 1.068E+02 3.146E+01 1.438E+02 1.465E+02 7.865E+06 18.7825 1.00000
  2.818E+08 2.818E+08 2.711E+00 6.258E+00 1.199E+02 3.593E+01 1.621E+02 1.648E+02 8.062E+06 19.0127 1.00000
  3.162E+08 3.162E+08 2.724E+00 7.061E+00 1.347E+02 4.103E+01 1.828E+02 1.855E+02 8.259E+06 19.2430 1.00000
  3.548E+08 3.548E+08 2.736E+00 7.966E+00 1.512E+02 4.686E+01 2.061E+02 2.088E+02 8.456E+06 19.4733 1.00000
  3.981E+08 3.981E+08 2.749E+00 8.985E+00 1.698E+02 5.353E+01 2.323E+02 2.351E+02 8.651E+06 19.7035 1.00000
  4.467E+08 4.467E+08 2.762E+00 1.013E+01 1.906E+02 6.114E+01 2.619E+02 2.647E+02 8.846E+06 19.9338 1.00000
  5.012E+08 5.012E+08 2.774E+00 1.142E+01 2.140E+02 6.984E+01 2.953E+02 2.981E+02 9.041E+06 20.1640 1.00000
  5.623E+08 5.623E+08 2.787E+00 1.287E+01 2.403E+02 7.979E+01 3.329E+02 3.357E+02 9.235E+06 20.3943 1.00000
  6.310E+08 6.310E+08 2.800E+00 1.451E+01 2.697E+02 9.116E+01 3.754E+02 3.782E+02 9.427E+06 20.6245 1.00000
  7.079E+08 7.079E+08 2.813E+00 1.634E+01 3.027E+02 1.042E+02 4.232E+02 4.260E+02 9.620E+06 20.8548 1.00000
  7.943E+08 7.943E+08 2.826E+00 1.841E+01 3.398E+02 1.190E+02 4.772E+02 4.801E+02 9.811E+06 21.0851 1.00000
  8.913E+08 8.913E+08 2.839E+00 2.073E+01 3.814E+02 1.360E+02 5.381E+02 5.410E+02 1.000E+07 21.3153 1.00000
  1.000E+09 1.000E+09 2.852E+00 2.334E+01 4.281E+02 1.554E+02 6.068E+02 6.097E+02 1.019E+07 21.5456 1.00000
  1.122E+09 1.122E+09 2.865E+00 2.627E+01 4.805E+02 1.776E+02 6.843E+02 6.872E+02 1.038E+07 21.7758 1.00000
  1.259E+09 1.259E+09 2.878E+00 2.956E+01 5.393E+02 2.030E+02 7.718E+02 7.747E+02 1.057E+07 22.0061 1.00000
  1.413E+09 1.413E+09 2.892E+00 3.327E+01 6.052E+02 2.320E+02 8.704E+02 8.733E+02 1.076E+07 22.2363 1.00000
  1.585E+09 1.585E+09 2.905E+00 3.743E+01 6.792E+02 2.651E+02 9.818E+02 9.847E+02 1.094E+07 22.4666 1.00000
  1.778E+09 1.778E+09 2.919E+00 4.210E+01 7.622E+02 3.031E+02 1.107E+03 1.110E+03 1.113E+07 22.6969 1.00000
  1.995E+09 1.995E+09 2.932E+00 4.736E+01 8.554E+02 3.465E+02 1.249E+03 1.252E+03 1.131E+07 22.9271 1.00000
  2.239E+09 2.239E+09 2.946E+00 5.326E+01 9.599E+02 3.961E+02 1.409E+03 1.412E+03 1.149E+07 23.1574 1.00000
  2.512E+09 2.512E+09 2.959E+00 5.988E+01 1.077E+03 4.528E+02 1.590E+03 1.593E+03 1.168E+07 23.3876 1.00000
  2.818E+09 2.818E+09 2.973E+00 6.732E+01 1.209E+03 5.177E+02 1.794E+03 1.797E+03 1.186E+07 23.6179 1.00000
  3.162E+09 3.162E+09 2.987E+00 7.568E+01 1.356E+03 5.919E+02 2.024E+03 2.027E+03 1.204E+07 23.8482 1.00000
  3.548E+09 3.548E+09 3.001E+00 8.506E+01 1.522E+03 6.768E+02 2.284E+03 2.287E+03 1.222E+07 24.0784 1.00000
  3.981E+09 3.981E+09 3.015E+00 9.559E+01 1.708E+03 7.740E+02 2.578E+03 2.581E+03 1.240E+07 24.3087 1.00000
  4.467E+09 4.467E+09 3.029E+00 1.074E+02 1.917E+03 8.851E+02 2.909E+03 2.912E+03 1.257E+07 24.5389 1.00000
  5.012E+09 5.012E+09 3.043E+00 1.207E+02 2.151E+03 1.012E+03 3.284E+03 3.287E+03 1.275E+07 24.7692 1.00000
  5.623E+09 5.623E+09 3.057E+00 1.356E+02 2.413E+03 1.158E+03 3.707E+03 3.710E+03 1.293E+07 24.9994 1.00000
  6.310E+09 6.310E+09 3.072E+00 1.523E+02 2.708E+03 1.324E+03 4.184E+03 4.187E+03 1.310E+07 25.2297 1.00000
  7.079E+09 7.079E+09 3.086E+00 1.711E+02 3.038E+03 1.514E+03 4.724E+03 4.727E+03 1.327E+07 25.4600 1.00000
  7.943E+09 7.943E+09 3.101E+00 1.922E+02 3.409E+03 1.732E+03 5.334E+03 5.337E+03 1.345E+07 25.6902 1.00000
  8.913E+09 8.913E+09 3.115E+00 2.159E+02 3.826E+03 1.982E+03 6.023E+03 6.026E+03 1.362E+07 25.9205 1.00000
  1.000E+10 1.000E+10 3.130E+00 2.424E+02 4.292E+03 2.267E+03 6.802E+03 6.805E+03 1.379E+07 26.1507 1.00000
  1.122E+10 1.122E+10 3.144E+00 2.723E+02 4.816E+03 2.594E+03 7.682E+03 7.685E+03 1.396E+07 26.3810 1.00000
  1.259E+10 1.259E+10 3.159E+00 3.057E+02 5.404E+03 2.967E+03 8.677E+03 8.680E+03 1.412E+07 26.6113 1.00000
  1.413E+10 1.413E+10 3.174E+00 3.433E+02 6.064E+03 3.395E+03 9.802E+03 9.805E+03 1.429E+07 26.8415 1.00000
  1.585E+10 1.585E+10 3.189E+00 3.854E+02 6.804E+03 3.885E+03 1.107E+04 1.108E+04 1.446E+07 27.0718 1.00000
  1.778E+10 1.778E+10 3.204E+00 4.327E+02 7.634E+03 4.445E+03 1.251E+04 1.252E+04 1.462E+07 27.3020 1.00000
  1.995E+10 1.995E+10 3.219E+00 4.858E+02 8.565E+03 5.087E+03 1.414E+04 1.414E+04 1.479E+07 27.5323 1.00000
  2.239E+10 2.239E+10 3.235E+00 5.454E+02 9.611E+03 5.822E+03 1.598E+04 1.598E+04 1.495E+07 27.7626 1.00000
  2.512E+10 2.512E+10 3.250E+00 6.122E+02 1.078E+04 6.663E+03 1.806E+04 1.806E+04 1.511E+07 27.9928 1.00000
  2.818E+10 2.818E+10 3.265E+00 6.872E+02 1.210E+04 7.626E+03 2.041E+04 2.042E+04 1.527E+07 28.2231 1.00000
  3.162E+10 3.162E+10 3.281E+00 7.714E+02 1.358E+04 8.728E+03 2.307E+04 2.308E+04 1.543E+07 28.4533 1.00000
  3.548E+10 3.548E+10 3.296E+00 8.658E+02 1.523E+04 9.991E+03 2.609E+04 2.609E+04 1.558E+07 28.6836 1.00000
  3.981E+10 3.981E+10 3.312E+00 9.718E+02 1.709E+04 1.144E+04 2.950E+04 2.950E+04 1.574E+07 28.9138 1.00000
  4.467E+10 4.467E+10 3.328E+00 1.091E+03 1.918E+04 1.309E+04 3.336E+04 3.336E+04 1.590E+07 29.1441 1.00000
  5.012E+10 5.012E+10 3.344E+00 1.224E+03 2.151E+04 1.499E+04 3.773E+04 3.773E+04 1.605E+07 29.3744 1.00000
  5.623E+10 5.623E+10 3.359E+00 1.374E+03 2.414E+04 1.716E+04 4.267E+04 4.268E+04 1.620E+07 29.6046 1.00000
  6.310E+10 6.310E+10 3.375E+00 1.542E+03 2.708E+04 1.965E+04 4.827E+04 4.828E+04 1.635E+07 29.8349 1.00000
  7.079E+10 7.079E+10 3.392E+00 1.731E+03 3.039E+04 2.250E+04 5.461E+04 5.462E+04 1.650E+07 30.0651 1.00000
  7.943E+10 7.943E+10 3.408E+00 1.942E+03 3.410E+04 2.576E+04 6.180E+04 6.180E+04 1.665E+07 30.2954 1.00000
  8.913E+10 8.913E+10 3.424E+00 2.180E+03 3.826E+04 2.950E+04 6.993E+04 6.994E+04 1.680E+07 30.5257 1.00000
  1.000E+11 1.000E+11 3.440E+00 2.446E+03 4.292E+04 3.378E+04 7.915E+04 7.915E+04 1.695E+07 30.7559 1.00000
  1.122E+11 1.122E+11 3.457E+00 2.745E+03 4.816E+04 3.869E+04 8.959E+04 8.959E+04 1.709E+07 30.9862 1.00000
  1.259E+11 1.259E+11 3.473E+00 3.080E+03 5.403E+04 4.431E+04 1.014E+05 1.014E+05 1.724E+07 31.2164 1.00000
  1.413E+11 1.413E+11 3.490E+00 3.456E+03 6.063E+04 5.075E+04 1.148E+05 1.148E+05 1.738E+07 31.4467 1.00000
  1.585E+11 1.585E+11 3.507E+00 3.879E+03 6.802E+04 5.813E+04 1.300E+05 1.300E+05 1.752E+07 31.6769 1.00000
  1.778E+11 1.778E+11 3.524E+00 4.352E+03 7.632E+04 6.658E+04 1.473E+05 1.473E+05 1.766E+07 31.9072 1.00000
  1.995E+11 1.995E+11 3.541E+00 4.884E+03 8.563E+04 7.628E+04 1.668E+05 1.668E+05 1.780E+07 32.1375 1.00000
  2.239E+11 2.239E+11 3.558E+00 5.480E+03 9.608E+04 8.738E+04 1.889E+05 1.889E+05 1.794E+07 32.3677 1.00000
  2.512E+11 2.512E+11 3.575E+00 6.150E+03 1.078E+05 1.001E+05 2.141E+05 2.141E+05 1.807E+07 32.5980 1.00000
  2.818E+11 2.818E+11 3.592E+00 6.900E+03 1.209E+05 1.147E+05 2.425E+05 2.425E+05 1.821E+07 32.8282 1.00000
  3.162E+11 3.162E+11 3.609E+00 7.743E+03 1.357E+05 1.314E+05 2.749E+05 2.749E+05 1.834E+07 33.0585 1.00000
  3.548E+11 3.548E+11 3.627E+00 8.688E+03 1.523E+05 1.506E+05 3.115E+05 3.115E+05 1.847E+07 33.2888 1.00000
  3.981E+11 3.981E+11 3.644E+00 9.749E+03 1.708E+05 1.726E+05 3.531E+05 3.531E+05 1.860E+07 33.5190 1.00000
  4.467E+11 4.467E+11 3.662E+00 1.094E+04 1.917E+05 1.977E+05 4.003E+05 4.003E+05 1.873E+07 33.7493 1.00000
  5.012E+11 5.012E+11 3.680E+00 1.227E+04 2.150E+05 2.266E+05 4.539E+05 4.539E+05 1.886E+07 33.9795 1.00000
  5.623E+11 5.623E+11 3.697E+00 1.377E+04 2.413E+05 2.597E+05 5.148E+05 5.148E+05 1.899E+07 34.2098 1.00000
  6.310E+11 6.310E+11 3.715E+00 1.545E+04 2.707E+05 2.977E+05 5.838E+05 5.838E+05 1.911E+07 34.4400 1.00000
  7.079E+11 7.079E+11 3.733E+00 1.734E+04 3.037E+05 3.412E+05 6.622E+05 6.622E+05 1.924E+07 34.6703 1.00000
  7.943E+11 7.943E+11 3.751E+00 1.946E+04 3.408E+05 3.911E+05 7.513E+05 7.513E+05 1.936E+07 34.9006 1.00000
  8.913E+11 8.913E+11 3.770E+00 2.183E+04 3.823E+05 4.483E+05 8.525E+05 8.525E+05 1.948E+07 35.1308 1.00000
  1.000E+12 1.000E+12 3.788E+00 2.449E+04 4.290E+05 5.139E+05 9.674E+05 9.674E+05 1.960E+07 35.3611 1.00000
  1.122E+12 1.122E+12 3.806E+00 2.748E+04 4.813E+05 5.892E+05 1.098E+06 1.098E+06 1.972E+07 35.5913 1.00000
  1.259E+12 1.259E+12 3.825E+00 3.084E+04 5.400E+05 6.755E+05 1.246E+06 1.246E+06 1.984E+07 35.8216 1.00000
  1.413E+12 1.413E+12 3.844E+00 3.460E+04 6.059E+05 7.745E+05 1.415E+06 1.415E+06 1.995E+07 36.0519 1.00000
  1.585E+12 1.585E+12 3.862E+00 3.882E+04 6.798E+05 8.880E+05 1.607E+06 1.607E+06 2.007E+07 36.2821 1.00000
  1.778E+12 1.778E+12 3.881E+00 4.356E+04 7.627E+05 1.018E+06 1.824E+06 1.824E+06 2.018E+07 36.5124 1.00000
  1.995E+12 1.995E+12 3.900E+00 4.888E+04 8.557E+05 1.168E+06 2.072E+06 2.072E+06 2.029E+07 36.7426 1.00000
  2.239E+12 2.239E+12 3.919E+00 5.484E+04 9.601E+05 1.339E+06 2.354E+06 2.354E+06 2.040E+07 36.9729 1.00000
  2.512E+12 2.512E+12 3.938E+00 6.154E+04 1.077E+06 1.536E+06 2.674E+06 2.674E+06 2.051E+07 37.2031 1.00000
  2.818E+12 2.818E+12 3.957E+00 6.904E+04 1.209E+06 1.761E+06 3.039E+06 3.039E+06 2.062E+07 37.4334 1.00000
  3.162E+12 3.162E+12 3.977E+00 7.747E+04 1.356E+06 2.020E+06 3.453E+06 3.453E+06 2.073E+07 37.6637 1.00000
  3.548E+12 3.548E+12 3.996E+00 8.692E+04 1.521E+06 2.317E+06 3.925E+06 3.925E+06 2.083E+07 37.8939 1.00000
  3.981E+12 3.981E+12 4.016E+00 9.753E+04 1.707E+06 2.658E+06 4.462E+06 4.462E+06 2.094E+07 38.1242 1.00000
  4.467E+12 4.467E+12 4.036E+00 1.094E+05 1.915E+06 3.049E+06 5.073E+06 5.073E+06 2.104E+07 38.3544 1.00000
  5.012E+12 5.012E+12 4.055E+00 1.228E+05 2.149E+06 3.497E+06 5.769E+06 5.769E+06 2.114E+07 38.5847 1.00000
  5.623E+12 5.623E+12 4.075E+00 1.378E+05 2.411E+06 4.012E+06 6.561E+06 6.561E+06 2.124E+07 38.8150 1.00000
  6.310E+12 6.310E+12 4.095E+00 1.546E+05 2.705E+06 4.603E+06 7.463E+06 7.463E+06 2.134E+07 39.0452 1.00000
  7.079E+12 7.079E+12 4.115E+00 1.734E+05 3.035E+06 5.282E+06 8.490E+06 8.490E+06 2.143E+07 39.2755 1.00000
  7.943E+12 7.943E+12 4.136E+00 1.946E+05 3.405E+06 6.060E+06 9.660E+06 9.660E+06 2.153E+07 39.5057 1.00000
  8.913E+12 8.913E+12 4.156E+00 2.184E+05 3.820E+06 6.954E+06 1.099E+07 1.099E+07 2.162E+07 39.7360 1.00000
  1.000E+13 1.000E+13 4.176E+00 2.450E+05 4.286E+06 7.980E+06 1.251E+07 1.251E+07 2.172E+07 39.9663 1.00000
  1.122E+13 1.122E+13 4.197E+00 2.749E+05 4.809E+06 9.157E+06 1.424E+07 1.424E+07 2.181E+07 40.1965 1.00000
  1.259E+13 1.259E+13 4.218E+00 3.084E+05 5.395E+06 1.051E+07 1.621E+07 1.621E+07 2.190E+07 40.4268 1.00000
  1.413E+13 1.413E+13 4.238E+00 3.461E+05 6.053E+06 1.206E+07 1.846E+07 1.846E+07 2.199E+07 40.6570 1.00000
  1.585E+13 1.585E+13 4.259E+00 3.883E+05 6.791E+06 1.384E+07 2.102E+07 2.102E+07 2.207E+07 40.8873 1.00000
  1.778E+13 1.778E+13 4.280E+00 4.357E+05 7.620E+06 1.589E+07 2.394E+07 2.394E+07 2.216E+07 41.1175 1.00000
  1.995E+13 1.995E+13 4.301E+00 4.888E+05 8.549E+06 1.824E+07 2.728E+07 2.728E+07 2.225E+07 41.3478 1.00000
  2.239E+13 2.239E+13 4.323E+00 5.485E+05 9.592E+06 2.094E+07 3.108E+07 3.108E+07 2.233E+07 41.5781 1.00000
  2.512E+13 2.512E+13 4.344E+00 6.154E+05 1.076E+07 2.403E+07 3.541E+07 3.541E+07 2.241E+07 41.8083 1.00000
  2.818E+13 2.818E+13 4.365E+00 6.905E+05 1.207E+07 2.759E+07 4.036E+07 4.036E+07 2.249E+07 42.0386 1.00000
  3.162E+13 3.162E+13 4.387E+00 7.748E+05 1.355E+07 3.168E+07 4.600E+07 4.600E+07 2.257E+07 42.2688 1.00000
  3.548E+13 3.548E+13 4.409E+00 8.693E+05 1.520E+07 3.637E+07 5.244E+07 5.244E+07 2.265E+07 42.4991 1.00000
  3.981E+13 3.981E+13 4.430E+00 9.754E+05 1.705E+07 4.176E+07 5.979E+07 5.979E+07 2.273E+07 42.7294 1.00000
  4.467E+13 4.467E+13 4.452E+00 1.094E+06 1.913E+07 4.795E+07 6.817E+07 6.817E+07 2.281E+07 42.9596 1.00000
  5.012E+13 5.012E+13 4.474E+00 1.228E+06 2.146E+07 5.506E+07 7.775E+07 7.775E+07 2.288E+07 43.1899 1.00000
  5.623E+13 5.623E+13 4.497E+00 1.378E+06 2.408E+07 6.323E+07 8.869E+07 8.869E+07 2.296E+07 43.4201 1.00000
  6.310E+13 6.310E+13 4.519E+00 1.546E+06 2.702E+07 7.261E+07 1.012E+08 1.012E+08 2.303E+07 43.6504 1.00000
  7.079E+13 7.079E+13 4.541E+00 1.734E+06 3.031E+07 8.339E+07 1.154E+08 1.154E+08 2.310E+07 43.8806 1.00000
  7.943E+13 7.943E+13 4.564E+00 1.946E+06 3.401E+07 9.577E+07 1.317E+08 1.317E+08 2.317E+07 44.1109 1.00000
  8.913E+13 8.913E+13 4.586E+00 2.184E+06 3.816E+07 1.100E+08 1.503E+08 1.503E+08 2.324E+07 44.3412 1.00000
