 Incident particle is a Tau with M = 1776.82000 MeV
 Index = 0: PlateGlass
      Absorber with <Z/A> = 0.49732
 Sternheimer coef:  a     k=m_s   x_0    x_1    I[eV]   Cbar  delta0
                 0.0768  3.5381  0.1237  3.0649  145.4  4.0602 0.00

 *** Table generated with PUMAS v1.00 ***

      T         p     Ionization  brems     pair     photonuc  Radloss    dE/dx   CSDA Range  delta   beta
    [MeV]    [MeV/c]  -----------------------[MeV cm^2/g]------------------------  [g/cm^2]
  1.000E+05 1.018E+05 2.124E+00 2.192E-04 3.461E-03 8.174E-03 1.185E-02 2.136E+00 2.341E+04  4.2334 0.99985
  1.122E+05 1.140E+05 2.144E+00 2.534E-04 4.163E-03 9.219E-03 1.364E-02 2.157E+00 2.910E+04  4.4348 0.99988
  1.259E+05 1.277E+05 2.163E+00 2.928E-04 4.992E-03 1.034E-02 1.563E-02 2.179E+00 3.541E+04  4.6389 0.99990
  1.413E+05 1.430E+05 2.183E+00 3.381E-04 5.967E-03 1.161E-02 1.791E-02 2.201E+00 4.243E+04  4.8456 0.99992
  1.585E+05 1.603E+05 2.202E+00 3.902E-04 7.112E-03 1.302E-02 2.052E-02 2.223E+00 5.022E+04  5.0547 0.99994
  1.778E+05 1.796E+05 2.221E+00 4.502E-04 8.454E-03 1.460E-02 2.350E-02 2.245E+00 5.888E+04  5.2660 0.99995
  1.995E+05 2.013E+05 2.241E+00 5.191E-04 1.002E-02 1.639E-02 2.694E-02 2.267E+00 6.849E+04  5.4794 0.99996
  2.239E+05 2.256E+05 2.260E+00 5.983E-04 1.186E-02 1.836E-02 3.081E-02 2.290E+00 7.918E+04  5.6948 0.99997
  2.512E+05 2.530E+05 2.279E+00 6.892E-04 1.399E-02 2.055E-02 3.523E-02 2.314E+00 9.104E+04  5.9119 0.99998
  2.818E+05 2.836E+05 2.297E+00 7.936E-04 1.648E-02 2.302E-02 4.030E-02 2.338E+00 1.042E+05  6.1307 0.99998
  3.162E+05 3.180E+05 2.316E+00 9.134E-04 1.937E-02 2.581E-02 4.609E-02 2.362E+00 1.189E+05  6.3510 0.99998
  3.548E+05 3.566E+05 2.335E+00 1.051E-03 2.271E-02 2.894E-02 5.271E-02 2.388E+00 1.351E+05  6.5727 0.99999
  3.981E+05 3.999E+05 2.353E+00 1.208E-03 2.658E-02 3.243E-02 6.023E-02 2.414E+00 1.531E+05  6.7956 0.99999
  4.467E+05 4.485E+05 2.372E+00 1.389E-03 3.106E-02 3.635E-02 6.880E-02 2.441E+00 1.732E+05  7.0197 0.99999
  5.012E+05 5.030E+05 2.390E+00 1.596E-03 3.623E-02 4.075E-02 7.857E-02 2.469E+00 1.954E+05  7.2448 0.99999
  5.623E+05 5.641E+05 2.408E+00 1.832E-03 4.219E-02 4.551E-02 8.953E-02 2.498E+00 2.200E+05  7.4707 1.00000
  6.310E+05 6.327E+05 2.427E+00 2.104E-03 4.905E-02 5.087E-02 1.020E-01 2.529E+00 2.473E+05  7.6975 1.00000
  7.079E+05 7.097E+05 2.445E+00 2.414E-03 5.694E-02 5.692E-02 1.163E-01 2.561E+00 2.775E+05  7.9249 1.00000
  7.943E+05 7.961E+05 2.462E+00 2.769E-03 6.600E-02 6.375E-02 1.325E-01 2.595E+00 3.111E+05  8.1530 1.00000
  8.913E+05 8.930E+05 2.480E+00 3.175E-03 7.639E-02 7.146E-02 1.510E-01 2.631E+00 3.481E+05  8.3815 1.00000
  1.000E+06 1.002E+06 2.498E+00 3.640E-03 8.830E-02 8.018E-02 1.721E-01 2.670E+00 3.892E+05  8.6105 1.00000
  1.122E+06 1.124E+06 2.516E+00 4.171E-03 1.019E-01 9.005E-02 1.961E-01 2.712E+00 4.345E+05  8.8398 1.00000
  1.259E+06 1.261E+06 2.533E+00 4.778E-03 1.175E-01 1.012E-01 2.235E-01 2.757E+00 4.846E+05  9.0693 1.00000
  1.413E+06 1.414E+06 2.550E+00 5.471E-03 1.353E-01 1.139E-01 2.547E-01 2.805E+00 5.398E+05  9.2991 1.00000
  1.585E+06 1.587E+06 2.568E+00 6.263E-03 1.556E-01 1.282E-01 2.901E-01 2.858E+00 6.007E+05  9.5290 1.00000
  1.778E+06 1.780E+06 2.585E+00 7.168E-03 1.788E-01 1.445E-01 3.304E-01 2.915E+00 6.677E+05  9.7590 1.00000
  1.995E+06 1.997E+06 2.602E+00 8.200E-03 2.051E-01 1.630E-01 3.763E-01 2.978E+00 7.414E+05  9.9890 1.00000
  2.239E+06 2.240E+06 2.619E+00 9.378E-03 2.351E-01 1.839E-01 4.284E-01 3.047E+00 8.222E+05 10.2191 1.00000
  2.512E+06 2.514E+06 2.635E+00 1.072E-02 2.692E-01 2.077E-01 4.877E-01 3.123E+00 9.107E+05 10.4491 1.00000
  2.818E+06 2.820E+06 2.652E+00 1.226E-02 3.079E-01 2.348E-01 5.550E-01 3.207E+00 1.008E+06 10.6792 1.00000
  3.162E+06 3.164E+06 2.668E+00 1.400E-02 3.519E-01 2.656E-01 6.315E-01 3.300E+00 1.113E+06 10.9094 1.00000
  3.548E+06 3.550E+06 2.685E+00 1.600E-02 4.017E-01 3.006E-01 7.183E-01 3.403E+00 1.228E+06 11.1395 1.00000
  3.981E+06 3.983E+06 2.701E+00 1.827E-02 4.582E-01 3.404E-01 8.169E-01 3.518E+00 1.354E+06 11.3697 1.00000
  4.467E+06 4.469E+06 2.717E+00 2.086E-02 5.222E-01 3.857E-01 9.287E-01 3.645E+00 1.489E+06 11.5998 1.00000
  5.012E+06 5.014E+06 2.733E+00 2.381E-02 5.946E-01 4.373E-01 1.056E+00 3.788E+00 1.636E+06 11.8300 1.00000
  5.623E+06 5.625E+06 2.748E+00 2.717E-02 6.765E-01 4.960E-01 1.200E+00 3.948E+00 1.794E+06 12.0602 1.00000
  6.310E+06 6.311E+06 2.764E+00 3.099E-02 7.690E-01 5.628E-01 1.363E+00 4.126E+00 1.964E+06 12.2904 1.00000
  7.079E+06 7.081E+06 2.779E+00 3.534E-02 8.736E-01 6.390E-01 1.548E+00 4.327E+00 2.146E+06 12.5206 1.00000
  7.943E+06 7.945E+06 2.794E+00 4.029E-02 9.916E-01 7.258E-01 1.758E+00 4.552E+00 2.341E+06 12.7508 1.00000
  8.913E+06 8.914E+06 2.809E+00 4.592E-02 1.125E+00 8.247E-01 1.995E+00 4.805E+00 2.549E+06 12.9810 1.00000
  1.000E+07 1.000E+07 2.824E+00 5.232E-02 1.275E+00 9.374E-01 2.265E+00 5.089E+00 2.769E+06 13.2112 1.00000
  1.122E+07 1.122E+07 2.839E+00 5.960E-02 1.445E+00 1.066E+00 2.570E+00 5.409E+00 3.001E+06 13.4414 1.00000
  1.259E+07 1.259E+07 2.853E+00 6.788E-02 1.636E+00 1.212E+00 2.916E+00 5.769E+00 3.246E+06 13.6716 1.00000
  1.413E+07 1.413E+07 2.868E+00 7.728E-02 1.851E+00 1.379E+00 3.308E+00 6.176E+00 3.504E+06 13.9019 1.00000
  1.585E+07 1.585E+07 2.882E+00 8.795E-02 2.093E+00 1.570E+00 3.751E+00 6.634E+00 3.773E+06 14.1321 1.00000
  1.778E+07 1.778E+07 2.897E+00 1.001E-01 2.367E+00 1.787E+00 4.254E+00 7.150E+00 4.054E+06 14.3623 1.00000
  1.995E+07 1.995E+07 2.911E+00 1.138E-01 2.674E+00 2.035E+00 4.823E+00 7.733E+00 4.346E+06 14.5926 1.00000
  2.239E+07 2.239E+07 2.925E+00 1.295E-01 3.020E+00 2.318E+00 5.467E+00 8.392E+00 4.649E+06 14.8228 1.00000
  2.512E+07 2.512E+07 2.939E+00 1.472E-01 3.409E+00 2.640E+00 6.196E+00 9.135E+00 4.961E+06 15.0530 1.00000
  2.818E+07 2.819E+07 2.953E+00 1.673E-01 3.846E+00 3.008E+00 7.022E+00 9.975E+00 5.283E+06 15.2833 1.00000
  3.162E+07 3.162E+07 2.967E+00 1.901E-01 4.339E+00 3.428E+00 7.957E+00 1.092E+01 5.612E+06 15.5135 1.00000
  3.548E+07 3.548E+07 2.981E+00 2.159E-01 4.892E+00 3.907E+00 9.015E+00 1.200E+01 5.950E+06 15.7438 1.00000
  3.981E+07 3.981E+07 2.995E+00 2.452E-01 5.514E+00 4.454E+00 1.021E+01 1.321E+01 6.294E+06 15.9740 1.00000
  4.467E+07 4.467E+07 3.008E+00 2.783E-01 6.213E+00 5.079E+00 1.157E+01 1.458E+01 6.645E+06 16.2043 1.00000
  5.012E+07 5.012E+07 3.022E+00 3.159E-01 6.998E+00 5.792E+00 1.311E+01 1.613E+01 7.001E+06 16.4345 1.00000
  5.623E+07 5.624E+07 3.036E+00 3.584E-01 7.881E+00 6.605E+00 1.484E+01 1.788E+01 7.361E+06 16.6648 1.00000
  6.310E+07 6.310E+07 3.050E+00 4.065E-01 8.872E+00 7.534E+00 1.681E+01 1.986E+01 7.726E+06 16.8950 1.00000
  7.079E+07 7.080E+07 3.064E+00 4.610E-01 9.986E+00 8.595E+00 1.904E+01 2.211E+01 8.094E+06 17.1253 1.00000
  7.943E+07 7.943E+07 3.077E+00 5.225E-01 1.124E+01 9.806E+00 2.157E+01 2.464E+01 8.464E+06 17.3555 1.00000
  8.913E+07 8.913E+07 3.091E+00 5.922E-01 1.264E+01 1.119E+01 2.442E+01 2.751E+01 8.837E+06 17.5858 1.00000
  1.000E+08 1.000E+08 3.105E+00 6.709E-01 1.422E+01 1.277E+01 2.766E+01 3.076E+01 9.211E+06 17.8160 1.00000
  1.122E+08 1.122E+08 3.119E+00 7.599E-01 1.599E+01 1.457E+01 3.132E+01 3.444E+01 9.587E+06 18.0463 1.00000
  1.259E+08 1.259E+08 3.133E+00 8.604E-01 1.798E+01 1.663E+01 3.547E+01 3.860E+01 9.963E+06 18.2765 1.00000
  1.413E+08 1.413E+08 3.147E+00 9.740E-01 2.021E+01 1.898E+01 4.017E+01 4.332E+01 1.034E+07 18.5068 1.00000
  1.585E+08 1.585E+08 3.161E+00 1.102E+00 2.272E+01 2.167E+01 4.549E+01 4.865E+01 1.072E+07 18.7371 1.00000
  1.778E+08 1.778E+08 3.175E+00 1.247E+00 2.553E+01 2.474E+01 5.152E+01 5.470E+01 1.109E+07 18.9673 1.00000
  1.995E+08 1.995E+08 3.189E+00 1.411E+00 2.869E+01 2.825E+01 5.835E+01 6.154E+01 1.147E+07 19.1976 1.00000
  2.239E+08 2.239E+08 3.203E+00 1.595E+00 3.224E+01 3.225E+01 6.609E+01 6.929E+01 1.184E+07 19.4278 1.00000
  2.512E+08 2.512E+08 3.218E+00 1.803E+00 3.622E+01 3.683E+01 7.485E+01 7.807E+01 1.221E+07 19.6581 1.00000
  2.818E+08 2.818E+08 3.232E+00 2.038E+00 4.069E+01 4.206E+01 8.478E+01 8.801E+01 1.258E+07 19.8883 1.00000
  3.162E+08 3.162E+08 3.246E+00 2.302E+00 4.570E+01 4.803E+01 9.603E+01 9.928E+01 1.295E+07 20.1186 1.00000
  3.548E+08 3.548E+08 3.261E+00 2.600E+00 5.133E+01 5.486E+01 1.088E+02 1.120E+02 1.332E+07 20.3489 1.00000
  3.981E+08 3.981E+08 3.275E+00 2.936E+00 5.764E+01 6.266E+01 1.232E+02 1.265E+02 1.368E+07 20.5791 1.00000
  4.467E+08 4.467E+08 3.290E+00 3.315E+00 6.473E+01 7.158E+01 1.396E+02 1.429E+02 1.404E+07 20.8094 1.00000
  5.012E+08 5.012E+08 3.304E+00 3.741E+00 7.268E+01 8.176E+01 1.582E+02 1.615E+02 1.440E+07 21.0396 1.00000
  5.623E+08 5.623E+08 3.319E+00 4.222E+00 8.161E+01 9.341E+01 1.792E+02 1.826E+02 1.476E+07 21.2699 1.00000
  6.310E+08 6.310E+08 3.334E+00 4.763E+00 9.163E+01 1.067E+02 2.031E+02 2.064E+02 1.511E+07 21.5001 1.00000
  7.079E+08 7.079E+08 3.349E+00 5.371E+00 1.029E+02 1.219E+02 2.302E+02 2.335E+02 1.546E+07 21.7304 1.00000
  7.943E+08 7.943E+08 3.364E+00 6.057E+00 1.155E+02 1.393E+02 2.609E+02 2.642E+02 1.581E+07 21.9607 1.00000
  8.913E+08 8.913E+08 3.379E+00 6.828E+00 1.296E+02 1.592E+02 2.957E+02 2.990E+02 1.616E+07 22.1909 1.00000
  1.000E+09 1.000E+09 3.394E+00 7.696E+00 1.455E+02 1.819E+02 3.351E+02 3.385E+02 1.650E+07 22.4212 1.00000
  1.122E+09 1.122E+09 3.409E+00 8.672E+00 1.633E+02 2.079E+02 3.799E+02 3.833E+02 1.684E+07 22.6514 1.00000
  1.259E+09 1.259E+09 3.424E+00 9.771E+00 1.833E+02 2.376E+02 4.307E+02 4.342E+02 1.718E+07 22.8817 1.00000
  1.413E+09 1.413E+09 3.439E+00 1.101E+01 2.058E+02 2.716E+02 4.884E+02 4.918E+02 1.751E+07 23.1119 1.00000
  1.585E+09 1.585E+09 3.455E+00 1.239E+01 2.309E+02 3.104E+02 5.538E+02 5.572E+02 1.784E+07 23.3422 1.00000
  1.778E+09 1.778E+09 3.470E+00 1.396E+01 2.592E+02 3.548E+02 6.280E+02 6.315E+02 1.817E+07 23.5725 1.00000
  1.995E+09 1.995E+09 3.486E+00 1.571E+01 2.909E+02 4.056E+02 7.123E+02 7.157E+02 1.849E+07 23.8027 1.00000
  2.239E+09 2.239E+09 3.502E+00 1.768E+01 3.265E+02 4.637E+02 8.079E+02 8.114E+02 1.881E+07 24.0330 1.00000
  2.512E+09 2.512E+09 3.517E+00 1.990E+01 3.664E+02 5.302E+02 9.164E+02 9.200E+02 1.913E+07 24.2632 1.00000
  2.818E+09 2.818E+09 3.533E+00 2.239E+01 4.112E+02 6.061E+02 1.040E+03 1.043E+03 1.944E+07 24.4935 1.00000
  3.162E+09 3.162E+09 3.549E+00 2.519E+01 4.614E+02 6.931E+02 1.180E+03 1.183E+03 1.975E+07 24.7238 1.00000
  3.548E+09 3.548E+09 3.565E+00 2.834E+01 5.178E+02 7.925E+02 1.339E+03 1.342E+03 2.006E+07 24.9540 1.00000
  3.981E+09 3.981E+09 3.581E+00 3.187E+01 5.810E+02 9.062E+02 1.519E+03 1.523E+03 2.036E+07 25.1843 1.00000
  4.467E+09 4.467E+09 3.597E+00 3.584E+01 6.520E+02 1.036E+03 1.724E+03 1.728E+03 2.066E+07 25.4145 1.00000
  5.012E+09 5.012E+09 3.614E+00 4.029E+01 7.317E+02 1.185E+03 1.957E+03 1.961E+03 2.096E+07 25.6448 1.00000
  5.623E+09 5.623E+09 3.630E+00 4.530E+01 8.210E+02 1.355E+03 2.222E+03 2.225E+03 2.125E+07 25.8750 1.00000
  6.310E+09 6.310E+09 3.646E+00 5.092E+01 9.213E+02 1.550E+03 2.522E+03 2.526E+03 2.154E+07 26.1053 1.00000
  7.079E+09 7.079E+09 3.663E+00 5.723E+01 1.034E+03 1.773E+03 2.864E+03 2.868E+03 2.183E+07 26.3356 1.00000
  7.943E+09 7.943E+09 3.680E+00 6.432E+01 1.160E+03 2.028E+03 3.253E+03 3.256E+03 2.211E+07 26.5658 1.00000
  8.913E+09 8.913E+09 3.696E+00 7.228E+01 1.302E+03 2.320E+03 3.694E+03 3.698E+03 2.239E+07 26.7961 1.00000
  1.000E+10 1.000E+10 3.713E+00 8.122E+01 1.460E+03 2.654E+03 4.196E+03 4.200E+03 2.267E+07 27.0263 1.00000
  1.122E+10 1.122E+10 3.730E+00 9.125E+01 1.639E+03 3.037E+03 4.767E+03 4.770E+03 2.294E+07 27.2566 1.00000
  1.259E+10 1.259E+10 3.747E+00 1.025E+02 1.839E+03 3.474E+03 5.416E+03 5.419E+03 2.321E+07 27.4869 1.00000
  1.413E+10 1.413E+10 3.764E+00 1.152E+02 2.063E+03 3.975E+03 6.154E+03 6.157E+03 2.348E+07 27.7171 1.00000
  1.585E+10 1.585E+10 3.782E+00 1.293E+02 2.315E+03 4.549E+03 6.993E+03 6.997E+03 2.374E+07 27.9474 1.00000
  1.778E+10 1.778E+10 3.799E+00 1.453E+02 2.598E+03 5.205E+03 7.948E+03 7.951E+03 2.400E+07 28.1776 1.00000
  1.995E+10 1.995E+10 3.816E+00 1.632E+02 2.915E+03 5.956E+03 9.034E+03 9.038E+03 2.426E+07 28.4079 1.00000
  2.239E+10 2.239E+10 3.834E+00 1.832E+02 3.270E+03 6.816E+03 1.027E+04 1.027E+04 2.451E+07 28.6382 1.00000
  2.512E+10 2.512E+10 3.851E+00 2.057E+02 3.669E+03 7.801E+03 1.168E+04 1.168E+04 2.476E+07 28.8684 1.00000
  2.818E+10 2.818E+10 3.869E+00 2.310E+02 4.117E+03 8.928E+03 1.328E+04 1.328E+04 2.501E+07 29.0987 1.00000
  3.162E+10 3.162E+10 3.887E+00 2.594E+02 4.619E+03 1.022E+04 1.510E+04 1.510E+04 2.525E+07 29.3289 1.00000
  3.548E+10 3.548E+10 3.905E+00 2.912E+02 5.183E+03 1.170E+04 1.717E+04 1.718E+04 2.549E+07 29.5592 1.00000
  3.981E+10 3.981E+10 3.923E+00 3.270E+02 5.815E+03 1.339E+04 1.953E+04 1.954E+04 2.573E+07 29.7894 1.00000
  4.467E+10 4.467E+10 3.941E+00 3.671E+02 6.525E+03 1.533E+04 2.222E+04 2.222E+04 2.596E+07 30.0197 1.00000
  5.012E+10 5.012E+10 3.959E+00 4.121E+02 7.321E+03 1.755E+04 2.528E+04 2.529E+04 2.619E+07 30.2500 1.00000
  5.623E+10 5.623E+10 3.977E+00 4.626E+02 8.214E+03 2.009E+04 2.877E+04 2.877E+04 2.642E+07 30.4802 1.00000
  6.310E+10 6.310E+10 3.996E+00 5.192E+02 9.217E+03 2.300E+04 3.274E+04 3.274E+04 2.664E+07 30.7105 1.00000
  7.079E+10 7.079E+10 4.014E+00 5.828E+02 1.034E+04 2.634E+04 3.726E+04 3.727E+04 2.686E+07 30.9407 1.00000
  7.943E+10 7.943E+10 4.033E+00 6.542E+02 1.160E+04 3.016E+04 4.242E+04 4.242E+04 2.708E+07 31.1710 1.00000
  8.913E+10 8.913E+10 4.052E+00 7.343E+02 1.302E+04 3.454E+04 4.829E+04 4.829E+04 2.729E+07 31.4013 1.00000
  1.000E+11 1.000E+11 4.071E+00 8.241E+02 1.461E+04 3.955E+04 5.498E+04 5.499E+04 2.751E+07 31.6315 1.00000
  1.122E+11 1.122E+11 4.090E+00 9.249E+02 1.639E+04 4.530E+04 6.261E+04 6.261E+04 2.771E+07 31.8618 1.00000
  1.259E+11 1.259E+11 4.109E+00 1.038E+03 1.839E+04 5.188E+04 7.130E+04 7.131E+04 2.792E+07 32.0920 1.00000
  1.413E+11 1.413E+11 4.128E+00 1.165E+03 2.063E+04 5.942E+04 8.121E+04 8.122E+04 2.812E+07 32.3223 1.00000
  1.585E+11 1.585E+11 4.147E+00 1.307E+03 2.315E+04 6.806E+04 9.251E+04 9.252E+04 2.832E+07 32.5525 1.00000
  1.778E+11 1.778E+11 4.166E+00 1.467E+03 2.597E+04 7.796E+04 1.054E+05 1.054E+05 2.852E+07 32.7828 1.00000
  1.995E+11 1.995E+11 4.186E+00 1.647E+03 2.914E+04 8.931E+04 1.201E+05 1.201E+05 2.871E+07 33.0131 1.00000
  2.239E+11 2.239E+11 4.206E+00 1.848E+03 3.269E+04 1.023E+05 1.369E+05 1.369E+05 2.890E+07 33.2433 1.00000
  2.512E+11 2.512E+11 4.225E+00 2.074E+03 3.668E+04 1.172E+05 1.560E+05 1.560E+05 2.909E+07 33.4736 1.00000
  2.818E+11 2.818E+11 4.245E+00 2.327E+03 4.116E+04 1.343E+05 1.778E+05 1.778E+05 2.927E+07 33.7038 1.00000
  3.162E+11 3.162E+11 4.265E+00 2.611E+03 4.618E+04 1.539E+05 2.027E+05 2.027E+05 2.945E+07 33.9341 1.00000
  3.548E+11 3.548E+11 4.285E+00 2.930E+03 5.181E+04 1.763E+05 2.311E+05 2.311E+05 2.963E+07 34.1644 1.00000
  3.981E+11 3.981E+11 4.305E+00 3.288E+03 5.813E+04 2.020E+05 2.635E+05 2.635E+05 2.981E+07 34.3946 1.00000
  4.467E+11 4.467E+11 4.325E+00 3.690E+03 6.522E+04 2.315E+05 3.004E+05 3.004E+05 2.998E+07 34.6249 1.00000
  5.012E+11 5.012E+11 4.346E+00 4.140E+03 7.318E+04 2.653E+05 3.426E+05 3.427E+05 3.015E+07 34.8551 1.00000
  5.623E+11 5.623E+11 4.366E+00 4.646E+03 8.210E+04 3.041E+05 3.908E+05 3.908E+05 3.032E+07 35.0854 1.00000
  6.310E+11 6.310E+11 4.387E+00 5.213E+03 9.212E+04 3.485E+05 4.459E+05 4.459E+05 3.048E+07 35.3156 1.00000
  7.079E+11 7.079E+11 4.408E+00 5.850E+03 1.034E+05 3.995E+05 5.087E+05 5.087E+05 3.065E+07 35.5459 1.00000
  7.943E+11 7.943E+11 4.429E+00 6.564E+03 1.160E+05 4.579E+05 5.804E+05 5.804E+05 3.080E+07 35.7762 1.00000
  8.913E+11 8.913E+11 4.449E+00 7.365E+03 1.301E+05 5.249E+05 6.624E+05 6.624E+05 3.096E+07 36.0064 1.00000
  1.000E+12 1.000E+12 4.471E+00 8.264E+03 1.460E+05 6.017E+05 7.560E+05 7.560E+05 3.112E+07 36.2367 1.00000
  1.122E+12 1.122E+12 4.492E+00 9.273E+03 1.638E+05 6.898E+05 8.629E+05 8.629E+05 3.127E+07 36.4669 1.00000
  1.259E+12 1.259E+12 4.513E+00 1.041E+04 1.838E+05 7.909E+05 9.851E+05 9.851E+05 3.142E+07 36.6972 1.00000
  1.413E+12 1.413E+12 4.534E+00 1.168E+04 2.062E+05 9.068E+05 1.125E+06 1.125E+06 3.156E+07 36.9275 1.00000
  1.585E+12 1.585E+12 4.556E+00 1.310E+04 2.313E+05 1.040E+06 1.284E+06 1.284E+06 3.171E+07 37.1577 1.00000
  1.778E+12 1.778E+12 4.578E+00 1.470E+04 2.595E+05 1.192E+06 1.466E+06 1.466E+06 3.185E+07 37.3880 1.00000
  1.995E+12 1.995E+12 4.599E+00 1.649E+04 2.912E+05 1.367E+06 1.675E+06 1.675E+06 3.199E+07 37.6182 1.00000
  2.239E+12 2.239E+12 4.621E+00 1.851E+04 3.267E+05 1.568E+06 1.913E+06 1.913E+06 3.212E+07 37.8485 1.00000
  2.512E+12 2.512E+12 4.643E+00 2.076E+04 3.666E+05 1.798E+06 2.185E+06 2.185E+06 3.226E+07 38.0787 1.00000
  2.818E+12 2.818E+12 4.666E+00 2.330E+04 4.113E+05 2.062E+06 2.497E+06 2.497E+06 3.239E+07 38.3090 1.00000
  3.162E+12 3.162E+12 4.688E+00 2.614E+04 4.614E+05 2.365E+06 2.853E+06 2.853E+06 3.252E+07 38.5393 1.00000
  3.548E+12 3.548E+12 4.710E+00 2.933E+04 5.177E+05 2.713E+06 3.260E+06 3.260E+06 3.264E+07 38.7695 1.00000
  3.981E+12 3.981E+12 4.733E+00 3.291E+04 5.809E+05 3.112E+06 3.726E+06 3.726E+06 3.277E+07 38.9998 1.00000
  4.467E+12 4.467E+12 4.755E+00 3.693E+04 6.517E+05 3.570E+06 4.258E+06 4.258E+06 3.289E+07 39.2300 1.00000
  5.012E+12 5.012E+12 4.778E+00 4.143E+04 7.312E+05 4.095E+06 4.868E+06 4.868E+06 3.301E+07 39.4603 1.00000
  5.623E+12 5.623E+12 4.801E+00 4.649E+04 8.204E+05 4.698E+06 5.565E+06 5.565E+06 3.313E+07 39.6906 1.00000
  6.310E+12 6.310E+12 4.824E+00 5.216E+04 9.205E+05 5.390E+06 6.363E+06 6.363E+06 3.324E+07 39.9208 1.00000
  7.079E+12 7.079E+12 4.847E+00 5.853E+04 1.033E+06 6.184E+06 7.275E+06 7.275E+06 3.336E+07 40.1511 1.00000
  7.943E+12 7.943E+12 4.870E+00 6.567E+04 1.159E+06 7.096E+06 8.320E+06 8.320E+06 3.347E+07 40.3813 1.00000
  8.913E+12 8.913E+12 4.894E+00 7.369E+04 1.300E+06 8.142E+06 9.516E+06 9.516E+06 3.358E+07 40.6116 1.00000
  1.000E+13 1.000E+13 4.917E+00 8.268E+04 1.459E+06 9.343E+06 1.088E+07 1.088E+07 3.368E+07 40.8419 1.00000
  1.122E+13 1.122E+13 4.941E+00 9.277E+04 1.636E+06 1.072E+07 1.245E+07 1.245E+07 3.379E+07 41.0721 1.00000
  1.259E+13 1.259E+13 4.965E+00 1.041E+05 1.836E+06 1.230E+07 1.424E+07 1.424E+07 3.389E+07 41.3024 1.00000
  1.413E+13 1.413E+13 4.989E+00 1.168E+05 2.060E+06 1.412E+07 1.630E+07 1.630E+07 3.399E+07 41.5326 1.00000
  1.585E+13 1.585E+13 5.013E+00 1.310E+05 2.311E+06 1.621E+07 1.865E+07 1.865E+07 3.409E+07 41.7629 1.00000
  1.778E+13 1.778E+13 5.037E+00 1.470E+05 2.593E+06 1.860E+07 2.134E+07 2.134E+07 3.419E+07 41.9931 1.00000
  1.995E+13 1.995E+13 5.061E+00 1.650E+05 2.909E+06 2.135E+07 2.443E+07 2.443E+07 3.429E+07 42.2234 1.00000
  2.239E+13 2.239E+13 5.086E+00 1.851E+05 3.264E+06 2.451E+07 2.796E+07 2.796E+07 3.438E+07 42.4537 1.00000
  2.512E+13 2.512E+13 5.110E+00 2.077E+05 3.662E+06 2.814E+07 3.201E+07 3.201E+07 3.447E+07 42.6839 1.00000
  2.818E+13 2.818E+13 5.135E+00 2.330E+05 4.109E+06 3.231E+07 3.665E+07 3.665E+07 3.456E+07 42.9142 1.00000
  3.162E+13 3.162E+13 5.160E+00 2.615E+05 4.610E+06 3.709E+07 4.196E+07 4.196E+07 3.465E+07 43.1444 1.00000
  3.548E+13 3.548E+13 5.185E+00 2.934E+05 5.172E+06 4.258E+07 4.805E+07 4.805E+07 3.473E+07 43.3747 1.00000
  3.981E+13 3.981E+13 5.210E+00 3.292E+05 5.803E+06 4.889E+07 5.502E+07 5.502E+07 3.482E+07 43.6050 1.00000
  4.467E+13 4.467E+13 5.235E+00 3.693E+05 6.511E+06 5.614E+07 6.302E+07 6.302E+07 3.490E+07 43.8352 1.00000
  5.012E+13 5.012E+13 5.260E+00 4.144E+05 7.305E+06 6.447E+07 7.218E+07 7.218E+07 3.498E+07 44.0655 1.00000
  5.623E+13 5.623E+13 5.286E+00 4.649E+05 8.195E+06 7.403E+07 8.269E+07 8.269E+07 3.506E+07 44.2957 1.00000
  6.310E+13 6.310E+13 5.311E+00 5.217E+05 9.195E+06 8.501E+07 9.473E+07 9.473E+07 3.514E+07 44.5260 1.00000
  7.079E+13 7.079E+13 5.337E+00 5.853E+05 1.032E+07 9.763E+07 1.085E+08 1.085E+08 3.521E+07 44.7562 1.00000
  7.943E+13 7.943E+13 5.363E+00 6.568E+05 1.157E+07 1.121E+08 1.244E+08 1.244E+08 3.529E+07 44.9865 1.00000
  8.913E+13 8.913E+13 5.389E+00 7.369E+05 1.299E+07 1.288E+08 1.425E+08 1.425E+08 3.536E+07 45.2168 1.00000
