 Incident particle is a Tau with M = 1776.82000 MeV
 Index = 0: Platinum
      Absorber with <Z/A> = 0.39983
 Sternheimer coef:  a     k=m_s   x_0    x_1    I[eV]   Cbar  delta0
                 0.1113  3.0417  0.1484  3.6212  790.0  5.4732 0.12

 *** Table generated with PUMAS v1.00 ***

      T         p     Ionization  brems     pair     photonuc  Radloss    dE/dx   CSDA Range  delta   beta
    [MeV]    [MeV/c]  -----------------------[MeV cm^2/g]------------------------  [g/cm^2]
  1.000E+05 1.018E+05 1.553E+00 1.008E-03 1.789E-02 7.563E-03 2.646E-02 1.580E+00 3.165E+04  3.3613 0.99985
  1.122E+05 1.140E+05 1.571E+00 1.169E-03 2.141E-02 8.488E-03 3.107E-02 1.602E+00 3.932E+04  3.5301 0.99988
  1.259E+05 1.277E+05 1.589E+00 1.354E-03 2.556E-02 9.478E-03 3.639E-02 1.625E+00 4.781E+04  3.7023 0.99990
  1.413E+05 1.430E+05 1.606E+00 1.569E-03 3.043E-02 1.058E-02 4.258E-02 1.649E+00 5.719E+04  3.8778 0.99992
  1.585E+05 1.603E+05 1.624E+00 1.816E-03 3.613E-02 1.182E-02 4.976E-02 1.674E+00 6.757E+04  4.0565 0.99994
  1.778E+05 1.796E+05 1.641E+00 2.101E-03 4.279E-02 1.318E-02 5.807E-02 1.699E+00 7.903E+04  4.2383 0.99995
  1.995E+05 2.013E+05 1.658E+00 2.429E-03 5.056E-02 1.473E-02 6.772E-02 1.726E+00 9.170E+04  4.4231 0.99996
  2.239E+05 2.256E+05 1.675E+00 2.807E-03 5.961E-02 1.641E-02 7.884E-02 1.754E+00 1.057E+05  4.6107 0.99997
  2.512E+05 2.530E+05 1.692E+00 3.242E-03 7.013E-02 1.829E-02 9.166E-02 1.784E+00 1.211E+05  4.8012 0.99998
  2.818E+05 2.836E+05 1.709E+00 3.743E-03 8.232E-02 2.039E-02 1.065E-01 1.815E+00 1.382E+05  4.9944 0.99998
  3.162E+05 3.180E+05 1.726E+00 4.317E-03 9.643E-02 2.276E-02 1.235E-01 1.849E+00 1.569E+05  5.1902 0.99998
  3.548E+05 3.566E+05 1.742E+00 4.978E-03 1.127E-01 2.540E-02 1.431E-01 1.885E+00 1.776E+05  5.3885 0.99999
  3.981E+05 3.999E+05 1.758E+00 5.736E-03 1.316E-01 2.833E-02 1.656E-01 1.924E+00 2.003E+05  5.5891 0.99999
  4.467E+05 4.485E+05 1.774E+00 6.606E-03 1.533E-01 3.161E-02 1.915E-01 1.966E+00 2.253E+05  5.7921 0.99999
  5.012E+05 5.030E+05 1.790E+00 7.604E-03 1.782E-01 3.528E-02 2.211E-01 2.011E+00 2.527E+05  5.9973 0.99999
  5.623E+05 5.641E+05 1.806E+00 8.749E-03 2.069E-01 3.923E-02 2.549E-01 2.061E+00 2.828E+05  6.2046 1.00000
  6.310E+05 6.327E+05 1.822E+00 1.006E-02 2.398E-01 4.367E-02 2.935E-01 2.115E+00 3.156E+05  6.4138 1.00000
  7.079E+05 7.097E+05 1.837E+00 1.156E-02 2.775E-01 4.866E-02 3.377E-01 2.175E+00 3.515E+05  6.6250 1.00000
  7.943E+05 7.961E+05 1.853E+00 1.328E-02 3.206E-01 5.428E-02 3.882E-01 2.241E+00 3.907E+05  6.8380 1.00000
  8.913E+05 8.930E+05 1.868E+00 1.525E-02 3.700E-01 6.062E-02 4.458E-01 2.314E+00 4.332E+05  7.0527 1.00000
  1.000E+06 1.002E+06 1.883E+00 1.750E-02 4.263E-01 6.777E-02 5.115E-01 2.394E+00 4.794E+05  7.2691 1.00000
  1.122E+06 1.124E+06 1.898E+00 2.008E-02 4.905E-01 7.584E-02 5.864E-01 2.484E+00 5.295E+05  7.4870 1.00000
  1.259E+06 1.261E+06 1.912E+00 2.302E-02 5.637E-01 8.496E-02 6.717E-01 2.584E+00 5.835E+05  7.7063 1.00000
  1.413E+06 1.414E+06 1.927E+00 2.639E-02 6.470E-01 9.527E-02 7.687E-01 2.696E+00 6.417E+05  7.9270 1.00000
  1.585E+06 1.587E+06 1.941E+00 3.023E-02 7.417E-01 1.070E-01 8.789E-01 2.820E+00 7.043E+05  8.1489 1.00000
  1.778E+06 1.780E+06 1.955E+00 3.462E-02 8.493E-01 1.202E-01 1.004E+00 2.960E+00 7.712E+05  8.3720 1.00000
  1.995E+06 1.997E+06 1.969E+00 3.962E-02 9.715E-01 1.352E-01 1.146E+00 3.116E+00 8.427E+05  8.5962 1.00000
  2.239E+06 2.240E+06 1.983E+00 4.534E-02 1.110E+00 1.522E-01 1.308E+00 3.291E+00 9.188E+05  8.8213 1.00000
  2.512E+06 2.514E+06 1.997E+00 5.186E-02 1.267E+00 1.715E-01 1.490E+00 3.487E+00 9.994E+05  9.0474 1.00000
  2.818E+06 2.820E+06 2.011E+00 5.929E-02 1.445E+00 1.934E-01 1.698E+00 3.708E+00 1.085E+06  9.2742 1.00000
  3.162E+06 3.164E+06 2.024E+00 6.775E-02 1.646E+00 2.183E-01 1.932E+00 3.956E+00 1.175E+06  9.5018 1.00000
  3.548E+06 3.550E+06 2.037E+00 7.740E-02 1.874E+00 2.466E-01 2.198E+00 4.235E+00 1.269E+06  9.7300 1.00000
  3.981E+06 3.983E+06 2.050E+00 8.839E-02 2.131E+00 2.787E-01 2.498E+00 4.548E+00 1.368E+06  9.9587 1.00000
  4.467E+06 4.469E+06 2.063E+00 1.009E-01 2.422E+00 3.153E-01 2.838E+00 4.901E+00 1.471E+06 10.1879 1.00000
  5.012E+06 5.014E+06 2.076E+00 1.151E-01 2.750E+00 3.569E-01 3.222E+00 5.298E+00 1.578E+06 10.4175 1.00000
  5.623E+06 5.625E+06 2.088E+00 1.313E-01 3.120E+00 4.043E-01 3.656E+00 5.744E+00 1.689E+06 10.6473 1.00000
  6.310E+06 6.311E+06 2.101E+00 1.498E-01 3.538E+00 4.582E-01 4.146E+00 6.246E+00 1.803E+06 10.8774 1.00000
  7.079E+06 7.081E+06 2.113E+00 1.707E-01 4.008E+00 5.196E-01 4.699E+00 6.812E+00 1.921E+06 11.1076 1.00000
  7.943E+06 7.945E+06 2.125E+00 1.945E-01 4.539E+00 5.895E-01 5.323E+00 7.448E+00 2.043E+06 11.3378 1.00000
  8.913E+06 8.914E+06 2.137E+00 2.216E-01 5.137E+00 6.692E-01 6.027E+00 8.165E+00 2.167E+06 11.5680 1.00000
  1.000E+07 1.000E+07 2.149E+00 2.523E-01 5.810E+00 7.600E-01 6.822E+00 8.972E+00 2.294E+06 11.7982 1.00000
  1.122E+07 1.122E+07 2.161E+00 2.872E-01 6.568E+00 8.634E-01 7.718E+00 9.880E+00 2.424E+06 12.0284 1.00000
  1.259E+07 1.259E+07 2.173E+00 3.269E-01 7.421E+00 9.814E-01 8.729E+00 1.090E+01 2.556E+06 12.2586 1.00000
  1.413E+07 1.413E+07 2.185E+00 3.718E-01 8.380E+00 1.116E+00 9.868E+00 1.205E+01 2.690E+06 12.4889 1.00000
  1.585E+07 1.585E+07 2.196E+00 4.228E-01 9.460E+00 1.269E+00 1.115E+01 1.335E+01 2.826E+06 12.7191 1.00000
  1.778E+07 1.778E+07 2.208E+00 4.807E-01 1.067E+01 1.444E+00 1.260E+01 1.481E+01 2.964E+06 12.9493 1.00000
  1.995E+07 1.995E+07 2.219E+00 5.462E-01 1.204E+01 1.643E+00 1.423E+01 1.645E+01 3.103E+06 13.1796 1.00000
  2.239E+07 2.239E+07 2.230E+00 6.205E-01 1.357E+01 1.871E+00 1.607E+01 1.830E+01 3.244E+06 13.4098 1.00000
  2.512E+07 2.512E+07 2.242E+00 7.047E-01 1.530E+01 2.130E+00 1.813E+01 2.038E+01 3.386E+06 13.6400 1.00000
  2.818E+07 2.819E+07 2.253E+00 8.000E-01 1.724E+01 2.426E+00 2.046E+01 2.272E+01 3.528E+06 13.8703 1.00000
  3.162E+07 3.162E+07 2.264E+00 9.079E-01 1.942E+01 2.764E+00 2.309E+01 2.535E+01 3.672E+06 14.1005 1.00000
  3.548E+07 3.548E+07 2.275E+00 1.030E+00 2.186E+01 3.149E+00 2.604E+01 2.832E+01 3.816E+06 14.3308 1.00000
  3.981E+07 3.981E+07 2.286E+00 1.168E+00 2.461E+01 3.589E+00 2.937E+01 3.166E+01 3.961E+06 14.5610 1.00000
  4.467E+07 4.467E+07 2.298E+00 1.325E+00 2.770E+01 4.091E+00 3.312E+01 3.542E+01 4.106E+06 14.7913 1.00000
  5.012E+07 5.012E+07 2.309E+00 1.501E+00 3.117E+01 4.665E+00 3.734E+01 3.965E+01 4.252E+06 15.0215 1.00000
  5.623E+07 5.624E+07 2.320E+00 1.701E+00 3.507E+01 5.319E+00 4.209E+01 4.441E+01 4.398E+06 15.2518 1.00000
  6.310E+07 6.310E+07 2.331E+00 1.927E+00 3.944E+01 6.066E+00 4.743E+01 4.976E+01 4.544E+06 15.4820 1.00000
  7.079E+07 7.080E+07 2.342E+00 2.182E+00 4.435E+01 6.919E+00 5.345E+01 5.580E+01 4.690E+06 15.7123 1.00000
  7.943E+07 7.943E+07 2.353E+00 2.470E+00 4.987E+01 7.892E+00 6.023E+01 6.258E+01 4.837E+06 15.9425 1.00000
  8.913E+07 8.913E+07 2.364E+00 2.795E+00 5.606E+01 9.004E+00 6.786E+01 7.022E+01 4.983E+06 16.1728 1.00000
  1.000E+08 1.000E+08 2.375E+00 3.162E+00 6.301E+01 1.027E+01 7.644E+01 7.882E+01 5.130E+06 16.4030 1.00000
  1.122E+08 1.122E+08 2.387E+00 3.576E+00 7.081E+01 1.172E+01 8.611E+01 8.850E+01 5.276E+06 16.6333 1.00000
  1.259E+08 1.259E+08 2.398E+00 4.043E+00 7.957E+01 1.338E+01 9.699E+01 9.939E+01 5.422E+06 16.8635 1.00000
  1.413E+08 1.413E+08 2.409E+00 4.570E+00 8.940E+01 1.527E+01 1.092E+02 1.116E+02 5.568E+06 17.0938 1.00000
  1.585E+08 1.585E+08 2.420E+00 5.164E+00 1.004E+02 1.743E+01 1.230E+02 1.254E+02 5.714E+06 17.3241 1.00000
  1.778E+08 1.778E+08 2.432E+00 5.833E+00 1.128E+02 1.990E+01 1.385E+02 1.410E+02 5.860E+06 17.5543 1.00000
  1.995E+08 1.995E+08 2.443E+00 6.587E+00 1.267E+02 2.272E+01 1.560E+02 1.585E+02 6.005E+06 17.7846 1.00000
  2.239E+08 2.239E+08 2.454E+00 7.437E+00 1.423E+02 2.594E+01 1.757E+02 1.781E+02 6.150E+06 18.0148 1.00000
  2.512E+08 2.512E+08 2.466E+00 8.394E+00 1.598E+02 2.962E+01 1.978E+02 2.003E+02 6.295E+06 18.2451 1.00000
  2.818E+08 2.818E+08 2.477E+00 9.472E+00 1.795E+02 3.382E+01 2.228E+02 2.252E+02 6.440E+06 18.4753 1.00000
  3.162E+08 3.162E+08 2.489E+00 1.068E+01 2.015E+02 3.862E+01 2.508E+02 2.533E+02 6.584E+06 18.7056 1.00000
  3.548E+08 3.548E+08 2.500E+00 1.205E+01 2.263E+02 4.411E+01 2.824E+02 2.849E+02 6.728E+06 18.9359 1.00000
  3.981E+08 3.981E+08 2.512E+00 1.359E+01 2.540E+02 5.038E+01 3.180E+02 3.205E+02 6.871E+06 19.1661 1.00000
  4.467E+08 4.467E+08 2.524E+00 1.532E+01 2.852E+02 5.755E+01 3.581E+02 3.606E+02 7.015E+06 19.3964 1.00000
  5.012E+08 5.012E+08 2.536E+00 1.726E+01 3.202E+02 6.574E+01 4.032E+02 4.057E+02 7.157E+06 19.6266 1.00000
  5.623E+08 5.623E+08 2.547E+00 1.945E+01 3.594E+02 7.510E+01 4.539E+02 4.565E+02 7.300E+06 19.8569 1.00000
  6.310E+08 6.310E+08 2.559E+00 2.191E+01 4.034E+02 8.580E+01 5.111E+02 5.137E+02 7.442E+06 20.0871 1.00000
  7.079E+08 7.079E+08 2.571E+00 2.468E+01 4.528E+02 9.803E+01 5.755E+02 5.781E+02 7.583E+06 20.3174 1.00000
  7.943E+08 7.943E+08 2.583E+00 2.779E+01 5.082E+02 1.120E+02 6.480E+02 6.506E+02 7.724E+06 20.5477 1.00000
  8.913E+08 8.913E+08 2.595E+00 3.128E+01 5.705E+02 1.280E+02 7.297E+02 7.323E+02 7.865E+06 20.7779 1.00000
  1.000E+09 1.000E+09 2.607E+00 3.521E+01 6.402E+02 1.463E+02 8.217E+02 8.243E+02 8.005E+06 21.0082 1.00000
  1.122E+09 1.122E+09 2.620E+00 3.963E+01 7.186E+02 1.671E+02 9.253E+02 9.280E+02 8.145E+06 21.2384 1.00000
  1.259E+09 1.259E+09 2.632E+00 4.459E+01 8.064E+02 1.910E+02 1.042E+03 1.045E+03 8.284E+06 21.4687 1.00000
  1.413E+09 1.413E+09 2.644E+00 5.016E+01 9.050E+02 2.183E+02 1.174E+03 1.176E+03 8.423E+06 21.6989 1.00000
  1.585E+09 1.585E+09 2.657E+00 5.642E+01 1.016E+03 2.496E+02 1.322E+03 1.324E+03 8.561E+06 21.9292 1.00000
  1.778E+09 1.778E+09 2.669E+00 6.345E+01 1.140E+03 2.853E+02 1.489E+03 1.491E+03 8.699E+06 22.1595 1.00000
  1.995E+09 1.995E+09 2.681E+00 7.135E+01 1.279E+03 3.261E+02 1.677E+03 1.679E+03 8.837E+06 22.3897 1.00000
  2.239E+09 2.239E+09 2.694E+00 8.022E+01 1.435E+03 3.728E+02 1.888E+03 1.891E+03 8.973E+06 22.6200 1.00000
  2.512E+09 2.512E+09 2.707E+00 9.018E+01 1.611E+03 4.262E+02 2.127E+03 2.130E+03 9.110E+06 22.8502 1.00000
  2.818E+09 2.818E+09 2.719E+00 1.014E+02 1.807E+03 4.873E+02 2.396E+03 2.399E+03 9.246E+06 23.0805 1.00000
  3.162E+09 3.162E+09 2.732E+00 1.139E+02 2.028E+03 5.571E+02 2.699E+03 2.702E+03 9.381E+06 23.3108 1.00000
  3.548E+09 3.548E+09 2.745E+00 1.280E+02 2.276E+03 6.371E+02 3.041E+03 3.044E+03 9.516E+06 23.5410 1.00000
  3.981E+09 3.981E+09 2.758E+00 1.439E+02 2.554E+03 7.285E+02 3.426E+03 3.429E+03 9.650E+06 23.7713 1.00000
  4.467E+09 4.467E+09 2.771E+00 1.616E+02 2.866E+03 8.331E+02 3.860E+03 3.863E+03 9.784E+06 24.0015 1.00000
  5.012E+09 5.012E+09 2.784E+00 1.816E+02 3.216E+03 9.527E+02 4.350E+03 4.353E+03 9.917E+06 24.2318 1.00000
  5.623E+09 5.623E+09 2.797E+00 2.040E+02 3.608E+03 1.090E+03 4.902E+03 4.905E+03 1.005E+07 24.4620 1.00000
  6.310E+09 6.310E+09 2.811E+00 2.291E+02 4.049E+03 1.246E+03 5.524E+03 5.527E+03 1.018E+07 24.6923 1.00000
  7.079E+09 7.079E+09 2.824E+00 2.573E+02 4.543E+03 1.425E+03 6.226E+03 6.228E+03 1.031E+07 24.9226 1.00000
  7.943E+09 7.943E+09 2.837E+00 2.890E+02 5.097E+03 1.630E+03 7.017E+03 7.020E+03 1.044E+07 25.1528 1.00000
  8.913E+09 8.913E+09 2.851E+00 3.246E+02 5.720E+03 1.865E+03 7.909E+03 7.912E+03 1.057E+07 25.3831 1.00000
  1.000E+10 1.000E+10 2.864E+00 3.645E+02 6.418E+03 2.134E+03 8.916E+03 8.919E+03 1.070E+07 25.6133 1.00000
  1.122E+10 1.122E+10 2.878E+00 4.092E+02 7.201E+03 2.441E+03 1.005E+04 1.005E+04 1.083E+07 25.8436 1.00000
  1.259E+10 1.259E+10 2.892E+00 4.595E+02 8.080E+03 2.793E+03 1.133E+04 1.133E+04 1.096E+07 26.0739 1.00000
  1.413E+10 1.413E+10 2.905E+00 5.159E+02 9.066E+03 3.195E+03 1.278E+04 1.278E+04 1.109E+07 26.3041 1.00000
  1.585E+10 1.585E+10 2.919E+00 5.792E+02 1.017E+04 3.656E+03 1.441E+04 1.441E+04 1.122E+07 26.5344 1.00000
  1.778E+10 1.778E+10 2.933E+00 6.502E+02 1.141E+04 4.184E+03 1.625E+04 1.625E+04 1.134E+07 26.7646 1.00000
  1.995E+10 1.995E+10 2.947E+00 7.299E+02 1.281E+04 4.788E+03 1.832E+04 1.833E+04 1.147E+07 26.9949 1.00000
  2.239E+10 2.239E+10 2.961E+00 8.193E+02 1.437E+04 5.479E+03 2.067E+04 2.067E+04 1.159E+07 27.2252 1.00000
  2.512E+10 2.512E+10 2.975E+00 9.197E+02 1.612E+04 6.271E+03 2.331E+04 2.332E+04 1.172E+07 27.4554 1.00000
  2.818E+10 2.818E+10 2.990E+00 1.032E+03 1.809E+04 7.177E+03 2.630E+04 2.630E+04 1.184E+07 27.6857 1.00000
  3.162E+10 3.162E+10 3.004E+00 1.159E+03 2.030E+04 8.215E+03 2.967E+04 2.967E+04 1.197E+07 27.9159 1.00000
  3.548E+10 3.548E+10 3.018E+00 1.301E+03 2.277E+04 9.403E+03 3.348E+04 3.348E+04 1.209E+07 28.1462 1.00000
  3.981E+10 3.981E+10 3.033E+00 1.460E+03 2.555E+04 1.076E+04 3.777E+04 3.778E+04 1.221E+07 28.3764 1.00000
  4.467E+10 4.467E+10 3.047E+00 1.638E+03 2.867E+04 1.232E+04 4.263E+04 4.263E+04 1.233E+07 28.6067 1.00000
  5.012E+10 5.012E+10 3.062E+00 1.839E+03 3.217E+04 1.411E+04 4.811E+04 4.811E+04 1.245E+07 28.8370 1.00000
  5.623E+10 5.623E+10 3.077E+00 2.063E+03 3.609E+04 1.615E+04 5.430E+04 5.431E+04 1.257E+07 29.0672 1.00000
  6.310E+10 6.310E+10 3.092E+00 2.316E+03 4.049E+04 1.849E+04 6.130E+04 6.130E+04 1.269E+07 29.2975 1.00000
  7.079E+10 7.079E+10 3.106E+00 2.599E+03 4.543E+04 2.117E+04 6.920E+04 6.921E+04 1.281E+07 29.5277 1.00000
  7.943E+10 7.943E+10 3.121E+00 2.916E+03 5.097E+04 2.424E+04 7.814E+04 7.814E+04 1.293E+07 29.7580 1.00000
  8.913E+10 8.913E+10 3.136E+00 3.273E+03 5.719E+04 2.776E+04 8.823E+04 8.823E+04 1.304E+07 29.9883 1.00000
  1.000E+11 1.000E+11 3.152E+00 3.673E+03 6.417E+04 3.179E+04 9.964E+04 9.964E+04 1.316E+07 30.2185 1.00000
  1.122E+11 1.122E+11 3.167E+00 4.121E+03 7.200E+04 3.641E+04 1.125E+05 1.125E+05 1.328E+07 30.4488 1.00000
  1.259E+11 1.259E+11 3.182E+00 4.625E+03 8.078E+04 4.170E+04 1.271E+05 1.271E+05 1.339E+07 30.6790 1.00000
  1.413E+11 1.413E+11 3.198E+00 5.189E+03 9.064E+04 4.776E+04 1.436E+05 1.436E+05 1.350E+07 30.9093 1.00000
  1.585E+11 1.585E+11 3.213E+00 5.823E+03 1.017E+05 5.471E+04 1.622E+05 1.622E+05 1.362E+07 31.1395 1.00000
  1.778E+11 1.778E+11 3.229E+00 6.534E+03 1.141E+05 6.267E+04 1.833E+05 1.833E+05 1.373E+07 31.3698 1.00000
  1.995E+11 1.995E+11 3.244E+00 7.332E+03 1.280E+05 7.179E+04 2.071E+05 2.071E+05 1.384E+07 31.6001 1.00000
  2.239E+11 2.239E+11 3.260E+00 8.228E+03 1.436E+05 8.224E+04 2.341E+05 2.341E+05 1.395E+07 31.8303 1.00000
  2.512E+11 2.512E+11 3.276E+00 9.232E+03 1.612E+05 9.422E+04 2.646E+05 2.646E+05 1.406E+07 32.0606 1.00000
  2.818E+11 2.818E+11 3.292E+00 1.036E+04 1.808E+05 1.080E+05 2.991E+05 2.991E+05 1.417E+07 32.2908 1.00000
  3.162E+11 3.162E+11 3.308E+00 1.162E+04 2.029E+05 1.237E+05 3.382E+05 3.382E+05 1.428E+07 32.5211 1.00000
  3.548E+11 3.548E+11 3.324E+00 1.304E+04 2.276E+05 1.417E+05 3.824E+05 3.824E+05 1.439E+07 32.7514 1.00000
  3.981E+11 3.981E+11 3.340E+00 1.463E+04 2.554E+05 1.624E+05 4.324E+05 4.324E+05 1.449E+07 32.9816 1.00000
  4.467E+11 4.467E+11 3.356E+00 1.642E+04 2.865E+05 1.861E+05 4.891E+05 4.891E+05 1.460E+07 33.2119 1.00000
  5.012E+11 5.012E+11 3.373E+00 1.843E+04 3.215E+05 2.133E+05 5.532E+05 5.532E+05 1.471E+07 33.4421 1.00000
  5.623E+11 5.623E+11 3.389E+00 2.067E+04 3.607E+05 2.444E+05 6.258E+05 6.258E+05 1.481E+07 33.6724 1.00000
  6.310E+11 6.310E+11 3.406E+00 2.320E+04 4.047E+05 2.802E+05 7.081E+05 7.081E+05 1.491E+07 33.9026 1.00000
  7.079E+11 7.079E+11 3.423E+00 2.603E+04 4.541E+05 3.211E+05 8.012E+05 8.012E+05 1.501E+07 34.1329 1.00000
  7.943E+11 7.943E+11 3.439E+00 2.921E+04 5.095E+05 3.681E+05 9.067E+05 9.068E+05 1.512E+07 34.3632 1.00000
  8.913E+11 8.913E+11 3.456E+00 3.277E+04 5.716E+05 4.219E+05 1.026E+06 1.026E+06 1.522E+07 34.5934 1.00000
  1.000E+12 1.000E+12 3.473E+00 3.677E+04 6.413E+05 4.837E+05 1.162E+06 1.162E+06 1.532E+07 34.8237 1.00000
  1.122E+12 1.122E+12 3.490E+00 4.126E+04 7.195E+05 5.545E+05 1.315E+06 1.315E+06 1.542E+07 35.0539 1.00000
  1.259E+12 1.259E+12 3.507E+00 4.629E+04 8.073E+05 6.358E+05 1.489E+06 1.489E+06 1.551E+07 35.2842 1.00000
  1.413E+12 1.413E+12 3.524E+00 5.194E+04 9.058E+05 7.289E+05 1.687E+06 1.687E+06 1.561E+07 35.5145 1.00000
  1.585E+12 1.585E+12 3.542E+00 5.828E+04 1.016E+06 8.358E+05 1.910E+06 1.910E+06 1.571E+07 35.7447 1.00000
  1.778E+12 1.778E+12 3.559E+00 6.539E+04 1.140E+06 9.584E+05 2.164E+06 2.164E+06 1.580E+07 35.9750 1.00000
  1.995E+12 1.995E+12 3.577E+00 7.337E+04 1.279E+06 1.099E+06 2.452E+06 2.452E+06 1.590E+07 36.2052 1.00000
  2.239E+12 2.239E+12 3.594E+00 8.232E+04 1.435E+06 1.260E+06 2.778E+06 2.778E+06 1.599E+07 36.4355 1.00000
  2.512E+12 2.512E+12 3.612E+00 9.237E+04 1.610E+06 1.445E+06 3.148E+06 3.148E+06 1.608E+07 36.6657 1.00000
  2.818E+12 2.818E+12 3.630E+00 1.036E+05 1.807E+06 1.658E+06 3.568E+06 3.568E+06 1.617E+07 36.8960 1.00000
  3.162E+12 3.162E+12 3.648E+00 1.163E+05 2.027E+06 1.901E+06 4.045E+06 4.045E+06 1.627E+07 37.1263 1.00000
  3.548E+12 3.548E+12 3.666E+00 1.305E+05 2.274E+06 2.181E+06 4.586E+06 4.586E+06 1.635E+07 37.3565 1.00000
  3.981E+12 3.981E+12 3.684E+00 1.464E+05 2.552E+06 2.501E+06 5.200E+06 5.200E+06 1.644E+07 37.5868 1.00000
  4.467E+12 4.467E+12 3.702E+00 1.643E+05 2.863E+06 2.869E+06 5.897E+06 5.897E+06 1.653E+07 37.8170 1.00000
  5.012E+12 5.012E+12 3.720E+00 1.843E+05 3.212E+06 3.292E+06 6.688E+06 6.688E+06 1.662E+07 38.0473 1.00000
  5.623E+12 5.623E+12 3.739E+00 2.068E+05 3.604E+06 3.776E+06 7.587E+06 7.587E+06 1.670E+07 38.2776 1.00000
  6.310E+12 6.310E+12 3.757E+00 2.320E+05 4.044E+06 4.333E+06 8.608E+06 8.608E+06 1.679E+07 38.5078 1.00000
  7.079E+12 7.079E+12 3.776E+00 2.603E+05 4.537E+06 4.971E+06 9.768E+06 9.768E+06 1.687E+07 38.7381 1.00000
  7.943E+12 7.943E+12 3.795E+00 2.921E+05 5.090E+06 5.704E+06 1.109E+07 1.109E+07 1.696E+07 38.9683 1.00000
  8.913E+12 8.913E+12 3.813E+00 3.278E+05 5.711E+06 6.545E+06 1.258E+07 1.258E+07 1.704E+07 39.1986 1.00000
  1.000E+13 1.000E+13 3.832E+00 3.677E+05 6.408E+06 7.511E+06 1.429E+07 1.429E+07 1.712E+07 39.4289 1.00000
  1.122E+13 1.122E+13 3.851E+00 4.126E+05 7.189E+06 8.619E+06 1.622E+07 1.622E+07 1.720E+07 39.6591 1.00000
  1.259E+13 1.259E+13 3.870E+00 4.630E+05 8.066E+06 9.891E+06 1.842E+07 1.842E+07 1.728E+07 39.8894 1.00000
  1.413E+13 1.413E+13 3.890E+00 5.195E+05 9.050E+06 1.135E+07 2.092E+07 2.092E+07 1.736E+07 40.1196 1.00000
  1.585E+13 1.585E+13 3.909E+00 5.828E+05 1.015E+07 1.303E+07 2.377E+07 2.377E+07 1.744E+07 40.3499 1.00000
  1.778E+13 1.778E+13 3.928E+00 6.540E+05 1.139E+07 1.495E+07 2.700E+07 2.700E+07 1.751E+07 40.5801 1.00000
  1.995E+13 1.995E+13 3.948E+00 7.338E+05 1.278E+07 1.717E+07 3.068E+07 3.068E+07 1.759E+07 40.8104 1.00000
  2.239E+13 2.239E+13 3.968E+00 8.233E+05 1.434E+07 1.971E+07 3.487E+07 3.487E+07 1.766E+07 41.0407 1.00000
  2.512E+13 2.512E+13 3.987E+00 9.237E+05 1.609E+07 2.262E+07 3.963E+07 3.963E+07 1.774E+07 41.2709 1.00000
  2.818E+13 2.818E+13 4.007E+00 1.036E+06 1.805E+07 2.597E+07 4.506E+07 4.506E+07 1.781E+07 41.5012 1.00000
  3.162E+13 3.162E+13 4.027E+00 1.163E+06 2.025E+07 2.981E+07 5.123E+07 5.123E+07 1.788E+07 41.7314 1.00000
  3.548E+13 3.548E+13 4.047E+00 1.305E+06 2.272E+07 3.423E+07 5.826E+07 5.826E+07 1.795E+07 41.9617 1.00000
  3.981E+13 3.981E+13 4.067E+00 1.464E+06 2.549E+07 3.930E+07 6.626E+07 6.626E+07 1.802E+07 42.1920 1.00000
  4.467E+13 4.467E+13 4.088E+00 1.643E+06 2.860E+07 4.513E+07 7.537E+07 7.537E+07 1.809E+07 42.4222 1.00000
  5.012E+13 5.012E+13 4.108E+00 1.843E+06 3.209E+07 5.182E+07 8.575E+07 8.575E+07 1.816E+07 42.6525 1.00000
  5.623E+13 5.623E+13 4.129E+00 2.068E+06 3.600E+07 5.951E+07 9.758E+07 9.758E+07 1.823E+07 42.8827 1.00000
  6.310E+13 6.310E+13 4.149E+00 2.320E+06 4.040E+07 6.834E+07 1.111E+08 1.111E+08 1.829E+07 43.1130 1.00000
  7.079E+13 7.079E+13 4.170E+00 2.603E+06 4.532E+07 7.848E+07 1.264E+08 1.264E+08 1.836E+07 43.3432 1.00000
  7.943E+13 7.943E+13 4.191E+00 2.921E+06 5.085E+07 9.014E+07 1.439E+08 1.439E+08 1.842E+07 43.5735 1.00000
  8.913E+13 8.913E+13 4.212E+00 3.278E+06 5.705E+07 1.035E+08 1.639E+08 1.639E+08 1.848E+07 43.8038 1.00000
