 Incident particle is a Tau with M = 1776.82000 MeV
 Index = 0: Plutonium
      Absorber with <Z/A> = 0.38514
 Sternheimer coef:  a     k=m_s   x_0    x_1    I[eV]   Cbar  delta0
                 0.2042  2.7679  0.1557  3.3981  921.0  5.8748 0.14

 *** Table generated with PUMAS v1.00 ***

      T         p     Ionization  brems     pair     photonuc  Radloss    dE/dx   CSDA Range  delta   beta
    [MeV]    [MeV/c]  -----------------------[MeV cm^2/g]------------------------  [g/cm^2]
  1.000E+05 1.018E+05 1.498E+00 1.148E-03 2.069E-02 7.505E-03 2.935E-02 1.527E+00 3.274E+04  3.0240 0.99985
  1.122E+05 1.140E+05 1.516E+00 1.332E-03 2.477E-02 8.419E-03 3.452E-02 1.550E+00 4.067E+04  3.1856 0.99988
  1.259E+05 1.277E+05 1.533E+00 1.544E-03 2.956E-02 9.396E-03 4.050E-02 1.574E+00 4.943E+04  3.3510 0.99990
  1.413E+05 1.430E+05 1.550E+00 1.790E-03 3.518E-02 1.049E-02 4.746E-02 1.598E+00 5.912E+04  3.5200 0.99992
  1.585E+05 1.603E+05 1.568E+00 2.073E-03 4.176E-02 1.170E-02 5.554E-02 1.623E+00 6.982E+04  3.6925 0.99994
  1.778E+05 1.796E+05 1.585E+00 2.399E-03 4.945E-02 1.305E-02 6.490E-02 1.650E+00 8.164E+04  3.8685 0.99995
  1.995E+05 2.013E+05 1.602E+00 2.774E-03 5.842E-02 1.458E-02 7.577E-02 1.677E+00 9.469E+04  4.0479 0.99996
  2.239E+05 2.256E+05 1.618E+00 3.207E-03 6.886E-02 1.623E-02 8.830E-02 1.707E+00 1.091E+05  4.2305 0.99997
  2.512E+05 2.530E+05 1.635E+00 3.705E-03 8.099E-02 1.808E-02 1.028E-01 1.738E+00 1.249E+05  4.4163 0.99998
  2.818E+05 2.836E+05 1.651E+00 4.278E-03 9.504E-02 2.015E-02 1.195E-01 1.771E+00 1.424E+05  4.6051 0.99998
  3.162E+05 3.180E+05 1.667E+00 4.937E-03 1.113E-01 2.247E-02 1.387E-01 1.806E+00 1.617E+05  4.7969 0.99998
  3.548E+05 3.566E+05 1.683E+00 5.693E-03 1.301E-01 2.507E-02 1.609E-01 1.844E+00 1.828E+05  4.9916 0.99999
  3.981E+05 3.999E+05 1.699E+00 6.562E-03 1.518E-01 2.795E-02 1.863E-01 1.886E+00 2.060E+05  5.1890 0.99999
  4.467E+05 4.485E+05 1.715E+00 7.560E-03 1.768E-01 3.117E-02 2.155E-01 1.930E+00 2.315E+05  5.3891 0.99999
  5.012E+05 5.030E+05 1.730E+00 8.705E-03 2.055E-01 3.477E-02 2.490E-01 1.979E+00 2.594E+05  5.5918 0.99999
  5.623E+05 5.641E+05 1.746E+00 1.002E-02 2.385E-01 3.865E-02 2.872E-01 2.033E+00 2.898E+05  5.7969 1.00000
  6.310E+05 6.327E+05 1.761E+00 1.152E-02 2.763E-01 4.300E-02 3.309E-01 2.092E+00 3.231E+05  6.0044 1.00000
  7.079E+05 7.097E+05 1.776E+00 1.324E-02 3.197E-01 4.790E-02 3.808E-01 2.157E+00 3.594E+05  6.2141 1.00000
  7.943E+05 7.961E+05 1.791E+00 1.522E-02 3.693E-01 5.341E-02 4.379E-01 2.229E+00 3.988E+05  6.4260 1.00000
  8.913E+05 8.930E+05 1.806E+00 1.748E-02 4.260E-01 5.962E-02 5.031E-01 2.309E+00 4.415E+05  6.6399 1.00000
  1.000E+06 1.002E+06 1.820E+00 2.006E-02 4.907E-01 6.662E-02 5.774E-01 2.397E+00 4.877E+05  6.8558 1.00000
  1.122E+06 1.124E+06 1.834E+00 2.302E-02 5.645E-01 7.453E-02 6.620E-01 2.496E+00 5.376E+05  7.0735 1.00000
  1.259E+06 1.261E+06 1.848E+00 2.640E-02 6.485E-01 8.346E-02 7.584E-01 2.607E+00 5.913E+05  7.2929 1.00000
  1.413E+06 1.414E+06 1.862E+00 3.026E-02 7.441E-01 9.357E-02 8.679E-01 2.730E+00 6.489E+05  7.5139 1.00000
  1.585E+06 1.587E+06 1.876E+00 3.467E-02 8.528E-01 1.050E-01 9.925E-01 2.869E+00 7.105E+05  7.7364 1.00000
  1.778E+06 1.780E+06 1.890E+00 3.971E-02 9.763E-01 1.180E-01 1.134E+00 3.024E+00 7.762E+05  7.9602 1.00000
  1.995E+06 1.997E+06 1.903E+00 4.546E-02 1.116E+00 1.326E-01 1.294E+00 3.198E+00 8.460E+05  8.1853 1.00000
  2.239E+06 2.240E+06 1.917E+00 5.202E-02 1.275E+00 1.493E-01 1.477E+00 3.393E+00 9.199E+05  8.4116 1.00000
  2.512E+06 2.514E+06 1.930E+00 5.951E-02 1.455E+00 1.682E-01 1.683E+00 3.613E+00 9.980E+05  8.6388 1.00000
  2.818E+06 2.820E+06 1.943E+00 6.804E-02 1.659E+00 1.896E-01 1.917E+00 3.859E+00 1.080E+06  8.8669 1.00000
  3.162E+06 3.164E+06 1.955E+00 7.777E-02 1.890E+00 2.140E-01 2.181E+00 4.137E+00 1.166E+06  9.0958 1.00000
  3.548E+06 3.550E+06 1.968E+00 8.885E-02 2.150E+00 2.417E-01 2.481E+00 4.449E+00 1.256E+06  9.3252 1.00000
  3.981E+06 3.983E+06 1.981E+00 1.015E-01 2.445E+00 2.731E-01 2.819E+00 4.800E+00 1.350E+06  9.5551 1.00000
  4.467E+06 4.469E+06 1.993E+00 1.158E-01 2.778E+00 3.089E-01 3.202E+00 5.195E+00 1.447E+06  9.7852 1.00000
  5.012E+06 5.014E+06 2.005E+00 1.322E-01 3.153E+00 3.496E-01 3.635E+00 5.640E+00 1.548E+06 10.0154 1.00000
  5.623E+06 5.625E+06 2.017E+00 1.508E-01 3.577E+00 3.960E-01 4.124E+00 6.141E+00 1.652E+06 10.2456 1.00000
  6.310E+06 6.311E+06 2.029E+00 1.720E-01 4.055E+00 4.487E-01 4.675E+00 6.705E+00 1.759E+06 10.4758 1.00000
  7.079E+06 7.081E+06 2.041E+00 1.961E-01 4.593E+00 5.087E-01 5.298E+00 7.339E+00 1.869E+06 10.7060 1.00000
  7.943E+06 7.945E+06 2.053E+00 2.234E-01 5.200E+00 5.771E-01 6.001E+00 8.054E+00 1.982E+06 10.9362 1.00000
  8.913E+06 8.914E+06 2.065E+00 2.545E-01 5.884E+00 6.551E-01 6.794E+00 8.858E+00 2.096E+06 11.1664 1.00000
  1.000E+07 1.000E+07 2.076E+00 2.898E-01 6.654E+00 7.438E-01 7.688E+00 9.764E+00 2.213E+06 11.3966 1.00000
  1.122E+07 1.122E+07 2.087E+00 3.299E-01 7.521E+00 8.450E-01 8.696E+00 1.078E+01 2.333E+06 11.6268 1.00000
  1.259E+07 1.259E+07 2.099E+00 3.754E-01 8.496E+00 9.603E-01 9.832E+00 1.193E+01 2.453E+06 11.8570 1.00000
  1.413E+07 1.413E+07 2.110E+00 4.270E-01 9.593E+00 1.092E+00 1.111E+01 1.322E+01 2.576E+06 12.0873 1.00000
  1.585E+07 1.585E+07 2.121E+00 4.856E-01 1.083E+01 1.242E+00 1.255E+01 1.468E+01 2.700E+06 12.3175 1.00000
  1.778E+07 1.778E+07 2.132E+00 5.520E-01 1.222E+01 1.413E+00 1.418E+01 1.631E+01 2.825E+06 12.5477 1.00000
  1.995E+07 1.995E+07 2.143E+00 6.273E-01 1.378E+01 1.608E+00 1.601E+01 1.815E+01 2.951E+06 12.7780 1.00000
  2.239E+07 2.239E+07 2.154E+00 7.126E-01 1.553E+01 1.830E+00 1.807E+01 2.023E+01 3.078E+06 13.0082 1.00000
  2.512E+07 2.512E+07 2.165E+00 8.093E-01 1.750E+01 2.084E+00 2.040E+01 2.256E+01 3.206E+06 13.2384 1.00000
  2.818E+07 2.819E+07 2.176E+00 9.187E-01 1.972E+01 2.373E+00 2.301E+01 2.519E+01 3.335E+06 13.4687 1.00000
  3.162E+07 3.162E+07 2.187E+00 1.043E+00 2.221E+01 2.704E+00 2.595E+01 2.814E+01 3.465E+06 13.6989 1.00000
  3.548E+07 3.548E+07 2.197E+00 1.183E+00 2.500E+01 3.081E+00 2.927E+01 3.147E+01 3.595E+06 13.9292 1.00000
  3.981E+07 3.981E+07 2.208E+00 1.341E+00 2.815E+01 3.511E+00 3.300E+01 3.521E+01 3.725E+06 14.1594 1.00000
  4.467E+07 4.467E+07 2.219E+00 1.521E+00 3.167E+01 4.002E+00 3.720E+01 3.942E+01 3.855E+06 14.3897 1.00000
  5.012E+07 5.012E+07 2.230E+00 1.724E+00 3.564E+01 4.562E+00 4.192E+01 4.415E+01 3.986E+06 14.6199 1.00000
  5.623E+07 5.624E+07 2.240E+00 1.953E+00 4.009E+01 5.202E+00 4.724E+01 4.948E+01 4.117E+06 14.8502 1.00000
  6.310E+07 6.310E+07 2.251E+00 2.212E+00 4.509E+01 5.932E+00 5.323E+01 5.548E+01 4.248E+06 15.0804 1.00000
  7.079E+07 7.080E+07 2.262E+00 2.504E+00 5.070E+01 6.766E+00 5.997E+01 6.223E+01 4.380E+06 15.3107 1.00000
  7.943E+07 7.943E+07 2.272E+00 2.835E+00 5.700E+01 7.718E+00 6.755E+01 6.982E+01 4.511E+06 15.5409 1.00000
  8.913E+07 8.913E+07 2.283E+00 3.208E+00 6.407E+01 8.806E+00 7.608E+01 7.837E+01 4.642E+06 15.7712 1.00000
  1.000E+08 1.000E+08 2.294E+00 3.628E+00 7.201E+01 1.005E+01 8.569E+01 8.798E+01 4.773E+06 16.0014 1.00000
  1.122E+08 1.122E+08 2.305E+00 4.103E+00 8.092E+01 1.146E+01 9.649E+01 9.880E+01 4.905E+06 16.2317 1.00000
  1.259E+08 1.259E+08 2.315E+00 4.639E+00 9.093E+01 1.308E+01 1.086E+02 1.110E+02 5.035E+06 16.4619 1.00000
  1.413E+08 1.413E+08 2.326E+00 5.243E+00 1.022E+02 1.493E+01 1.223E+02 1.247E+02 5.166E+06 16.6922 1.00000
  1.585E+08 1.585E+08 2.337E+00 5.923E+00 1.148E+02 1.705E+01 1.377E+02 1.401E+02 5.297E+06 16.9225 1.00000
  1.778E+08 1.778E+08 2.348E+00 6.690E+00 1.289E+02 1.946E+01 1.551E+02 1.574E+02 5.427E+06 17.1527 1.00000
  1.995E+08 1.995E+08 2.359E+00 7.555E+00 1.448E+02 2.222E+01 1.746E+02 1.769E+02 5.558E+06 17.3830 1.00000
  2.239E+08 2.239E+08 2.370E+00 8.529E+00 1.626E+02 2.536E+01 1.965E+02 1.989E+02 5.688E+06 17.6132 1.00000
  2.512E+08 2.512E+08 2.381E+00 9.625E+00 1.826E+02 2.896E+01 2.212E+02 2.236E+02 5.817E+06 17.8435 1.00000
  2.818E+08 2.818E+08 2.392E+00 1.086E+01 2.050E+02 3.307E+01 2.490E+02 2.514E+02 5.947E+06 18.0737 1.00000
  3.162E+08 3.162E+08 2.403E+00 1.225E+01 2.302E+02 3.777E+01 2.802E+02 2.826E+02 6.076E+06 18.3040 1.00000
  3.548E+08 3.548E+08 2.414E+00 1.381E+01 2.585E+02 4.314E+01 3.154E+02 3.179E+02 6.205E+06 18.5343 1.00000
  3.981E+08 3.981E+08 2.425E+00 1.557E+01 2.902E+02 4.927E+01 3.550E+02 3.575E+02 6.334E+06 18.7645 1.00000
  4.467E+08 4.467E+08 2.437E+00 1.756E+01 3.258E+02 5.628E+01 3.996E+02 4.021E+02 6.462E+06 18.9948 1.00000
  5.012E+08 5.012E+08 2.448E+00 1.978E+01 3.657E+02 6.429E+01 4.498E+02 4.522E+02 6.590E+06 19.2250 1.00000
  5.623E+08 5.623E+08 2.459E+00 2.229E+01 4.105E+02 7.344E+01 5.063E+02 5.087E+02 6.718E+06 19.4553 1.00000
  6.310E+08 6.310E+08 2.471E+00 2.511E+01 4.608E+02 8.390E+01 5.698E+02 5.723E+02 6.845E+06 19.6855 1.00000
  7.079E+08 7.079E+08 2.482E+00 2.827E+01 5.173E+02 9.586E+01 6.414E+02 6.439E+02 6.972E+06 19.9158 1.00000
  7.943E+08 7.943E+08 2.494E+00 3.183E+01 5.806E+02 1.095E+02 7.219E+02 7.244E+02 7.099E+06 20.1461 1.00000
  8.913E+08 8.913E+08 2.506E+00 3.583E+01 6.516E+02 1.252E+02 8.126E+02 8.151E+02 7.225E+06 20.3763 1.00000
  1.000E+09 1.000E+09 2.517E+00 4.033E+01 7.313E+02 1.430E+02 9.147E+02 9.172E+02 7.351E+06 20.6066 1.00000
  1.122E+09 1.122E+09 2.529E+00 4.539E+01 8.208E+02 1.634E+02 1.030E+03 1.032E+03 7.477E+06 20.8368 1.00000
  1.259E+09 1.259E+09 2.541E+00 5.106E+01 9.211E+02 1.868E+02 1.159E+03 1.162E+03 7.602E+06 21.0671 1.00000
  1.413E+09 1.413E+09 2.553E+00 5.744E+01 1.034E+03 2.135E+02 1.305E+03 1.307E+03 7.727E+06 21.2973 1.00000
  1.585E+09 1.585E+09 2.565E+00 6.461E+01 1.160E+03 2.440E+02 1.469E+03 1.471E+03 7.852E+06 21.5276 1.00000
  1.778E+09 1.778E+09 2.577E+00 7.266E+01 1.302E+03 2.789E+02 1.654E+03 1.656E+03 7.976E+06 21.7579 1.00000
  1.995E+09 1.995E+09 2.589E+00 8.169E+01 1.461E+03 3.189E+02 1.862E+03 1.864E+03 8.100E+06 21.9881 1.00000
  2.239E+09 2.239E+09 2.601E+00 9.185E+01 1.639E+03 3.645E+02 2.096E+03 2.098E+03 8.223E+06 22.2184 1.00000
  2.512E+09 2.512E+09 2.613E+00 1.032E+02 1.840E+03 4.168E+02 2.360E+03 2.362E+03 8.346E+06 22.4486 1.00000
  2.818E+09 2.818E+09 2.625E+00 1.160E+02 2.064E+03 4.765E+02 2.657E+03 2.660E+03 8.468E+06 22.6789 1.00000
  3.162E+09 3.162E+09 2.638E+00 1.304E+02 2.317E+03 5.448E+02 2.992E+03 2.994E+03 8.590E+06 22.9092 1.00000
  3.548E+09 3.548E+09 2.650E+00 1.465E+02 2.600E+03 6.229E+02 3.369E+03 3.372E+03 8.712E+06 23.1394 1.00000
  3.981E+09 3.981E+09 2.662E+00 1.647E+02 2.917E+03 7.123E+02 3.794E+03 3.797E+03 8.833E+06 23.3697 1.00000
  4.467E+09 4.467E+09 2.675E+00 1.850E+02 3.273E+03 8.146E+02 4.273E+03 4.275E+03 8.954E+06 23.5999 1.00000
  5.012E+09 5.012E+09 2.688E+00 2.078E+02 3.673E+03 9.316E+02 4.812E+03 4.815E+03 9.074E+06 23.8302 1.00000
  5.623E+09 5.623E+09 2.700E+00 2.334E+02 4.121E+03 1.065E+03 5.420E+03 5.423E+03 9.194E+06 24.0604 1.00000
  6.310E+09 6.310E+09 2.713E+00 2.622E+02 4.624E+03 1.219E+03 6.105E+03 6.108E+03 9.314E+06 24.2907 1.00000
  7.079E+09 7.079E+09 2.726E+00 2.945E+02 5.189E+03 1.394E+03 6.877E+03 6.880E+03 9.433E+06 24.5210 1.00000
  7.943E+09 7.943E+09 2.739E+00 3.307E+02 5.822E+03 1.594E+03 7.747E+03 7.750E+03 9.551E+06 24.7512 1.00000
  8.913E+09 8.913E+09 2.752E+00 3.714E+02 6.533E+03 1.824E+03 8.728E+03 8.731E+03 9.669E+06 24.9815 1.00000
  1.000E+10 1.000E+10 2.765E+00 4.170E+02 7.330E+03 2.086E+03 9.833E+03 9.836E+03 9.787E+06 25.2117 1.00000
  1.122E+10 1.122E+10 2.778E+00 4.682E+02 8.224E+03 2.387E+03 1.108E+04 1.108E+04 9.904E+06 25.4420 1.00000
  1.259E+10 1.259E+10 2.791E+00 5.257E+02 9.228E+03 2.731E+03 1.248E+04 1.249E+04 1.002E+07 25.6723 1.00000
  1.413E+10 1.413E+10 2.804E+00 5.902E+02 1.035E+04 3.125E+03 1.407E+04 1.407E+04 1.014E+07 25.9025 1.00000
  1.585E+10 1.585E+10 2.818E+00 6.626E+02 1.162E+04 3.575E+03 1.586E+04 1.586E+04 1.025E+07 26.1328 1.00000
  1.778E+10 1.778E+10 2.831E+00 7.439E+02 1.304E+04 4.091E+03 1.787E+04 1.787E+04 1.037E+07 26.3630 1.00000
  1.995E+10 1.995E+10 2.844E+00 8.350E+02 1.463E+04 4.682E+03 2.014E+04 2.015E+04 1.048E+07 26.5933 1.00000
  2.239E+10 2.239E+10 2.858E+00 9.373E+02 1.641E+04 5.358E+03 2.271E+04 2.271E+04 1.060E+07 26.8236 1.00000
  2.512E+10 2.512E+10 2.872E+00 1.052E+03 1.841E+04 6.132E+03 2.560E+04 2.560E+04 1.071E+07 27.0538 1.00000
  2.818E+10 2.818E+10 2.885E+00 1.181E+03 2.066E+04 7.018E+03 2.886E+04 2.886E+04 1.082E+07 27.2841 1.00000
  3.162E+10 3.162E+10 2.899E+00 1.325E+03 2.318E+04 8.033E+03 3.254E+04 3.254E+04 1.093E+07 27.5143 1.00000
  3.548E+10 3.548E+10 2.913E+00 1.488E+03 2.601E+04 9.195E+03 3.669E+04 3.669E+04 1.105E+07 27.7446 1.00000
  3.981E+10 3.981E+10 2.927E+00 1.670E+03 2.918E+04 1.053E+04 4.138E+04 4.138E+04 1.116E+07 27.9748 1.00000
  4.467E+10 4.467E+10 2.941E+00 1.874E+03 3.274E+04 1.205E+04 4.667E+04 4.667E+04 1.127E+07 28.2051 1.00000
  5.012E+10 5.012E+10 2.955E+00 2.103E+03 3.674E+04 1.379E+04 5.263E+04 5.264E+04 1.138E+07 28.4354 1.00000
  5.623E+10 5.623E+10 2.969E+00 2.360E+03 4.122E+04 1.579E+04 5.937E+04 5.937E+04 1.149E+07 28.6656 1.00000
  6.310E+10 6.310E+10 2.984E+00 2.649E+03 4.625E+04 1.808E+04 6.698E+04 6.698E+04 1.160E+07 28.8959 1.00000
  7.079E+10 7.079E+10 2.998E+00 2.972E+03 5.189E+04 2.070E+04 7.557E+04 7.557E+04 1.171E+07 29.1261 1.00000
  7.943E+10 7.943E+10 3.012E+00 3.336E+03 5.822E+04 2.371E+04 8.526E+04 8.527E+04 1.181E+07 29.3564 1.00000
  8.913E+10 8.913E+10 3.027E+00 3.743E+03 6.532E+04 2.715E+04 9.621E+04 9.622E+04 1.192E+07 29.5867 1.00000
  1.000E+11 1.000E+11 3.041E+00 4.201E+03 7.329E+04 3.109E+04 1.086E+05 1.086E+05 1.203E+07 29.8169 1.00000
  1.122E+11 1.122E+11 3.056E+00 4.714E+03 8.223E+04 3.560E+04 1.226E+05 1.226E+05 1.213E+07 30.0472 1.00000
  1.259E+11 1.259E+11 3.071E+00 5.289E+03 9.226E+04 4.078E+04 1.383E+05 1.383E+05 1.224E+07 30.2774 1.00000
  1.413E+11 1.413E+11 3.086E+00 5.935E+03 1.035E+05 4.671E+04 1.562E+05 1.562E+05 1.234E+07 30.5077 1.00000
  1.585E+11 1.585E+11 3.101E+00 6.660E+03 1.161E+05 5.350E+04 1.763E+05 1.763E+05 1.245E+07 30.7379 1.00000
  1.778E+11 1.778E+11 3.116E+00 7.474E+03 1.303E+05 6.128E+04 1.991E+05 1.991E+05 1.255E+07 30.9682 1.00000
  1.995E+11 1.995E+11 3.131E+00 8.386E+03 1.462E+05 7.020E+04 2.248E+05 2.248E+05 1.265E+07 31.1985 1.00000
  2.239E+11 2.239E+11 3.146E+00 9.410E+03 1.640E+05 8.042E+04 2.539E+05 2.539E+05 1.276E+07 31.4287 1.00000
  2.512E+11 2.512E+11 3.161E+00 1.056E+04 1.841E+05 9.214E+04 2.868E+05 2.868E+05 1.286E+07 31.6590 1.00000
  2.818E+11 2.818E+11 3.177E+00 1.185E+04 2.065E+05 1.056E+05 3.239E+05 3.239E+05 1.296E+07 31.8892 1.00000
  3.162E+11 3.162E+11 3.192E+00 1.329E+04 2.317E+05 1.210E+05 3.660E+05 3.660E+05 1.306E+07 32.1195 1.00000
  3.548E+11 3.548E+11 3.208E+00 1.492E+04 2.600E+05 1.386E+05 4.135E+05 4.135E+05 1.316E+07 32.3498 1.00000
  3.981E+11 3.981E+11 3.223E+00 1.674E+04 2.917E+05 1.588E+05 4.672E+05 4.672E+05 1.326E+07 32.5800 1.00000
  4.467E+11 4.467E+11 3.239E+00 1.878E+04 3.273E+05 1.820E+05 5.280E+05 5.280E+05 1.335E+07 32.8103 1.00000
  5.012E+11 5.012E+11 3.255E+00 2.107E+04 3.672E+05 2.086E+05 5.968E+05 5.968E+05 1.345E+07 33.0405 1.00000
  5.623E+11 5.623E+11 3.270E+00 2.365E+04 4.120E+05 2.390E+05 6.746E+05 6.746E+05 1.355E+07 33.2708 1.00000
  6.310E+11 6.310E+11 3.286E+00 2.653E+04 4.622E+05 2.740E+05 7.627E+05 7.627E+05 1.364E+07 33.5010 1.00000
  7.079E+11 7.079E+11 3.302E+00 2.977E+04 5.186E+05 3.140E+05 8.624E+05 8.624E+05 1.374E+07 33.7313 1.00000
  7.943E+11 7.943E+11 3.319E+00 3.340E+04 5.819E+05 3.599E+05 9.752E+05 9.752E+05 1.383E+07 33.9616 1.00000
  8.913E+11 8.913E+11 3.335E+00 3.748E+04 6.528E+05 4.126E+05 1.103E+06 1.103E+06 1.393E+07 34.1918 1.00000
  1.000E+12 1.000E+12 3.351E+00 4.205E+04 7.325E+05 4.730E+05 1.248E+06 1.248E+06 1.402E+07 34.4221 1.00000
  1.122E+12 1.122E+12 3.368E+00 4.718E+04 8.218E+05 5.422E+05 1.411E+06 1.411E+06 1.411E+07 34.6523 1.00000
  1.259E+12 1.259E+12 3.384E+00 5.294E+04 9.221E+05 6.217E+05 1.597E+06 1.597E+06 1.420E+07 34.8826 1.00000
  1.413E+12 1.413E+12 3.401E+00 5.940E+04 1.035E+06 7.128E+05 1.807E+06 1.807E+06 1.429E+07 35.1129 1.00000
  1.585E+12 1.585E+12 3.417E+00 6.665E+04 1.161E+06 8.173E+05 2.045E+06 2.045E+06 1.438E+07 35.3431 1.00000
  1.778E+12 1.778E+12 3.434E+00 7.479E+04 1.302E+06 9.371E+05 2.314E+06 2.314E+06 1.447E+07 35.5734 1.00000
  1.995E+12 1.995E+12 3.451E+00 8.391E+04 1.461E+06 1.075E+06 2.620E+06 2.620E+06 1.456E+07 35.8036 1.00000
  2.239E+12 2.239E+12 3.468E+00 9.415E+04 1.639E+06 1.232E+06 2.966E+06 2.966E+06 1.465E+07 36.0339 1.00000
  2.512E+12 2.512E+12 3.485E+00 1.056E+05 1.839E+06 1.413E+06 3.358E+06 3.358E+06 1.474E+07 36.2641 1.00000
  2.818E+12 2.818E+12 3.502E+00 1.185E+05 2.064E+06 1.621E+06 3.803E+06 3.803E+06 1.482E+07 36.4944 1.00000
  3.162E+12 3.162E+12 3.519E+00 1.330E+05 2.315E+06 1.859E+06 4.307E+06 4.307E+06 1.491E+07 36.7247 1.00000
  3.548E+12 3.548E+12 3.537E+00 1.492E+05 2.598E+06 2.132E+06 4.879E+06 4.879E+06 1.499E+07 36.9549 1.00000
  3.981E+12 3.981E+12 3.554E+00 1.674E+05 2.915E+06 2.446E+06 5.528E+06 5.528E+06 1.507E+07 37.1852 1.00000
  4.467E+12 4.467E+12 3.572E+00 1.879E+05 3.270E+06 2.806E+06 6.264E+06 6.264E+06 1.516E+07 37.4154 1.00000
  5.012E+12 5.012E+12 3.589E+00 2.108E+05 3.669E+06 3.219E+06 7.099E+06 7.099E+06 1.524E+07 37.6457 1.00000
  5.623E+12 5.623E+12 3.607E+00 2.365E+05 4.116E+06 3.693E+06 8.046E+06 8.046E+06 1.532E+07 37.8760 1.00000
  6.310E+12 6.310E+12 3.625E+00 2.654E+05 4.618E+06 4.237E+06 9.121E+06 9.121E+06 1.540E+07 38.1062 1.00000
  7.079E+12 7.079E+12 3.643E+00 2.977E+05 5.182E+06 4.861E+06 1.034E+07 1.034E+07 1.548E+07 38.3365 1.00000
  7.943E+12 7.943E+12 3.661E+00 3.341E+05 5.814E+06 5.578E+06 1.173E+07 1.173E+07 1.556E+07 38.5667 1.00000
  8.913E+12 8.913E+12 3.679E+00 3.748E+05 6.523E+06 6.400E+06 1.330E+07 1.330E+07 1.564E+07 38.7970 1.00000
  1.000E+13 1.000E+13 3.697E+00 4.206E+05 7.318E+06 7.344E+06 1.508E+07 1.508E+07 1.571E+07 39.0273 1.00000
  1.122E+13 1.122E+13 3.715E+00 4.719E+05 8.211E+06 8.428E+06 1.711E+07 1.711E+07 1.579E+07 39.2575 1.00000
  1.259E+13 1.259E+13 3.734E+00 5.295E+05 9.212E+06 9.672E+06 1.941E+07 1.941E+07 1.586E+07 39.4878 1.00000
  1.413E+13 1.413E+13 3.752E+00 5.941E+05 1.034E+07 1.110E+07 2.203E+07 2.203E+07 1.594E+07 39.7180 1.00000
  1.585E+13 1.585E+13 3.771E+00 6.666E+05 1.160E+07 1.274E+07 2.500E+07 2.500E+07 1.601E+07 39.9483 1.00000
  1.778E+13 1.778E+13 3.790E+00 7.479E+05 1.301E+07 1.462E+07 2.838E+07 2.838E+07 1.608E+07 40.1785 1.00000
  1.995E+13 1.995E+13 3.809E+00 8.392E+05 1.460E+07 1.679E+07 3.222E+07 3.222E+07 1.616E+07 40.4088 1.00000
  2.239E+13 2.239E+13 3.827E+00 9.416E+05 1.638E+07 1.927E+07 3.659E+07 3.659E+07 1.623E+07 40.6391 1.00000
  2.512E+13 2.512E+13 3.846E+00 1.056E+06 1.838E+07 2.212E+07 4.155E+07 4.155E+07 1.630E+07 40.8693 1.00000
  2.818E+13 2.818E+13 3.866E+00 1.185E+06 2.062E+07 2.539E+07 4.720E+07 4.720E+07 1.637E+07 41.0996 1.00000
  3.162E+13 3.162E+13 3.885E+00 1.330E+06 2.313E+07 2.915E+07 5.361E+07 5.361E+07 1.644E+07 41.3298 1.00000
  3.548E+13 3.548E+13 3.904E+00 1.492E+06 2.595E+07 3.347E+07 6.092E+07 6.092E+07 1.650E+07 41.5601 1.00000
  3.981E+13 3.981E+13 3.924E+00 1.674E+06 2.912E+07 3.843E+07 6.922E+07 6.922E+07 1.657E+07 41.7904 1.00000
  4.467E+13 4.467E+13 3.943E+00 1.879E+06 3.267E+07 4.413E+07 7.868E+07 7.868E+07 1.664E+07 42.0206 1.00000
  5.012E+13 5.012E+13 3.963E+00 2.108E+06 3.665E+07 5.067E+07 8.943E+07 8.943E+07 1.670E+07 42.2509 1.00000
  5.623E+13 5.623E+13 3.983E+00 2.365E+06 4.112E+07 5.819E+07 1.017E+08 1.017E+08 1.677E+07 42.4811 1.00000
  6.310E+13 6.310E+13 4.002E+00 2.654E+06 4.614E+07 6.683E+07 1.156E+08 1.156E+08 1.683E+07 42.7114 1.00000
  7.079E+13 7.079E+13 4.022E+00 2.978E+06 5.176E+07 7.675E+07 1.315E+08 1.315E+08 1.689E+07 42.9416 1.00000
  7.943E+13 7.943E+13 4.042E+00 3.341E+06 5.808E+07 8.814E+07 1.496E+08 1.496E+08 1.695E+07 43.1719 1.00000
  8.913E+13 8.913E+13 4.063E+00 3.749E+06 6.516E+07 1.012E+08 1.701E+08 1.701E+08 1.701E+07 43.4022 1.00000
