 Incident particle is a Tau with M = 1776.82000 MeV
 Index = 0: Polonium
      Absorber with <Z/A> = 0.40195
 Sternheimer coef:  a     k=m_s   x_0    x_1    I[eV]   Cbar  delta0
                 0.0928  3.1830  0.4267  3.8293  830.0  6.4003 0.14

 *** Table generated with PUMAS v1.00 ***

      T         p     Ionization  brems     pair     photonuc  Radloss    dE/dx   CSDA Range  delta   beta
    [MeV]    [MeV/c]  -----------------------[MeV cm^2/g]------------------------  [g/cm^2]
  1.000E+05 1.018E+05 1.600E+00 1.085E-03 1.934E-02 7.545E-03 2.797E-02 1.628E+00 3.071E+04  2.6376 0.99985
  1.122E+05 1.140E+05 1.619E+00 1.258E-03 2.315E-02 8.467E-03 3.287E-02 1.652E+00 3.815E+04  2.7947 0.99988
  1.259E+05 1.277E+05 1.637E+00 1.458E-03 2.763E-02 9.452E-03 3.854E-02 1.676E+00 4.638E+04  2.9557 0.99990
  1.413E+05 1.430E+05 1.656E+00 1.689E-03 3.289E-02 1.055E-02 4.513E-02 1.701E+00 5.548E+04  3.1205 0.99992
  1.585E+05 1.603E+05 1.674E+00 1.956E-03 3.905E-02 1.178E-02 5.278E-02 1.727E+00 6.554E+04  3.2889 0.99994
  1.778E+05 1.796E+05 1.692E+00 2.263E-03 4.624E-02 1.314E-02 6.165E-02 1.753E+00 7.666E+04  3.4608 0.99995
  1.995E+05 2.013E+05 1.710E+00 2.617E-03 5.464E-02 1.468E-02 7.194E-02 1.782E+00 8.893E+04  3.6361 0.99996
  2.239E+05 2.256E+05 1.727E+00 3.024E-03 6.441E-02 1.636E-02 8.379E-02 1.811E+00 1.025E+05  3.8148 0.99997
  2.512E+05 2.530E+05 1.745E+00 3.493E-03 7.576E-02 1.822E-02 9.748E-02 1.842E+00 1.174E+05  3.9966 0.99998
  2.818E+05 2.836E+05 1.762E+00 4.033E-03 8.893E-02 2.032E-02 1.133E-01 1.875E+00 1.339E+05  4.1815 0.99998
  3.162E+05 3.180E+05 1.779E+00 4.652E-03 1.042E-01 2.267E-02 1.315E-01 1.911E+00 1.521E+05  4.3694 0.99998
  3.548E+05 3.566E+05 1.796E+00 5.365E-03 1.218E-01 2.530E-02 1.524E-01 1.949E+00 1.721E+05  4.5601 0.99999
  3.981E+05 3.999E+05 1.813E+00 6.182E-03 1.421E-01 2.821E-02 1.765E-01 1.990E+00 1.941E+05  4.7535 0.99999
  4.467E+05 4.485E+05 1.830E+00 7.121E-03 1.655E-01 3.147E-02 2.041E-01 2.034E+00 2.182E+05  4.9496 0.99999
  5.012E+05 5.030E+05 1.846E+00 8.197E-03 1.924E-01 3.512E-02 2.357E-01 2.082E+00 2.447E+05  5.1482 0.99999
  5.623E+05 5.641E+05 1.862E+00 9.431E-03 2.234E-01 3.905E-02 2.718E-01 2.134E+00 2.737E+05  5.3493 1.00000
  6.310E+05 6.327E+05 1.879E+00 1.085E-02 2.589E-01 4.346E-02 3.132E-01 2.192E+00 3.055E+05  5.5526 1.00000
  7.079E+05 7.097E+05 1.894E+00 1.247E-02 2.995E-01 4.843E-02 3.604E-01 2.255E+00 3.401E+05  5.7582 1.00000
  7.943E+05 7.961E+05 1.910E+00 1.432E-02 3.460E-01 5.401E-02 4.144E-01 2.325E+00 3.778E+05  5.9658 1.00000
  8.913E+05 8.930E+05 1.926E+00 1.645E-02 3.992E-01 6.031E-02 4.760E-01 2.402E+00 4.189E+05  6.1755 1.00000
  1.000E+06 1.002E+06 1.941E+00 1.888E-02 4.599E-01 6.741E-02 5.462E-01 2.487E+00 4.634E+05  6.3870 1.00000
  1.122E+06 1.124E+06 1.956E+00 2.165E-02 5.292E-01 7.543E-02 6.263E-01 2.583E+00 5.115E+05  6.6004 1.00000
  1.259E+06 1.261E+06 1.971E+00 2.483E-02 6.081E-01 8.450E-02 7.174E-01 2.689E+00 5.635E+05  6.8154 1.00000
  1.413E+06 1.414E+06 1.986E+00 2.846E-02 6.979E-01 9.475E-02 8.211E-01 2.807E+00 6.194E+05  7.0321 1.00000
  1.585E+06 1.587E+06 2.001E+00 3.260E-02 7.999E-01 1.063E-01 9.389E-01 2.940E+00 6.794E+05  7.2503 1.00000
  1.778E+06 1.780E+06 2.015E+00 3.734E-02 9.159E-01 1.195E-01 1.073E+00 3.088E+00 7.436E+05  7.4698 1.00000
  1.995E+06 1.997E+06 2.030E+00 4.274E-02 1.048E+00 1.344E-01 1.225E+00 3.254E+00 8.121E+05  7.6907 1.00000
  2.239E+06 2.240E+06 2.044E+00 4.891E-02 1.197E+00 1.513E-01 1.397E+00 3.441E+00 8.849E+05  7.9128 1.00000
  2.512E+06 2.514E+06 2.058E+00 5.594E-02 1.366E+00 1.705E-01 1.592E+00 3.650E+00 9.620E+05  8.1361 1.00000
  2.818E+06 2.820E+06 2.072E+00 6.395E-02 1.557E+00 1.922E-01 1.814E+00 3.885E+00 1.043E+06  8.3603 1.00000
  3.162E+06 3.164E+06 2.085E+00 7.309E-02 1.774E+00 2.170E-01 2.064E+00 4.149E+00 1.129E+06  8.5855 1.00000
  3.548E+06 3.550E+06 2.099E+00 8.350E-02 2.019E+00 2.451E-01 2.348E+00 4.446E+00 1.219E+06  8.8116 1.00000
  3.981E+06 3.983E+06 2.112E+00 9.536E-02 2.296E+00 2.770E-01 2.669E+00 4.780E+00 1.313E+06  9.0385 1.00000
  4.467E+06 4.469E+06 2.125E+00 1.089E-01 2.609E+00 3.133E-01 3.031E+00 5.156E+00 1.411E+06  9.2660 1.00000
  5.012E+06 5.014E+06 2.138E+00 1.242E-01 2.962E+00 3.547E-01 3.441E+00 5.579E+00 1.513E+06  9.4941 1.00000
  5.623E+06 5.625E+06 2.150E+00 1.417E-01 3.361E+00 4.017E-01 3.904E+00 6.055E+00 1.618E+06  9.7228 1.00000
  6.310E+06 6.311E+06 2.163E+00 1.616E-01 3.810E+00 4.553E-01 4.427E+00 6.590E+00 1.727E+06  9.9519 1.00000
  7.079E+06 7.081E+06 2.175E+00 1.842E-01 4.317E+00 5.163E-01 5.018E+00 7.193E+00 1.839E+06 10.1813 1.00000
  7.943E+06 7.945E+06 2.188E+00 2.099E-01 4.888E+00 5.857E-01 5.684E+00 7.872E+00 1.953E+06 10.4110 1.00000
  8.913E+06 8.914E+06 2.200E+00 2.391E-01 5.532E+00 6.648E-01 6.436E+00 8.635E+00 2.071E+06 10.6410 1.00000
  1.000E+07 1.000E+07 2.212E+00 2.722E-01 6.256E+00 7.550E-01 7.283E+00 9.495E+00 2.191E+06 10.8711 1.00000
  1.122E+07 1.122E+07 2.224E+00 3.099E-01 7.072E+00 8.577E-01 8.239E+00 1.046E+01 2.314E+06 11.1013 1.00000
  1.259E+07 1.259E+07 2.236E+00 3.526E-01 7.990E+00 9.748E-01 9.317E+00 1.155E+01 2.439E+06 11.3315 1.00000
  1.413E+07 1.413E+07 2.247E+00 4.011E-01 9.022E+00 1.108E+00 1.053E+01 1.278E+01 2.565E+06 11.5618 1.00000
  1.585E+07 1.585E+07 2.259E+00 4.562E-01 1.018E+01 1.261E+00 1.190E+01 1.416E+01 2.693E+06 11.7920 1.00000
  1.778E+07 1.778E+07 2.271E+00 5.185E-01 1.149E+01 1.434E+00 1.344E+01 1.571E+01 2.823E+06 12.0222 1.00000
  1.995E+07 1.995E+07 2.282E+00 5.893E-01 1.296E+01 1.632E+00 1.518E+01 1.746E+01 2.954E+06 12.2525 1.00000
  2.239E+07 2.239E+07 2.293E+00 6.694E-01 1.461E+01 1.858E+00 1.714E+01 1.943E+01 3.087E+06 12.4827 1.00000
  2.512E+07 2.512E+07 2.305E+00 7.602E-01 1.647E+01 2.116E+00 1.934E+01 2.165E+01 3.220E+06 12.7129 1.00000
  2.818E+07 2.819E+07 2.316E+00 8.630E-01 1.855E+01 2.410E+00 2.183E+01 2.414E+01 3.354E+06 12.9432 1.00000
  3.162E+07 3.162E+07 2.327E+00 9.794E-01 2.090E+01 2.745E+00 2.462E+01 2.695E+01 3.489E+06 13.1734 1.00000
  3.548E+07 3.548E+07 2.339E+00 1.111E+00 2.353E+01 3.128E+00 2.777E+01 3.011E+01 3.625E+06 13.4037 1.00000
  3.981E+07 3.981E+07 2.350E+00 1.260E+00 2.649E+01 3.565E+00 3.131E+01 3.366E+01 3.761E+06 13.6339 1.00000
  4.467E+07 4.467E+07 2.361E+00 1.429E+00 2.981E+01 4.064E+00 3.530E+01 3.766E+01 3.898E+06 13.8642 1.00000
  5.012E+07 5.012E+07 2.372E+00 1.619E+00 3.354E+01 4.633E+00 3.979E+01 4.217E+01 4.035E+06 14.0944 1.00000
  5.623E+07 5.624E+07 2.383E+00 1.835E+00 3.773E+01 5.283E+00 4.485E+01 4.723E+01 4.172E+06 14.3247 1.00000
  6.310E+07 6.310E+07 2.394E+00 2.078E+00 4.244E+01 6.024E+00 5.054E+01 5.294E+01 4.310E+06 14.5549 1.00000
  7.079E+07 7.080E+07 2.406E+00 2.353E+00 4.772E+01 6.871E+00 5.695E+01 5.935E+01 4.447E+06 14.7852 1.00000
  7.943E+07 7.943E+07 2.417E+00 2.663E+00 5.365E+01 7.838E+00 6.416E+01 6.657E+01 4.585E+06 15.0154 1.00000
  8.913E+07 8.913E+07 2.428E+00 3.014E+00 6.031E+01 8.943E+00 7.227E+01 7.470E+01 4.723E+06 15.2457 1.00000
  1.000E+08 1.000E+08 2.439E+00 3.410E+00 6.779E+01 1.020E+01 8.140E+01 8.384E+01 4.860E+06 15.4759 1.00000
  1.122E+08 1.122E+08 2.450E+00 3.856E+00 7.618E+01 1.164E+01 9.168E+01 9.413E+01 4.998E+06 15.7062 1.00000
  1.259E+08 1.259E+08 2.462E+00 4.359E+00 8.561E+01 1.329E+01 1.033E+02 1.057E+02 5.135E+06 15.9364 1.00000
  1.413E+08 1.413E+08 2.473E+00 4.927E+00 9.618E+01 1.517E+01 1.163E+02 1.187E+02 5.273E+06 16.1667 1.00000
  1.585E+08 1.585E+08 2.484E+00 5.567E+00 1.080E+02 1.731E+01 1.309E+02 1.334E+02 5.410E+06 16.3970 1.00000
  1.778E+08 1.778E+08 2.496E+00 6.289E+00 1.214E+02 1.976E+01 1.474E+02 1.499E+02 5.547E+06 16.6272 1.00000
  1.995E+08 1.995E+08 2.507E+00 7.101E+00 1.363E+02 2.256E+01 1.660E+02 1.685E+02 5.683E+06 16.8575 1.00000
  2.239E+08 2.239E+08 2.519E+00 8.017E+00 1.531E+02 2.576E+01 1.869E+02 1.894E+02 5.820E+06 17.0877 1.00000
  2.512E+08 2.512E+08 2.530E+00 9.048E+00 1.719E+02 2.941E+01 2.104E+02 2.129E+02 5.956E+06 17.3180 1.00000
  2.818E+08 2.818E+08 2.542E+00 1.021E+01 1.931E+02 3.359E+01 2.369E+02 2.394E+02 6.092E+06 17.5482 1.00000
  3.162E+08 3.162E+08 2.553E+00 1.152E+01 2.168E+02 3.836E+01 2.667E+02 2.692E+02 6.228E+06 17.7785 1.00000
  3.548E+08 3.548E+08 2.565E+00 1.299E+01 2.434E+02 4.381E+01 3.002E+02 3.028E+02 6.363E+06 18.0088 1.00000
  3.981E+08 3.981E+08 2.577E+00 1.464E+01 2.733E+02 5.004E+01 3.379E+02 3.405E+02 6.498E+06 18.2390 1.00000
  4.467E+08 4.467E+08 2.588E+00 1.651E+01 3.068E+02 5.715E+01 3.804E+02 3.830E+02 6.633E+06 18.4693 1.00000
  5.012E+08 5.012E+08 2.600E+00 1.860E+01 3.444E+02 6.529E+01 4.283E+02 4.309E+02 6.768E+06 18.6995 1.00000
  5.623E+08 5.623E+08 2.612E+00 2.096E+01 3.866E+02 7.459E+01 4.821E+02 4.848E+02 6.902E+06 18.9298 1.00000
  6.310E+08 6.310E+08 2.624E+00 2.361E+01 4.340E+02 8.521E+01 5.428E+02 5.454E+02 7.035E+06 19.1600 1.00000
  7.079E+08 7.079E+08 2.636E+00 2.659E+01 4.871E+02 9.736E+01 6.110E+02 6.137E+02 7.169E+06 19.3903 1.00000
  7.943E+08 7.943E+08 2.648E+00 2.994E+01 5.467E+02 1.112E+02 6.879E+02 6.906E+02 7.301E+06 19.6206 1.00000
  8.913E+08 8.913E+08 2.660E+00 3.371E+01 6.136E+02 1.271E+02 7.744E+02 7.771E+02 7.434E+06 19.8508 1.00000
  1.000E+09 1.000E+09 2.672E+00 3.794E+01 6.887E+02 1.453E+02 8.719E+02 8.746E+02 7.566E+06 20.0811 1.00000
  1.122E+09 1.122E+09 2.685E+00 4.269E+01 7.729E+02 1.660E+02 9.816E+02 9.843E+02 7.698E+06 20.3113 1.00000
  1.259E+09 1.259E+09 2.697E+00 4.804E+01 8.675E+02 1.897E+02 1.105E+03 1.108E+03 7.829E+06 20.5416 1.00000
  1.413E+09 1.413E+09 2.709E+00 5.404E+01 9.735E+02 2.168E+02 1.244E+03 1.247E+03 7.960E+06 20.7718 1.00000
  1.585E+09 1.585E+09 2.722E+00 6.078E+01 1.093E+03 2.478E+02 1.401E+03 1.404E+03 8.091E+06 21.0021 1.00000
  1.778E+09 1.778E+09 2.734E+00 6.836E+01 1.226E+03 2.833E+02 1.578E+03 1.580E+03 8.221E+06 21.2324 1.00000
  1.995E+09 1.995E+09 2.747E+00 7.687E+01 1.376E+03 3.239E+02 1.777E+03 1.779E+03 8.350E+06 21.4626 1.00000
  2.239E+09 2.239E+09 2.759E+00 8.642E+01 1.544E+03 3.702E+02 2.001E+03 2.003E+03 8.479E+06 21.6929 1.00000
  2.512E+09 2.512E+09 2.772E+00 9.715E+01 1.733E+03 4.233E+02 2.253E+03 2.256E+03 8.608E+06 21.9231 1.00000
  2.818E+09 2.818E+09 2.785E+00 1.092E+02 1.944E+03 4.839E+02 2.537E+03 2.540E+03 8.736E+06 22.1534 1.00000
  3.162E+09 3.162E+09 2.798E+00 1.227E+02 2.182E+03 5.533E+02 2.858E+03 2.861E+03 8.864E+06 22.3837 1.00000
  3.548E+09 3.548E+09 2.811E+00 1.379E+02 2.448E+03 6.327E+02 3.219E+03 3.222E+03 8.992E+06 22.6139 1.00000
  3.981E+09 3.981E+09 2.824E+00 1.550E+02 2.747E+03 7.235E+02 3.626E+03 3.628E+03 9.118E+06 22.8442 1.00000
  4.467E+09 4.467E+09 2.837E+00 1.741E+02 3.083E+03 8.273E+02 4.084E+03 4.087E+03 9.245E+06 23.0744 1.00000
  5.012E+09 5.012E+09 2.850E+00 1.956E+02 3.459E+03 9.462E+02 4.601E+03 4.603E+03 9.371E+06 23.3047 1.00000
  5.623E+09 5.623E+09 2.863E+00 2.197E+02 3.881E+03 1.082E+03 5.183E+03 5.186E+03 9.496E+06 23.5349 1.00000
  6.310E+09 6.310E+09 2.877E+00 2.468E+02 4.355E+03 1.238E+03 5.839E+03 5.842E+03 9.621E+06 23.7652 1.00000
  7.079E+09 7.079E+09 2.890E+00 2.772E+02 4.887E+03 1.416E+03 6.579E+03 6.582E+03 9.745E+06 23.9955 1.00000
  7.943E+09 7.943E+09 2.903E+00 3.113E+02 5.483E+03 1.619E+03 7.414E+03 7.416E+03 9.869E+06 24.2257 1.00000
  8.913E+09 8.913E+09 2.917E+00 3.496E+02 6.152E+03 1.852E+03 8.354E+03 8.357E+03 9.993E+06 24.4560 1.00000
  1.000E+10 1.000E+10 2.931E+00 3.925E+02 6.903E+03 2.119E+03 9.415E+03 9.418E+03 1.012E+07 24.6862 1.00000
  1.122E+10 1.122E+10 2.944E+00 4.407E+02 7.746E+03 2.424E+03 1.061E+04 1.061E+04 1.024E+07 24.9165 1.00000
  1.259E+10 1.259E+10 2.958E+00 4.949E+02 8.691E+03 2.774E+03 1.196E+04 1.196E+04 1.036E+07 25.1468 1.00000
  1.413E+10 1.413E+10 2.972E+00 5.556E+02 9.751E+03 3.174E+03 1.348E+04 1.348E+04 1.048E+07 25.3770 1.00000
  1.585E+10 1.585E+10 2.986E+00 6.237E+02 1.094E+04 3.631E+03 1.520E+04 1.520E+04 1.060E+07 25.6073 1.00000
  1.778E+10 1.778E+10 3.000E+00 7.002E+02 1.228E+04 4.155E+03 1.713E+04 1.713E+04 1.072E+07 25.8375 1.00000
  1.995E+10 1.995E+10 3.014E+00 7.860E+02 1.377E+04 4.755E+03 1.932E+04 1.932E+04 1.084E+07 26.0678 1.00000
  2.239E+10 2.239E+10 3.028E+00 8.824E+02 1.546E+04 5.442E+03 2.178E+04 2.178E+04 1.096E+07 26.2981 1.00000
  2.512E+10 2.512E+10 3.042E+00 9.904E+02 1.734E+04 6.228E+03 2.456E+04 2.456E+04 1.108E+07 26.5283 1.00000
  2.818E+10 2.818E+10 3.057E+00 1.112E+03 1.946E+04 7.128E+03 2.770E+04 2.770E+04 1.120E+07 26.7586 1.00000
  3.162E+10 3.162E+10 3.071E+00 1.248E+03 2.183E+04 8.159E+03 3.124E+04 3.124E+04 1.131E+07 26.9888 1.00000
  3.548E+10 3.548E+10 3.085E+00 1.400E+03 2.449E+04 9.339E+03 3.523E+04 3.524E+04 1.143E+07 27.2191 1.00000
  3.981E+10 3.981E+10 3.100E+00 1.572E+03 2.748E+04 1.069E+04 3.974E+04 3.975E+04 1.155E+07 27.4493 1.00000
  4.467E+10 4.467E+10 3.115E+00 1.764E+03 3.084E+04 1.224E+04 4.484E+04 4.484E+04 1.166E+07 27.6796 1.00000
  5.012E+10 5.012E+10 3.129E+00 1.980E+03 3.460E+04 1.401E+04 5.059E+04 5.059E+04 1.177E+07 27.9099 1.00000
  5.623E+10 5.623E+10 3.144E+00 2.222E+03 3.882E+04 1.604E+04 5.708E+04 5.708E+04 1.189E+07 28.1401 1.00000
  6.310E+10 6.310E+10 3.159E+00 2.494E+03 4.355E+04 1.836E+04 6.441E+04 6.442E+04 1.200E+07 28.3704 1.00000
  7.079E+10 7.079E+10 3.174E+00 2.798E+03 4.887E+04 2.103E+04 7.269E+04 7.270E+04 1.212E+07 28.6006 1.00000
  7.943E+10 7.943E+10 3.189E+00 3.140E+03 5.483E+04 2.408E+04 8.205E+04 8.205E+04 1.223E+07 28.8309 1.00000
  8.913E+10 8.913E+10 3.204E+00 3.524E+03 6.152E+04 2.757E+04 9.262E+04 9.262E+04 1.234E+07 29.0612 1.00000
  1.000E+11 1.000E+11 3.219E+00 3.955E+03 6.902E+04 3.158E+04 1.046E+05 1.046E+05 1.245E+07 29.2914 1.00000
  1.122E+11 1.122E+11 3.235E+00 4.438E+03 7.744E+04 3.616E+04 1.180E+05 1.180E+05 1.256E+07 29.5217 1.00000
  1.259E+11 1.259E+11 3.250E+00 4.980E+03 8.689E+04 4.142E+04 1.333E+05 1.333E+05 1.267E+07 29.7519 1.00000
  1.413E+11 1.413E+11 3.266E+00 5.588E+03 9.749E+04 4.744E+04 1.505E+05 1.505E+05 1.278E+07 29.9822 1.00000
  1.585E+11 1.585E+11 3.281E+00 6.270E+03 1.094E+05 5.433E+04 1.700E+05 1.700E+05 1.289E+07 30.2124 1.00000
  1.778E+11 1.778E+11 3.297E+00 7.036E+03 1.227E+05 6.224E+04 1.920E+05 1.920E+05 1.299E+07 30.4427 1.00000
  1.995E+11 1.995E+11 3.313E+00 7.895E+03 1.377E+05 7.130E+04 2.169E+05 2.169E+05 1.310E+07 30.6730 1.00000
  2.239E+11 2.239E+11 3.328E+00 8.859E+03 1.545E+05 8.168E+04 2.450E+05 2.450E+05 1.320E+07 30.9032 1.00000
  2.512E+11 2.512E+11 3.344E+00 9.941E+03 1.733E+05 9.358E+04 2.769E+05 2.769E+05 1.331E+07 31.1335 1.00000
  2.818E+11 2.818E+11 3.360E+00 1.115E+04 1.945E+05 1.072E+05 3.129E+05 3.129E+05 1.341E+07 31.3637 1.00000
  3.162E+11 3.162E+11 3.377E+00 1.252E+04 2.182E+05 1.228E+05 3.536E+05 3.536E+05 1.352E+07 31.5940 1.00000
  3.548E+11 3.548E+11 3.393E+00 1.404E+04 2.448E+05 1.408E+05 3.996E+05 3.996E+05 1.362E+07 31.8243 1.00000
  3.981E+11 3.981E+11 3.409E+00 1.576E+04 2.747E+05 1.613E+05 4.518E+05 4.518E+05 1.372E+07 32.0545 1.00000
  4.467E+11 4.467E+11 3.425E+00 1.768E+04 3.082E+05 1.848E+05 5.107E+05 5.107E+05 1.382E+07 32.2848 1.00000
  5.012E+11 5.012E+11 3.442E+00 1.984E+04 3.458E+05 2.118E+05 5.775E+05 5.775E+05 1.392E+07 32.5150 1.00000
  5.623E+11 5.623E+11 3.458E+00 2.226E+04 3.880E+05 2.428E+05 6.530E+05 6.530E+05 1.402E+07 32.7453 1.00000
  6.310E+11 6.310E+11 3.475E+00 2.498E+04 4.353E+05 2.782E+05 7.385E+05 7.385E+05 1.412E+07 32.9755 1.00000
  7.079E+11 7.079E+11 3.492E+00 2.803E+04 4.884E+05 3.189E+05 8.354E+05 8.354E+05 1.422E+07 33.2058 1.00000
  7.943E+11 7.943E+11 3.509E+00 3.145E+04 5.480E+05 3.656E+05 9.450E+05 9.450E+05 1.432E+07 33.4361 1.00000
  8.913E+11 8.913E+11 3.526E+00 3.529E+04 6.148E+05 4.190E+05 1.069E+06 1.069E+06 1.442E+07 33.6663 1.00000
  1.000E+12 1.000E+12 3.543E+00 3.959E+04 6.898E+05 4.804E+05 1.210E+06 1.210E+06 1.451E+07 33.8966 1.00000
  1.122E+12 1.122E+12 3.560E+00 4.442E+04 7.740E+05 5.507E+05 1.369E+06 1.369E+06 1.461E+07 34.1268 1.00000
  1.259E+12 1.259E+12 3.577E+00 4.985E+04 8.684E+05 6.314E+05 1.550E+06 1.550E+06 1.470E+07 34.3571 1.00000
  1.413E+12 1.413E+12 3.594E+00 5.593E+04 9.743E+05 7.239E+05 1.754E+06 1.754E+06 1.479E+07 34.5874 1.00000
  1.585E+12 1.585E+12 3.612E+00 6.275E+04 1.093E+06 8.301E+05 1.986E+06 1.986E+06 1.489E+07 34.8176 1.00000
  1.778E+12 1.778E+12 3.629E+00 7.041E+04 1.226E+06 9.518E+05 2.249E+06 2.249E+06 1.498E+07 35.0479 1.00000
  1.995E+12 1.995E+12 3.647E+00 7.900E+04 1.376E+06 1.091E+06 2.547E+06 2.547E+06 1.507E+07 35.2781 1.00000
  2.239E+12 2.239E+12 3.665E+00 8.864E+04 1.544E+06 1.252E+06 2.884E+06 2.884E+06 1.516E+07 35.5084 1.00000
  2.512E+12 2.512E+12 3.682E+00 9.946E+04 1.732E+06 1.435E+06 3.267E+06 3.267E+06 1.525E+07 35.7386 1.00000
  2.818E+12 2.818E+12 3.700E+00 1.116E+05 1.943E+06 1.646E+06 3.701E+06 3.701E+06 1.534E+07 35.9689 1.00000
  3.162E+12 3.162E+12 3.718E+00 1.252E+05 2.181E+06 1.888E+06 4.194E+06 4.194E+06 1.542E+07 36.1992 1.00000
  3.548E+12 3.548E+12 3.736E+00 1.405E+05 2.446E+06 2.166E+06 4.753E+06 4.753E+06 1.551E+07 36.4294 1.00000
  3.981E+12 3.981E+12 3.755E+00 1.576E+05 2.745E+06 2.484E+06 5.387E+06 5.387E+06 1.560E+07 36.6597 1.00000
  4.467E+12 4.467E+12 3.773E+00 1.769E+05 3.080E+06 2.850E+06 6.106E+06 6.106E+06 1.568E+07 36.8899 1.00000
  5.012E+12 5.012E+12 3.791E+00 1.985E+05 3.455E+06 3.269E+06 6.923E+06 6.923E+06 1.576E+07 37.1202 1.00000
  5.623E+12 5.623E+12 3.810E+00 2.227E+05 3.877E+06 3.751E+06 7.850E+06 7.850E+06 1.585E+07 37.3505 1.00000
  6.310E+12 6.310E+12 3.828E+00 2.498E+05 4.350E+06 4.303E+06 8.902E+06 8.902E+06 1.593E+07 37.5807 1.00000
  7.079E+12 7.079E+12 3.847E+00 2.803E+05 4.880E+06 4.937E+06 1.010E+07 1.010E+07 1.601E+07 37.8110 1.00000
  7.943E+12 7.943E+12 3.866E+00 3.145E+05 5.475E+06 5.665E+06 1.145E+07 1.145E+07 1.609E+07 38.0412 1.00000
  8.913E+12 8.913E+12 3.885E+00 3.529E+05 6.143E+06 6.500E+06 1.300E+07 1.300E+07 1.617E+07 38.2715 1.00000
  1.000E+13 1.000E+13 3.904E+00 3.960E+05 6.892E+06 7.459E+06 1.475E+07 1.475E+07 1.625E+07 38.5018 1.00000
  1.122E+13 1.122E+13 3.923E+00 4.443E+05 7.733E+06 8.560E+06 1.674E+07 1.674E+07 1.633E+07 38.7320 1.00000
  1.259E+13 1.259E+13 3.942E+00 4.985E+05 8.676E+06 9.823E+06 1.900E+07 1.900E+07 1.641E+07 38.9623 1.00000
  1.413E+13 1.413E+13 3.961E+00 5.593E+05 9.734E+06 1.127E+07 2.157E+07 2.157E+07 1.648E+07 39.1925 1.00000
  1.585E+13 1.585E+13 3.981E+00 6.276E+05 1.092E+07 1.294E+07 2.449E+07 2.449E+07 1.656E+07 39.4228 1.00000
  1.778E+13 1.778E+13 4.000E+00 7.042E+05 1.225E+07 1.485E+07 2.781E+07 2.781E+07 1.663E+07 39.6530 1.00000
  1.995E+13 1.995E+13 4.020E+00 7.901E+05 1.375E+07 1.705E+07 3.159E+07 3.159E+07 1.670E+07 39.8833 1.00000
  2.239E+13 2.239E+13 4.040E+00 8.865E+05 1.542E+07 1.957E+07 3.588E+07 3.588E+07 1.678E+07 40.1136 1.00000
  2.512E+13 2.512E+13 4.060E+00 9.947E+05 1.731E+07 2.247E+07 4.077E+07 4.077E+07 1.685E+07 40.3438 1.00000
  2.818E+13 2.818E+13 4.080E+00 1.116E+06 1.942E+07 2.579E+07 4.632E+07 4.632E+07 1.692E+07 40.5741 1.00000
  3.162E+13 3.162E+13 4.100E+00 1.252E+06 2.178E+07 2.961E+07 5.265E+07 5.265E+07 1.699E+07 40.8043 1.00000
  3.548E+13 3.548E+13 4.120E+00 1.405E+06 2.444E+07 3.400E+07 5.984E+07 5.984E+07 1.706E+07 41.0346 1.00000
  3.981E+13 3.981E+13 4.140E+00 1.576E+06 2.742E+07 3.903E+07 6.803E+07 6.803E+07 1.713E+07 41.2649 1.00000
  4.467E+13 4.467E+13 4.160E+00 1.769E+06 3.077E+07 4.482E+07 7.735E+07 7.735E+07 1.719E+07 41.4951 1.00000
  5.012E+13 5.012E+13 4.181E+00 1.985E+06 3.452E+07 5.147E+07 8.797E+07 8.797E+07 1.726E+07 41.7254 1.00000
  5.623E+13 5.623E+13 4.202E+00 2.227E+06 3.873E+07 5.910E+07 1.001E+08 1.001E+08 1.732E+07 41.9556 1.00000
  6.310E+13 6.310E+13 4.222E+00 2.499E+06 4.345E+07 6.787E+07 1.138E+08 1.138E+08 1.739E+07 42.1859 1.00000
  7.079E+13 7.079E+13 4.243E+00 2.803E+06 4.875E+07 7.795E+07 1.295E+08 1.295E+08 1.745E+07 42.4161 1.00000
  7.943E+13 7.943E+13 4.264E+00 3.145E+06 5.469E+07 8.952E+07 1.474E+08 1.474E+08 1.751E+07 42.6464 1.00000
  8.913E+13 8.913E+13 4.285E+00 3.529E+06 6.136E+07 1.028E+08 1.677E+08 1.677E+08 1.758E+07 42.8767 1.00000
