 Incident particle is a Tau with M = 1776.82000 MeV
 Index = 0: PolyvinylPyrrolidone
      Absorber with <Z/A> = 0.53978
 Sternheimer coef:  a     k=m_s   x_0    x_1    I[eV]   Cbar  delta0
                 0.1250  3.3326  0.1324  2.5867   67.7  3.1017 0.00

 *** Table generated with PUMAS v1.00 ***

      T         p     Ionization  brems     pair     photonuc  Radloss    dE/dx   CSDA Range  delta   beta
    [MeV]    [MeV/c]  -----------------------[MeV cm^2/g]------------------------  [g/cm^2]
  1.000E+05 1.018E+05 2.363E+00 1.219E-04 1.895E-03 8.410E-03 1.043E-02 2.374E+00 2.106E+04  5.0608 0.99985
  1.122E+05 1.140E+05 2.384E+00 1.408E-04 2.290E-03 9.502E-03 1.193E-02 2.396E+00 2.618E+04  5.2749 0.99988
  1.259E+05 1.277E+05 2.404E+00 1.626E-04 2.758E-03 1.068E-02 1.360E-02 2.418E+00 3.187E+04  5.4912 0.99990
  1.413E+05 1.430E+05 2.424E+00 1.876E-04 3.310E-03 1.201E-02 1.550E-02 2.440E+00 3.819E+04  5.7093 0.99992
  1.585E+05 1.603E+05 2.444E+00 2.164E-04 3.959E-03 1.349E-02 1.767E-02 2.462E+00 4.523E+04  5.9292 0.99994
  1.778E+05 1.796E+05 2.464E+00 2.494E-04 4.720E-03 1.515E-02 2.012E-02 2.485E+00 5.305E+04  6.1507 0.99995
  1.995E+05 2.013E+05 2.484E+00 2.874E-04 5.613E-03 1.705E-02 2.295E-02 2.507E+00 6.174E+04  6.3735 0.99996
  2.239E+05 2.256E+05 2.504E+00 3.311E-04 6.658E-03 1.912E-02 2.611E-02 2.531E+00 7.140E+04  6.5976 0.99997
  2.512E+05 2.530E+05 2.524E+00 3.812E-04 7.876E-03 2.144E-02 2.970E-02 2.554E+00 8.215E+04  6.8228 0.99998
  2.818E+05 2.836E+05 2.544E+00 4.387E-04 9.296E-03 2.406E-02 3.380E-02 2.578E+00 9.409E+04  7.0490 0.99998
  3.162E+05 3.180E+05 2.564E+00 5.047E-04 1.095E-02 2.702E-02 3.847E-02 2.602E+00 1.074E+05  7.2760 0.99998
  3.548E+05 3.566E+05 2.584E+00 5.804E-04 1.287E-02 3.035E-02 4.379E-02 2.628E+00 1.221E+05  7.5037 0.99999
  3.981E+05 3.999E+05 2.603E+00 6.672E-04 1.509E-02 3.406E-02 4.982E-02 2.653E+00 1.385E+05  7.7320 0.99999
  4.467E+05 4.485E+05 2.623E+00 7.666E-04 1.766E-02 3.823E-02 5.666E-02 2.680E+00 1.567E+05  7.9607 0.99999
  5.012E+05 5.030E+05 2.643E+00 8.806E-04 2.064E-02 4.292E-02 6.445E-02 2.707E+00 1.770E+05  8.1898 0.99999
  5.623E+05 5.641E+05 2.662E+00 1.011E-03 2.408E-02 4.801E-02 7.310E-02 2.735E+00 1.995E+05  8.4192 1.00000
  6.310E+05 6.327E+05 2.682E+00 1.161E-03 2.804E-02 5.375E-02 8.295E-02 2.765E+00 2.244E+05  8.6487 1.00000
  7.079E+05 7.097E+05 2.701E+00 1.332E-03 3.261E-02 6.023E-02 9.416E-02 2.795E+00 2.521E+05  8.8784 1.00000
  7.943E+05 7.961E+05 2.720E+00 1.528E-03 3.786E-02 6.754E-02 1.069E-01 2.827E+00 2.828E+05  9.1081 1.00000
  8.913E+05 8.930E+05 2.740E+00 1.753E-03 4.389E-02 7.582E-02 1.215E-01 2.861E+00 3.169E+05  9.3379 1.00000
  1.000E+06 1.002E+06 2.759E+00 2.009E-03 5.081E-02 8.517E-02 1.380E-01 2.897E+00 3.547E+05  9.5677 1.00000
  1.122E+06 1.124E+06 2.778E+00 2.303E-03 5.875E-02 9.577E-02 1.568E-01 2.935E+00 3.965E+05  9.7976 1.00000
  1.259E+06 1.261E+06 2.797E+00 2.639E-03 6.784E-02 1.078E-01 1.782E-01 2.975E+00 4.429E+05 10.0275 1.00000
  1.413E+06 1.414E+06 2.816E+00 3.023E-03 7.823E-02 1.214E-01 2.026E-01 3.018E+00 4.941E+05 10.2574 1.00000
  1.585E+06 1.587E+06 2.834E+00 3.462E-03 9.011E-02 1.368E-01 2.304E-01 3.065E+00 5.508E+05 10.4874 1.00000
  1.778E+06 1.780E+06 2.853E+00 3.964E-03 1.037E-01 1.543E-01 2.620E-01 3.115E+00 6.134E+05 10.7174 1.00000
  1.995E+06 1.997E+06 2.871E+00 4.538E-03 1.191E-01 1.742E-01 2.979E-01 3.169E+00 6.825E+05 10.9475 1.00000
  2.239E+06 2.240E+06 2.890E+00 5.194E-03 1.368E-01 1.968E-01 3.388E-01 3.228E+00 7.586E+05 11.1776 1.00000
  2.512E+06 2.514E+06 2.908E+00 5.942E-03 1.568E-01 2.225E-01 3.852E-01 3.293E+00 8.424E+05 11.4076 1.00000
  2.818E+06 2.820E+06 2.926E+00 6.797E-03 1.797E-01 2.516E-01 4.381E-01 3.364E+00 9.345E+05 11.6377 1.00000
  3.162E+06 3.164E+06 2.944E+00 7.773E-03 2.056E-01 2.848E-01 4.982E-01 3.442E+00 1.036E+06 11.8679 1.00000
  3.548E+06 3.550E+06 2.961E+00 8.888E-03 2.351E-01 3.225E-01 5.665E-01 3.528E+00 1.146E+06 12.0980 1.00000
  3.981E+06 3.983E+06 2.979E+00 1.016E-02 2.685E-01 3.655E-01 6.441E-01 3.623E+00 1.267E+06 12.3282 1.00000
  4.467E+06 4.469E+06 2.996E+00 1.161E-02 3.064E-01 4.143E-01 7.324E-01 3.728E+00 1.400E+06 12.5583 1.00000
  5.012E+06 5.014E+06 3.013E+00 1.326E-02 3.494E-01 4.700E-01 8.326E-01 3.846E+00 1.544E+06 12.7885 1.00000
  5.623E+06 5.625E+06 3.030E+00 1.515E-02 3.981E-01 5.333E-01 9.465E-01 3.977E+00 1.700E+06 13.0187 1.00000
  6.310E+06 6.311E+06 3.047E+00 1.730E-02 4.532E-01 6.055E-01 1.076E+00 4.123E+00 1.869E+06 13.2489 1.00000
  7.079E+06 7.081E+06 3.064E+00 1.975E-02 5.155E-01 6.877E-01 1.223E+00 4.286E+00 2.053E+06 13.4791 1.00000
  7.943E+06 7.945E+06 3.080E+00 2.254E-02 5.859E-01 7.813E-01 1.390E+00 4.470E+00 2.250E+06 13.7093 1.00000
  8.913E+06 8.914E+06 3.096E+00 2.572E-02 6.654E-01 8.881E-01 1.579E+00 4.676E+00 2.462E+06 13.9395 1.00000
  1.000E+07 1.000E+07 3.112E+00 2.935E-02 7.553E-01 1.010E+00 1.794E+00 4.907E+00 2.689E+06 14.1697 1.00000
  1.122E+07 1.122E+07 3.128E+00 3.347E-02 8.567E-01 1.148E+00 2.039E+00 5.167E+00 2.932E+06 14.3999 1.00000
  1.259E+07 1.259E+07 3.144E+00 3.816E-02 9.711E-01 1.307E+00 2.316E+00 5.460E+00 3.189E+06 14.6301 1.00000
  1.413E+07 1.413E+07 3.160E+00 4.350E-02 1.100E+00 1.487E+00 2.631E+00 5.791E+00 3.463E+06 14.8604 1.00000
  1.585E+07 1.585E+07 3.176E+00 4.957E-02 1.246E+00 1.693E+00 2.988E+00 6.163E+00 3.751E+06 15.0906 1.00000
  1.778E+07 1.778E+07 3.191E+00 5.647E-02 1.409E+00 1.927E+00 3.393E+00 6.584E+00 4.055E+06 15.3208 1.00000
  1.995E+07 1.995E+07 3.207E+00 6.432E-02 1.594E+00 2.195E+00 3.853E+00 7.060E+00 4.374E+06 15.5511 1.00000
  2.239E+07 2.239E+07 3.222E+00 7.324E-02 1.802E+00 2.500E+00 4.376E+00 7.597E+00 4.706E+06 15.7813 1.00000
  2.512E+07 2.512E+07 3.237E+00 8.337E-02 2.036E+00 2.849E+00 4.968E+00 8.205E+00 5.052E+06 16.0115 1.00000
  2.818E+07 2.819E+07 3.252E+00 9.487E-02 2.300E+00 3.246E+00 5.641E+00 8.893E+00 5.412E+06 16.2418 1.00000
  3.162E+07 3.162E+07 3.267E+00 1.079E-01 2.596E+00 3.700E+00 6.404E+00 9.671E+00 5.783E+06 16.4720 1.00000
  3.548E+07 3.548E+07 3.282E+00 1.228E-01 2.929E+00 4.217E+00 7.270E+00 1.055E+01 6.165E+06 16.7023 1.00000
  3.981E+07 3.981E+07 3.298E+00 1.396E-01 3.304E+00 4.808E+00 8.252E+00 1.155E+01 6.558E+06 16.9325 1.00000
  4.467E+07 4.467E+07 3.313E+00 1.587E-01 3.726E+00 5.483E+00 9.367E+00 1.268E+01 6.959E+06 17.1628 1.00000
  5.012E+07 5.012E+07 3.328E+00 1.803E-01 4.200E+00 6.253E+00 1.063E+01 1.396E+01 7.370E+06 17.3930 1.00000
  5.623E+07 5.624E+07 3.343E+00 2.048E-01 4.733E+00 7.132E+00 1.207E+01 1.541E+01 7.787E+06 17.6233 1.00000
  6.310E+07 6.310E+07 3.357E+00 2.326E-01 5.331E+00 8.135E+00 1.370E+01 1.706E+01 8.211E+06 17.8535 1.00000
  7.079E+07 7.080E+07 3.372E+00 2.641E-01 6.004E+00 9.281E+00 1.555E+01 1.892E+01 8.640E+06 18.0838 1.00000
  7.943E+07 7.943E+07 3.388E+00 2.998E-01 6.760E+00 1.059E+01 1.765E+01 2.104E+01 9.073E+06 18.3140 1.00000
  8.913E+07 8.913E+07 3.403E+00 3.401E-01 7.609E+00 1.208E+01 2.003E+01 2.343E+01 9.511E+06 18.5443 1.00000
  1.000E+08 1.000E+08 3.418E+00 3.858E-01 8.562E+00 1.379E+01 2.274E+01 2.615E+01 9.951E+06 18.7745 1.00000
  1.122E+08 1.122E+08 3.433E+00 4.376E-01 9.633E+00 1.574E+01 2.581E+01 2.924E+01 1.039E+07 19.0048 1.00000
  1.259E+08 1.259E+08 3.448E+00 4.960E-01 1.084E+01 1.796E+01 2.929E+01 3.274E+01 1.084E+07 19.2350 1.00000
  1.413E+08 1.413E+08 3.463E+00 5.622E-01 1.219E+01 2.050E+01 3.325E+01 3.671E+01 1.128E+07 19.4653 1.00000
  1.585E+08 1.585E+08 3.478E+00 6.370E-01 1.370E+01 2.341E+01 3.774E+01 4.122E+01 1.172E+07 19.6956 1.00000
  1.778E+08 1.778E+08 3.494E+00 7.216E-01 1.540E+01 2.672E+01 4.285E+01 4.634E+01 1.217E+07 19.9258 1.00000
  1.995E+08 1.995E+08 3.509E+00 8.172E-01 1.732E+01 3.051E+01 4.864E+01 5.215E+01 1.261E+07 20.1561 1.00000
  2.239E+08 2.239E+08 3.524E+00 9.251E-01 1.946E+01 3.484E+01 5.522E+01 5.875E+01 1.305E+07 20.3863 1.00000
  2.512E+08 2.512E+08 3.540E+00 1.047E+00 2.187E+01 3.978E+01 6.270E+01 6.623E+01 1.349E+07 20.6166 1.00000
  2.818E+08 2.818E+08 3.555E+00 1.185E+00 2.457E+01 4.543E+01 7.118E+01 7.474E+01 1.392E+07 20.8468 1.00000
  3.162E+08 3.162E+08 3.571E+00 1.340E+00 2.761E+01 5.188E+01 8.083E+01 8.440E+01 1.436E+07 21.0771 1.00000
  3.548E+08 3.548E+08 3.586E+00 1.515E+00 3.101E+01 5.926E+01 9.178E+01 9.537E+01 1.479E+07 21.3074 1.00000
  3.981E+08 3.981E+08 3.602E+00 1.713E+00 3.483E+01 6.769E+01 1.042E+02 1.078E+02 1.522E+07 21.5376 1.00000
  4.467E+08 4.467E+08 3.618E+00 1.936E+00 3.912E+01 7.732E+01 1.184E+02 1.220E+02 1.564E+07 21.7679 1.00000
  5.012E+08 5.012E+08 3.634E+00 2.188E+00 4.393E+01 8.832E+01 1.344E+02 1.381E+02 1.606E+07 21.9981 1.00000
  5.623E+08 5.623E+08 3.650E+00 2.471E+00 4.934E+01 1.009E+02 1.527E+02 1.564E+02 1.648E+07 22.2284 1.00000
  6.310E+08 6.310E+08 3.666E+00 2.791E+00 5.540E+01 1.153E+02 1.735E+02 1.771E+02 1.689E+07 22.4586 1.00000
  7.079E+08 7.079E+08 3.682E+00 3.151E+00 6.220E+01 1.317E+02 1.971E+02 2.008E+02 1.730E+07 22.6889 1.00000
  7.943E+08 7.943E+08 3.698E+00 3.557E+00 6.984E+01 1.505E+02 2.239E+02 2.276E+02 1.771E+07 22.9192 1.00000
  8.913E+08 8.913E+08 3.714E+00 4.014E+00 7.840E+01 1.720E+02 2.544E+02 2.581E+02 1.811E+07 23.1494 1.00000
  1.000E+09 1.000E+09 3.731E+00 4.528E+00 8.802E+01 1.965E+02 2.891E+02 2.928E+02 1.850E+07 23.3797 1.00000
  1.122E+09 1.122E+09 3.747E+00 5.108E+00 9.881E+01 2.246E+02 3.285E+02 3.323E+02 1.889E+07 23.6099 1.00000
  1.259E+09 1.259E+09 3.764E+00 5.760E+00 1.109E+02 2.567E+02 3.734E+02 3.771E+02 1.928E+07 23.8402 1.00000
  1.413E+09 1.413E+09 3.780E+00 6.494E+00 1.245E+02 2.934E+02 4.244E+02 4.282E+02 1.967E+07 24.0704 1.00000
  1.585E+09 1.585E+09 3.797E+00 7.320E+00 1.397E+02 3.354E+02 4.824E+02 4.862E+02 2.004E+07 24.3007 1.00000
  1.778E+09 1.778E+09 3.814E+00 8.250E+00 1.568E+02 3.833E+02 5.484E+02 5.522E+02 2.042E+07 24.5310 1.00000
  1.995E+09 1.995E+09 3.831E+00 9.295E+00 1.760E+02 4.382E+02 6.235E+02 6.274E+02 2.079E+07 24.7612 1.00000
  2.239E+09 2.239E+09 3.848E+00 1.047E+01 1.976E+02 5.010E+02 7.090E+02 7.128E+02 2.115E+07 24.9915 1.00000
  2.512E+09 2.512E+09 3.865E+00 1.179E+01 2.217E+02 5.727E+02 8.062E+02 8.101E+02 2.151E+07 25.2217 1.00000
  2.818E+09 2.818E+09 3.882E+00 1.328E+01 2.488E+02 6.548E+02 9.169E+02 9.208E+02 2.187E+07 25.4520 1.00000
  3.162E+09 3.162E+09 3.899E+00 1.495E+01 2.793E+02 7.487E+02 1.043E+03 1.047E+03 2.222E+07 25.6823 1.00000
  3.548E+09 3.548E+09 3.917E+00 1.683E+01 3.134E+02 8.561E+02 1.186E+03 1.190E+03 2.257E+07 25.9125 1.00000
  3.981E+09 3.981E+09 3.934E+00 1.894E+01 3.517E+02 9.790E+02 1.350E+03 1.354E+03 2.291E+07 26.1428 1.00000
  4.467E+09 4.467E+09 3.952E+00 2.132E+01 3.947E+02 1.120E+03 1.535E+03 1.539E+03 2.324E+07 26.3730 1.00000
  5.012E+09 5.012E+09 3.969E+00 2.398E+01 4.429E+02 1.280E+03 1.747E+03 1.751E+03 2.358E+07 26.6033 1.00000
  5.623E+09 5.623E+09 3.987E+00 2.698E+01 4.970E+02 1.464E+03 1.988E+03 1.992E+03 2.391E+07 26.8335 1.00000
  6.310E+09 6.310E+09 4.005E+00 3.034E+01 5.577E+02 1.675E+03 2.263E+03 2.267E+03 2.423E+07 27.0638 1.00000
  7.079E+09 7.079E+09 4.023E+00 3.413E+01 6.258E+02 1.916E+03 2.575E+03 2.580E+03 2.455E+07 27.2941 1.00000
  7.943E+09 7.943E+09 4.041E+00 3.837E+01 7.022E+02 2.191E+03 2.932E+03 2.936E+03 2.486E+07 27.5243 1.00000
  8.913E+09 8.913E+09 4.059E+00 4.314E+01 7.879E+02 2.507E+03 3.338E+03 3.342E+03 2.517E+07 27.7546 1.00000
  1.000E+10 1.000E+10 4.078E+00 4.850E+01 8.841E+02 2.867E+03 3.800E+03 3.804E+03 2.548E+07 27.9848 1.00000
  1.122E+10 1.122E+10 4.096E+00 5.452E+01 9.921E+02 3.281E+03 4.327E+03 4.331E+03 2.578E+07 28.2151 1.00000
  1.259E+10 1.259E+10 4.114E+00 6.128E+01 1.113E+03 3.753E+03 4.928E+03 4.932E+03 2.608E+07 28.4454 1.00000
  1.413E+10 1.413E+10 4.133E+00 6.886E+01 1.249E+03 4.294E+03 5.612E+03 5.616E+03 2.637E+07 28.6756 1.00000
  1.585E+10 1.585E+10 4.152E+00 7.738E+01 1.401E+03 4.914E+03 6.393E+03 6.397E+03 2.666E+07 28.9059 1.00000
  1.778E+10 1.778E+10 4.170E+00 8.694E+01 1.573E+03 5.623E+03 7.282E+03 7.286E+03 2.694E+07 29.1361 1.00000
  1.995E+10 1.995E+10 4.189E+00 9.768E+01 1.764E+03 6.434E+03 8.297E+03 8.301E+03 2.722E+07 29.3664 1.00000
  2.239E+10 2.239E+10 4.208E+00 1.097E+02 1.980E+03 7.364E+03 9.453E+03 9.457E+03 2.750E+07 29.5967 1.00000
  2.512E+10 2.512E+10 4.228E+00 1.233E+02 2.221E+03 8.427E+03 1.077E+04 1.078E+04 2.777E+07 29.8269 1.00000
  2.818E+10 2.818E+10 4.247E+00 1.384E+02 2.493E+03 9.645E+03 1.228E+04 1.228E+04 2.803E+07 30.0572 1.00000
  3.162E+10 3.162E+10 4.266E+00 1.555E+02 2.797E+03 1.104E+04 1.399E+04 1.400E+04 2.830E+07 30.2874 1.00000
  3.548E+10 3.548E+10 4.286E+00 1.746E+02 3.138E+03 1.264E+04 1.595E+04 1.595E+04 2.856E+07 30.5177 1.00000
  3.981E+10 3.981E+10 4.305E+00 1.961E+02 3.521E+03 1.447E+04 1.818E+04 1.819E+04 2.881E+07 30.7479 1.00000
  4.467E+10 4.467E+10 4.325E+00 2.202E+02 3.950E+03 1.656E+04 2.073E+04 2.073E+04 2.906E+07 30.9782 1.00000
  5.012E+10 5.012E+10 4.344E+00 2.473E+02 4.432E+03 1.896E+04 2.364E+04 2.364E+04 2.931E+07 31.2085 1.00000
  5.623E+10 5.623E+10 4.364E+00 2.776E+02 4.973E+03 2.170E+04 2.696E+04 2.696E+04 2.955E+07 31.4387 1.00000
  6.310E+10 6.310E+10 4.384E+00 3.117E+02 5.580E+03 2.485E+04 3.074E+04 3.075E+04 2.979E+07 31.6690 1.00000
  7.079E+10 7.079E+10 4.404E+00 3.499E+02 6.261E+03 2.845E+04 3.506E+04 3.507E+04 3.002E+07 31.8992 1.00000
  7.943E+10 7.943E+10 4.425E+00 3.928E+02 7.025E+03 3.258E+04 4.000E+04 4.000E+04 3.026E+07 32.1295 1.00000
  8.913E+10 8.913E+10 4.445E+00 4.410E+02 7.882E+03 3.731E+04 4.563E+04 4.564E+04 3.048E+07 32.3598 1.00000
  1.000E+11 1.000E+11 4.466E+00 4.950E+02 8.843E+03 4.273E+04 5.207E+04 5.207E+04 3.071E+07 32.5900 1.00000
  1.122E+11 1.122E+11 4.486E+00 5.557E+02 9.922E+03 4.893E+04 5.941E+04 5.942E+04 3.093E+07 32.8203 1.00000
  1.259E+11 1.259E+11 4.507E+00 6.237E+02 1.113E+04 5.604E+04 6.780E+04 6.780E+04 3.114E+07 33.0505 1.00000
  1.413E+11 1.413E+11 4.528E+00 7.001E+02 1.249E+04 6.419E+04 7.738E+04 7.738E+04 3.135E+07 33.2808 1.00000
  1.585E+11 1.585E+11 4.548E+00 7.858E+02 1.401E+04 7.352E+04 8.832E+04 8.833E+04 3.156E+07 33.5110 1.00000
  1.778E+11 1.778E+11 4.570E+00 8.819E+02 1.572E+04 8.422E+04 1.008E+05 1.008E+05 3.177E+07 33.7413 1.00000
  1.995E+11 1.995E+11 4.591E+00 9.898E+02 1.764E+04 9.648E+04 1.151E+05 1.151E+05 3.197E+07 33.9716 1.00000
  2.239E+11 2.239E+11 4.612E+00 1.111E+03 1.979E+04 1.105E+05 1.314E+05 1.314E+05 3.217E+07 34.2018 1.00000
  2.512E+11 2.512E+11 4.633E+00 1.247E+03 2.221E+04 1.266E+05 1.501E+05 1.501E+05 3.236E+07 34.4321 1.00000
  2.818E+11 2.818E+11 4.655E+00 1.399E+03 2.492E+04 1.451E+05 1.714E+05 1.714E+05 3.256E+07 34.6623 1.00000
  3.162E+11 3.162E+11 4.676E+00 1.570E+03 2.796E+04 1.662E+05 1.958E+05 1.958E+05 3.274E+07 34.8926 1.00000
  3.548E+11 3.548E+11 4.698E+00 1.762E+03 3.137E+04 1.905E+05 2.236E+05 2.236E+05 3.293E+07 35.1229 1.00000
  3.981E+11 3.981E+11 4.720E+00 1.977E+03 3.520E+04 2.183E+05 2.554E+05 2.554E+05 3.311E+07 35.3531 1.00000
  4.467E+11 4.467E+11 4.742E+00 2.219E+03 3.949E+04 2.501E+05 2.918E+05 2.918E+05 3.329E+07 35.5834 1.00000
  5.012E+11 5.012E+11 4.764E+00 2.490E+03 4.431E+04 2.866E+05 3.334E+05 3.334E+05 3.346E+07 35.8136 1.00000
  5.623E+11 5.623E+11 4.786E+00 2.794E+03 4.971E+04 3.285E+05 3.810E+05 3.810E+05 3.364E+07 36.0439 1.00000
  6.310E+11 6.310E+11 4.809E+00 3.136E+03 5.577E+04 3.765E+05 4.354E+05 4.354E+05 3.380E+07 36.2741 1.00000
  7.079E+11 7.079E+11 4.831E+00 3.519E+03 6.258E+04 4.316E+05 4.976E+05 4.977E+05 3.397E+07 36.5044 1.00000
  7.943E+11 7.943E+11 4.854E+00 3.948E+03 7.021E+04 4.947E+05 5.688E+05 5.688E+05 3.413E+07 36.7347 1.00000
  8.913E+11 8.913E+11 4.877E+00 4.430E+03 7.877E+04 5.670E+05 6.503E+05 6.503E+05 3.429E+07 36.9649 1.00000
  1.000E+12 1.000E+12 4.900E+00 4.971E+03 8.838E+04 6.500E+05 7.434E+05 7.434E+05 3.445E+07 37.1952 1.00000
  1.122E+12 1.122E+12 4.923E+00 5.578E+03 9.916E+04 7.452E+05 8.500E+05 8.500E+05 3.460E+07 37.4254 1.00000
  1.259E+12 1.259E+12 4.946E+00 6.260E+03 1.113E+05 8.544E+05 9.719E+05 9.719E+05 3.475E+07 37.6557 1.00000
  1.413E+12 1.413E+12 4.969E+00 7.024E+03 1.248E+05 9.796E+05 1.111E+06 1.111E+06 3.490E+07 37.8860 1.00000
  1.585E+12 1.585E+12 4.992E+00 7.881E+03 1.401E+05 1.123E+06 1.271E+06 1.271E+06 3.505E+07 38.1162 1.00000
  1.778E+12 1.778E+12 5.016E+00 8.843E+03 1.571E+05 1.288E+06 1.454E+06 1.454E+06 3.519E+07 38.3465 1.00000
  1.995E+12 1.995E+12 5.039E+00 9.923E+03 1.763E+05 1.477E+06 1.663E+06 1.663E+06 3.533E+07 38.5767 1.00000
  2.239E+12 2.239E+12 5.063E+00 1.113E+04 1.978E+05 1.694E+06 1.903E+06 1.903E+06 3.547E+07 38.8070 1.00000
  2.512E+12 2.512E+12 5.087E+00 1.249E+04 2.219E+05 1.942E+06 2.177E+06 2.177E+06 3.560E+07 39.0372 1.00000
  2.818E+12 2.818E+12 5.111E+00 1.402E+04 2.490E+05 2.228E+06 2.491E+06 2.491E+06 3.573E+07 39.2675 1.00000
  3.162E+12 3.162E+12 5.135E+00 1.573E+04 2.794E+05 2.555E+06 2.850E+06 2.850E+06 3.586E+07 39.4978 1.00000
  3.548E+12 3.548E+12 5.160E+00 1.765E+04 3.135E+05 2.931E+06 3.262E+06 3.262E+06 3.599E+07 39.7280 1.00000
  3.981E+12 3.981E+12 5.184E+00 1.980E+04 3.517E+05 3.362E+06 3.733E+06 3.733E+06 3.611E+07 39.9583 1.00000
  4.467E+12 4.467E+12 5.209E+00 2.222E+04 3.946E+05 3.856E+06 4.273E+06 4.273E+06 3.624E+07 40.1885 1.00000
  5.012E+12 5.012E+12 5.233E+00 2.493E+04 4.427E+05 4.424E+06 4.891E+06 4.891E+06 3.636E+07 40.4188 1.00000
  5.623E+12 5.623E+12 5.258E+00 2.797E+04 4.967E+05 5.075E+06 5.600E+06 5.600E+06 3.647E+07 40.6491 1.00000
  6.310E+12 6.310E+12 5.283E+00 3.139E+04 5.573E+05 5.823E+06 6.411E+06 6.411E+06 3.659E+07 40.8793 1.00000
  7.079E+12 7.079E+12 5.308E+00 3.522E+04 6.253E+05 6.681E+06 7.341E+06 7.341E+06 3.670E+07 41.1096 1.00000
  7.943E+12 7.943E+12 5.334E+00 3.951E+04 7.015E+05 7.665E+06 8.406E+06 8.406E+06 3.681E+07 41.3398 1.00000
  8.913E+12 8.913E+12 5.359E+00 4.434E+04 7.871E+05 8.796E+06 9.627E+06 9.627E+06 3.692E+07 41.5701 1.00000
  1.000E+13 1.000E+13 5.384E+00 4.975E+04 8.831E+05 1.009E+07 1.103E+07 1.103E+07 3.702E+07 41.8004 1.00000
  1.122E+13 1.122E+13 5.410E+00 5.582E+04 9.908E+05 1.158E+07 1.263E+07 1.263E+07 3.713E+07 42.0306 1.00000
  1.259E+13 1.259E+13 5.436E+00 6.263E+04 1.112E+06 1.329E+07 1.447E+07 1.447E+07 3.723E+07 42.2609 1.00000
  1.413E+13 1.413E+13 5.462E+00 7.027E+04 1.247E+06 1.526E+07 1.657E+07 1.657E+07 3.733E+07 42.4911 1.00000
  1.585E+13 1.585E+13 5.488E+00 7.884E+04 1.399E+06 1.751E+07 1.899E+07 1.899E+07 3.743E+07 42.7214 1.00000
  1.778E+13 1.778E+13 5.514E+00 8.847E+04 1.570E+06 2.010E+07 2.176E+07 2.176E+07 3.752E+07 42.9516 1.00000
  1.995E+13 1.995E+13 5.541E+00 9.926E+04 1.761E+06 2.307E+07 2.493E+07 2.493E+07 3.761E+07 43.1819 1.00000
  2.239E+13 2.239E+13 5.567E+00 1.114E+05 1.976E+06 2.648E+07 2.857E+07 2.857E+07 3.771E+07 43.4122 1.00000
  2.512E+13 2.512E+13 5.594E+00 1.250E+05 2.217E+06 3.040E+07 3.274E+07 3.274E+07 3.780E+07 43.6424 1.00000
  2.818E+13 2.818E+13 5.621E+00 1.402E+05 2.488E+06 3.490E+07 3.753E+07 3.753E+07 3.788E+07 43.8727 1.00000
  3.162E+13 3.162E+13 5.647E+00 1.573E+05 2.791E+06 4.007E+07 4.302E+07 4.302E+07 3.797E+07 44.1029 1.00000
  3.548E+13 3.548E+13 5.675E+00 1.765E+05 3.131E+06 4.600E+07 4.931E+07 4.931E+07 3.805E+07 44.3332 1.00000
  3.981E+13 3.981E+13 5.702E+00 1.981E+05 3.513E+06 5.282E+07 5.653E+07 5.653E+07 3.814E+07 44.5635 1.00000
  4.467E+13 4.467E+13 5.729E+00 2.222E+05 3.942E+06 6.065E+07 6.481E+07 6.481E+07 3.822E+07 44.7937 1.00000
  5.012E+13 5.012E+13 5.757E+00 2.493E+05 4.423E+06 6.964E+07 7.431E+07 7.431E+07 3.829E+07 45.0240 1.00000
  5.623E+13 5.623E+13 5.784E+00 2.798E+05 4.962E+06 7.997E+07 8.521E+07 8.521E+07 3.837E+07 45.2542 1.00000
  6.310E+13 6.310E+13 5.812E+00 3.139E+05 5.567E+06 9.184E+07 9.772E+07 9.772E+07 3.845E+07 45.4845 1.00000
  7.079E+13 7.079E+13 5.840E+00 3.522E+05 6.246E+06 1.055E+08 1.121E+08 1.121E+08 3.852E+07 45.7147 1.00000
  7.943E+13 7.943E+13 5.868E+00 3.952E+05 7.008E+06 1.211E+08 1.285E+08 1.285E+08 3.859E+07 45.9450 1.00000
  8.913E+13 8.913E+13 5.897E+00 4.434E+05 7.862E+06 1.391E+08 1.474E+08 1.474E+08 3.866E+07 46.1753 1.00000
