 Incident particle is a Tau with M = 1776.82000 MeV
 Index = 0: Polystyrene
      Absorber with <Z/A> = 0.53763
 Sternheimer coef:  a     k=m_s   x_0    x_1    I[eV]   Cbar  delta0
                 0.1645  3.2224  0.1647  2.5031   68.7  3.2999 0.00

 *** Table generated with PUMAS v1.00 ***

      T         p     Ionization  brems     pair     photonuc  Radloss    dE/dx   CSDA Range  delta   beta
    [MeV]    [MeV/c]  -----------------------[MeV cm^2/g]------------------------  [g/cm^2]
  1.000E+05 1.018E+05 2.368E+00 1.146E-04 1.779E-03 8.425E-03 1.032E-02 2.378E+00 2.102E+04  4.8595 0.99985
  1.122E+05 1.140E+05 2.388E+00 1.324E-04 2.152E-03 9.521E-03 1.180E-02 2.400E+00 2.613E+04  5.0734 0.99988
  1.259E+05 1.277E+05 2.409E+00 1.528E-04 2.592E-03 1.070E-02 1.345E-02 2.422E+00 3.181E+04  5.2895 0.99990
  1.413E+05 1.430E+05 2.429E+00 1.763E-04 3.112E-03 1.203E-02 1.532E-02 2.444E+00 3.812E+04  5.5077 0.99992
  1.585E+05 1.603E+05 2.449E+00 2.033E-04 3.724E-03 1.352E-02 1.745E-02 2.466E+00 4.514E+04  5.7277 0.99994
  1.778E+05 1.796E+05 2.469E+00 2.344E-04 4.442E-03 1.519E-02 1.986E-02 2.489E+00 5.295E+04  5.9493 0.99995
  1.995E+05 2.013E+05 2.489E+00 2.700E-04 5.284E-03 1.709E-02 2.264E-02 2.511E+00 6.163E+04  6.1724 0.99996
  2.239E+05 2.256E+05 2.509E+00 3.110E-04 6.269E-03 1.917E-02 2.575E-02 2.534E+00 7.128E+04  6.3969 0.99997
  2.512E+05 2.530E+05 2.528E+00 3.581E-04 7.419E-03 2.150E-02 2.928E-02 2.558E+00 8.201E+04  6.6225 0.99998
  2.818E+05 2.836E+05 2.548E+00 4.121E-04 8.759E-03 2.413E-02 3.330E-02 2.581E+00 9.393E+04  6.8490 0.99998
  3.162E+05 3.180E+05 2.568E+00 4.741E-04 1.032E-02 2.710E-02 3.789E-02 2.606E+00 1.072E+05  7.0764 0.99998
  3.548E+05 3.566E+05 2.587E+00 5.451E-04 1.213E-02 3.044E-02 4.311E-02 2.631E+00 1.219E+05  7.3045 0.99999
  3.981E+05 3.999E+05 2.607E+00 6.266E-04 1.423E-02 3.417E-02 4.902E-02 2.656E+00 1.383E+05  7.5331 0.99999
  4.467E+05 4.485E+05 2.627E+00 7.200E-04 1.666E-02 3.835E-02 5.573E-02 2.682E+00 1.565E+05  7.7622 0.99999
  5.012E+05 5.030E+05 2.646E+00 8.271E-04 1.947E-02 4.306E-02 6.336E-02 2.709E+00 1.767E+05  7.9915 0.99999
  5.623E+05 5.641E+05 2.665E+00 9.498E-04 2.271E-02 4.817E-02 7.184E-02 2.737E+00 1.992E+05  8.2210 1.00000
  6.310E+05 6.327E+05 2.685E+00 1.090E-03 2.646E-02 5.393E-02 8.148E-02 2.766E+00 2.241E+05  8.4505 1.00000
  7.079E+05 7.097E+05 2.704E+00 1.251E-03 3.077E-02 6.044E-02 9.246E-02 2.797E+00 2.518E+05  8.6802 1.00000
  7.943E+05 7.961E+05 2.723E+00 1.435E-03 3.573E-02 6.779E-02 1.050E-01 2.828E+00 2.825E+05  8.9099 1.00000
  8.913E+05 8.930E+05 2.743E+00 1.646E-03 4.143E-02 7.609E-02 1.192E-01 2.862E+00 3.166E+05  9.1397 1.00000
  1.000E+06 1.002E+06 2.762E+00 1.887E-03 4.798E-02 8.549E-02 1.354E-01 2.897E+00 3.544E+05  9.3695 1.00000
  1.122E+06 1.124E+06 2.781E+00 2.163E-03 5.548E-02 9.614E-02 1.538E-01 2.934E+00 3.962E+05  9.5994 1.00000
  1.259E+06 1.261E+06 2.799E+00 2.479E-03 6.408E-02 1.082E-01 1.748E-01 2.974E+00 4.426E+05  9.8293 1.00000
  1.413E+06 1.414E+06 2.818E+00 2.840E-03 7.391E-02 1.219E-01 1.986E-01 3.017E+00 4.938E+05 10.0592 1.00000
  1.585E+06 1.587E+06 2.837E+00 3.253E-03 8.515E-02 1.374E-01 2.258E-01 3.063E+00 5.505E+05 10.2892 1.00000
  1.778E+06 1.780E+06 2.855E+00 3.725E-03 9.798E-02 1.550E-01 2.567E-01 3.112E+00 6.132E+05 10.5192 1.00000
  1.995E+06 1.997E+06 2.874E+00 4.264E-03 1.126E-01 1.749E-01 2.918E-01 3.166E+00 6.823E+05 10.7493 1.00000
  2.239E+06 2.240E+06 2.892E+00 4.881E-03 1.293E-01 1.976E-01 3.318E-01 3.224E+00 7.585E+05 10.9794 1.00000
  2.512E+06 2.514E+06 2.910E+00 5.585E-03 1.483E-01 2.234E-01 3.773E-01 3.287E+00 8.424E+05 11.2094 1.00000
  2.818E+06 2.820E+06 2.928E+00 6.389E-03 1.699E-01 2.527E-01 4.290E-01 3.357E+00 9.347E+05 11.4395 1.00000
  3.162E+06 3.164E+06 2.946E+00 7.307E-03 1.945E-01 2.860E-01 4.878E-01 3.434E+00 1.036E+06 11.6697 1.00000
  3.548E+06 3.550E+06 2.963E+00 8.355E-03 2.224E-01 3.239E-01 5.547E-01 3.518E+00 1.147E+06 11.8998 1.00000
  3.981E+06 3.983E+06 2.981E+00 9.552E-03 2.541E-01 3.671E-01 6.307E-01 3.611E+00 1.269E+06 12.1300 1.00000
  4.467E+06 4.469E+06 2.998E+00 1.092E-02 2.900E-01 4.162E-01 7.171E-01 3.715E+00 1.401E+06 12.3601 1.00000
  5.012E+06 5.014E+06 3.015E+00 1.247E-02 3.307E-01 4.720E-01 8.152E-01 3.830E+00 1.546E+06 12.5903 1.00000
  5.623E+06 5.625E+06 3.032E+00 1.425E-02 3.768E-01 5.357E-01 9.268E-01 3.959E+00 1.703E+06 12.8205 1.00000
  6.310E+06 6.311E+06 3.049E+00 1.627E-02 4.290E-01 6.082E-01 1.053E+00 4.102E+00 1.873E+06 13.0507 1.00000
  7.079E+06 7.081E+06 3.065E+00 1.858E-02 4.880E-01 6.908E-01 1.197E+00 4.263E+00 2.057E+06 13.2809 1.00000
  7.943E+06 7.945E+06 3.082E+00 2.121E-02 5.548E-01 7.849E-01 1.361E+00 4.443E+00 2.256E+06 13.5111 1.00000
  8.913E+06 8.914E+06 3.098E+00 2.421E-02 6.302E-01 8.921E-01 1.547E+00 4.644E+00 2.469E+06 13.7413 1.00000
  1.000E+07 1.000E+07 3.114E+00 2.762E-02 7.154E-01 1.014E+00 1.757E+00 4.871E+00 2.698E+06 13.9715 1.00000
  1.122E+07 1.122E+07 3.130E+00 3.151E-02 8.116E-01 1.154E+00 1.997E+00 5.127E+00 2.942E+06 14.2017 1.00000
  1.259E+07 1.259E+07 3.146E+00 3.593E-02 9.201E-01 1.313E+00 2.269E+00 5.414E+00 3.202E+06 14.4319 1.00000
  1.413E+07 1.413E+07 3.161E+00 4.096E-02 1.042E+00 1.494E+00 2.577E+00 5.739E+00 3.478E+06 14.6622 1.00000
  1.585E+07 1.585E+07 3.177E+00 4.669E-02 1.180E+00 1.701E+00 2.928E+00 6.105E+00 3.769E+06 14.8924 1.00000
  1.778E+07 1.778E+07 3.192E+00 5.319E-02 1.336E+00 1.936E+00 3.325E+00 6.518E+00 4.076E+06 15.1226 1.00000
  1.995E+07 1.995E+07 3.208E+00 6.059E-02 1.511E+00 2.205E+00 3.777E+00 6.985E+00 4.398E+06 15.3529 1.00000
  2.239E+07 2.239E+07 3.223E+00 6.901E-02 1.708E+00 2.512E+00 4.289E+00 7.512E+00 4.734E+06 15.5831 1.00000
  2.512E+07 2.512E+07 3.238E+00 7.856E-02 1.931E+00 2.862E+00 4.871E+00 8.109E+00 5.084E+06 15.8133 1.00000
  2.818E+07 2.819E+07 3.253E+00 8.942E-02 2.181E+00 3.261E+00 5.531E+00 8.784E+00 5.448E+06 16.0436 1.00000
  3.162E+07 3.162E+07 3.268E+00 1.017E-01 2.462E+00 3.717E+00 6.281E+00 9.549E+00 5.823E+06 16.2738 1.00000
  3.548E+07 3.548E+07 3.283E+00 1.157E-01 2.778E+00 4.237E+00 7.131E+00 1.041E+01 6.211E+06 16.5041 1.00000
  3.981E+07 3.981E+07 3.298E+00 1.316E-01 3.134E+00 4.831E+00 8.097E+00 1.139E+01 6.609E+06 16.7343 1.00000
  4.467E+07 4.467E+07 3.313E+00 1.496E-01 3.534E+00 5.508E+00 9.193E+00 1.251E+01 7.016E+06 16.9646 1.00000
  5.012E+07 5.012E+07 3.328E+00 1.701E-01 3.984E+00 6.282E+00 1.044E+01 1.376E+01 7.432E+06 17.1948 1.00000
  5.623E+07 5.624E+07 3.343E+00 1.932E-01 4.490E+00 7.165E+00 1.185E+01 1.519E+01 7.855E+06 17.4251 1.00000
  6.310E+07 6.310E+07 3.358E+00 2.195E-01 5.058E+00 8.173E+00 1.345E+01 1.681E+01 8.285E+06 17.6553 1.00000
  7.079E+07 7.080E+07 3.373E+00 2.492E-01 5.697E+00 9.324E+00 1.527E+01 1.864E+01 8.721E+06 17.8856 1.00000
  7.943E+07 7.943E+07 3.388E+00 2.829E-01 6.415E+00 1.064E+01 1.734E+01 2.072E+01 9.161E+06 18.1158 1.00000
  8.913E+07 8.913E+07 3.403E+00 3.211E-01 7.221E+00 1.214E+01 1.968E+01 2.308E+01 9.605E+06 18.3461 1.00000
  1.000E+08 1.000E+08 3.418E+00 3.643E-01 8.126E+00 1.385E+01 2.234E+01 2.576E+01 1.005E+07 18.5763 1.00000
  1.122E+08 1.122E+08 3.433E+00 4.131E-01 9.143E+00 1.581E+01 2.537E+01 2.880E+01 1.050E+07 18.8066 1.00000
  1.259E+08 1.259E+08 3.448E+00 4.684E-01 1.028E+01 1.805E+01 2.880E+01 3.225E+01 1.095E+07 19.0368 1.00000
  1.413E+08 1.413E+08 3.463E+00 5.310E-01 1.157E+01 2.060E+01 3.270E+01 3.616E+01 1.140E+07 19.2671 1.00000
  1.585E+08 1.585E+08 3.478E+00 6.018E-01 1.301E+01 2.352E+01 3.712E+01 4.060E+01 1.185E+07 19.4974 1.00000
  1.778E+08 1.778E+08 3.493E+00 6.817E-01 1.462E+01 2.685E+01 4.215E+01 4.564E+01 1.230E+07 19.7276 1.00000
  1.995E+08 1.995E+08 3.509E+00 7.721E-01 1.644E+01 3.065E+01 4.786E+01 5.137E+01 1.275E+07 19.9579 1.00000
  2.239E+08 2.239E+08 3.524E+00 8.743E-01 1.847E+01 3.500E+01 5.435E+01 5.787E+01 1.320E+07 20.1881 1.00000
  2.512E+08 2.512E+08 3.539E+00 9.896E-01 2.076E+01 3.997E+01 6.172E+01 6.526E+01 1.364E+07 20.4184 1.00000
  2.818E+08 2.818E+08 3.555E+00 1.120E+00 2.333E+01 4.564E+01 7.009E+01 7.365E+01 1.409E+07 20.6486 1.00000
  3.162E+08 3.162E+08 3.570E+00 1.267E+00 2.621E+01 5.213E+01 7.960E+01 8.317E+01 1.453E+07 20.8789 1.00000
  3.548E+08 3.548E+08 3.586E+00 1.433E+00 2.944E+01 5.954E+01 9.041E+01 9.400E+01 1.496E+07 21.1092 1.00000
  3.981E+08 3.981E+08 3.602E+00 1.620E+00 3.307E+01 6.801E+01 1.027E+02 1.063E+02 1.540E+07 21.3394 1.00000
  4.467E+08 4.467E+08 3.617E+00 1.831E+00 3.714E+01 7.768E+01 1.167E+02 1.203E+02 1.583E+07 21.5697 1.00000
  5.012E+08 5.012E+08 3.633E+00 2.069E+00 4.172E+01 8.874E+01 1.325E+02 1.362E+02 1.625E+07 21.7999 1.00000
  5.623E+08 5.623E+08 3.649E+00 2.338E+00 4.685E+01 1.014E+02 1.506E+02 1.542E+02 1.668E+07 22.0302 1.00000
  6.310E+08 6.310E+08 3.665E+00 2.640E+00 5.260E+01 1.158E+02 1.711E+02 1.747E+02 1.710E+07 22.2604 1.00000
  7.079E+08 7.079E+08 3.681E+00 2.981E+00 5.906E+01 1.323E+02 1.944E+02 1.981E+02 1.751E+07 22.4907 1.00000
  7.943E+08 7.943E+08 3.697E+00 3.366E+00 6.631E+01 1.512E+02 2.209E+02 2.246E+02 1.792E+07 22.7210 1.00000
  8.913E+08 8.913E+08 3.714E+00 3.799E+00 7.445E+01 1.728E+02 2.510E+02 2.548E+02 1.833E+07 22.9512 1.00000
  1.000E+09 1.000E+09 3.730E+00 4.286E+00 8.358E+01 1.975E+02 2.853E+02 2.891E+02 1.873E+07 23.1815 1.00000
  1.122E+09 1.122E+09 3.746E+00 4.835E+00 9.382E+01 2.257E+02 3.243E+02 3.281E+02 1.913E+07 23.4117 1.00000
  1.259E+09 1.259E+09 3.763E+00 5.453E+00 1.053E+02 2.579E+02 3.687E+02 3.724E+02 1.952E+07 23.6420 1.00000
  1.413E+09 1.413E+09 3.779E+00 6.149E+00 1.182E+02 2.948E+02 4.191E+02 4.229E+02 1.991E+07 23.8722 1.00000
  1.585E+09 1.585E+09 3.796E+00 6.932E+00 1.327E+02 3.369E+02 4.766E+02 4.804E+02 2.029E+07 24.1025 1.00000
  1.778E+09 1.778E+09 3.813E+00 7.813E+00 1.489E+02 3.851E+02 5.419E+02 5.457E+02 2.067E+07 24.3328 1.00000
  1.995E+09 1.995E+09 3.829E+00 8.804E+00 1.672E+02 4.403E+02 6.162E+02 6.201E+02 2.104E+07 24.5630 1.00000
  2.239E+09 2.239E+09 3.846E+00 9.919E+00 1.876E+02 5.033E+02 7.009E+02 7.047E+02 2.141E+07 24.7933 1.00000
  2.512E+09 2.512E+09 3.863E+00 1.117E+01 2.106E+02 5.754E+02 7.972E+02 8.010E+02 2.177E+07 25.0235 1.00000
  2.818E+09 2.818E+09 3.881E+00 1.258E+01 2.363E+02 6.579E+02 9.068E+02 9.107E+02 2.213E+07 25.2538 1.00000
  3.162E+09 3.162E+09 3.898E+00 1.417E+01 2.652E+02 7.522E+02 1.032E+03 1.035E+03 2.249E+07 25.4841 1.00000
  3.548E+09 3.548E+09 3.915E+00 1.595E+01 2.976E+02 8.602E+02 1.174E+03 1.178E+03 2.284E+07 25.7143 1.00000
  3.981E+09 3.981E+09 3.932E+00 1.795E+01 3.340E+02 9.836E+02 1.336E+03 1.339E+03 2.318E+07 25.9446 1.00000
  4.467E+09 4.467E+09 3.950E+00 2.020E+01 3.748E+02 1.125E+03 1.520E+03 1.524E+03 2.352E+07 26.1748 1.00000
  5.012E+09 5.012E+09 3.968E+00 2.273E+01 4.206E+02 1.286E+03 1.730E+03 1.734E+03 2.386E+07 26.4051 1.00000
  5.623E+09 5.623E+09 3.985E+00 2.557E+01 4.719E+02 1.471E+03 1.969E+03 1.973E+03 2.419E+07 26.6353 1.00000
  6.310E+09 6.310E+09 4.003E+00 2.877E+01 5.296E+02 1.683E+03 2.241E+03 2.245E+03 2.452E+07 26.8656 1.00000
  7.079E+09 7.079E+09 4.021E+00 3.235E+01 5.943E+02 1.925E+03 2.551E+03 2.555E+03 2.484E+07 27.0959 1.00000
  7.943E+09 7.943E+09 4.039E+00 3.638E+01 6.668E+02 2.202E+03 2.905E+03 2.909E+03 2.516E+07 27.3261 1.00000
  8.913E+09 8.913E+09 4.057E+00 4.091E+01 7.482E+02 2.518E+03 3.308E+03 3.312E+03 2.547E+07 27.5564 1.00000
  1.000E+10 1.000E+10 4.075E+00 4.599E+01 8.396E+02 2.881E+03 3.767E+03 3.771E+03 2.578E+07 27.7866 1.00000
  1.122E+10 1.122E+10 4.094E+00 5.170E+01 9.421E+02 3.296E+03 4.290E+03 4.294E+03 2.608E+07 28.0169 1.00000
  1.259E+10 1.259E+10 4.112E+00 5.811E+01 1.057E+03 3.771E+03 4.886E+03 4.890E+03 2.638E+07 28.2472 1.00000
  1.413E+10 1.413E+10 4.130E+00 6.530E+01 1.186E+03 4.315E+03 5.566E+03 5.570E+03 2.668E+07 28.4774 1.00000
  1.585E+10 1.585E+10 4.149E+00 7.339E+01 1.331E+03 4.937E+03 6.341E+03 6.345E+03 2.697E+07 28.7077 1.00000
  1.778E+10 1.778E+10 4.168E+00 8.246E+01 1.493E+03 5.649E+03 7.225E+03 7.229E+03 2.725E+07 28.9379 1.00000
  1.995E+10 1.995E+10 4.187E+00 9.264E+01 1.676E+03 6.465E+03 8.233E+03 8.237E+03 2.754E+07 29.1682 1.00000
  2.239E+10 2.239E+10 4.206E+00 1.041E+02 1.880E+03 7.398E+03 9.383E+03 9.387E+03 2.781E+07 29.3985 1.00000
  2.512E+10 2.512E+10 4.225E+00 1.169E+02 2.110E+03 8.467E+03 1.069E+04 1.070E+04 2.809E+07 29.6287 1.00000
  2.818E+10 2.818E+10 4.244E+00 1.313E+02 2.367E+03 9.691E+03 1.219E+04 1.219E+04 2.836E+07 29.8590 1.00000
  3.162E+10 3.162E+10 4.263E+00 1.475E+02 2.656E+03 1.109E+04 1.390E+04 1.390E+04 2.862E+07 30.0892 1.00000
  3.548E+10 3.548E+10 4.282E+00 1.657E+02 2.980E+03 1.270E+04 1.584E+04 1.585E+04 2.888E+07 30.3195 1.00000
  3.981E+10 3.981E+10 4.302E+00 1.860E+02 3.344E+03 1.453E+04 1.806E+04 1.807E+04 2.914E+07 30.5497 1.00000
  4.467E+10 4.467E+10 4.321E+00 2.089E+02 3.752E+03 1.664E+04 2.060E+04 2.060E+04 2.939E+07 30.7800 1.00000
  5.012E+10 5.012E+10 4.341E+00 2.346E+02 4.209E+03 1.905E+04 2.349E+04 2.350E+04 2.964E+07 31.0103 1.00000
  5.623E+10 5.623E+10 4.361E+00 2.634E+02 4.723E+03 2.181E+04 2.679E+04 2.680E+04 2.988E+07 31.2405 1.00000
  6.310E+10 6.310E+10 4.381E+00 2.957E+02 5.299E+03 2.497E+04 3.056E+04 3.057E+04 3.012E+07 31.4708 1.00000
  7.079E+10 7.079E+10 4.401E+00 3.320E+02 5.946E+03 2.859E+04 3.487E+04 3.487E+04 3.036E+07 31.7010 1.00000
  7.943E+10 7.943E+10 4.421E+00 3.727E+02 6.671E+03 3.274E+04 3.978E+04 3.978E+04 3.059E+07 31.9313 1.00000
  8.913E+10 8.913E+10 4.441E+00 4.184E+02 7.485E+03 3.749E+04 4.539E+04 4.539E+04 3.082E+07 32.1616 1.00000
  1.000E+11 1.000E+11 4.462E+00 4.697E+02 8.398E+03 4.293E+04 5.180E+04 5.180E+04 3.105E+07 32.3918 1.00000
  1.122E+11 1.122E+11 4.482E+00 5.272E+02 9.423E+03 4.916E+04 5.911E+04 5.912E+04 3.127E+07 32.6221 1.00000
  1.259E+11 1.259E+11 4.503E+00 5.918E+02 1.057E+04 5.631E+04 6.747E+04 6.748E+04 3.148E+07 32.8523 1.00000
  1.413E+11 1.413E+11 4.523E+00 6.643E+02 1.186E+04 6.449E+04 7.702E+04 7.702E+04 3.170E+07 33.0826 1.00000
  1.585E+11 1.585E+11 4.544E+00 7.456E+02 1.331E+04 7.387E+04 8.793E+04 8.793E+04 3.191E+07 33.3128 1.00000
  1.778E+11 1.778E+11 4.565E+00 8.368E+02 1.493E+04 8.462E+04 1.004E+05 1.004E+05 3.211E+07 33.5431 1.00000
  1.995E+11 1.995E+11 4.586E+00 9.392E+02 1.675E+04 9.693E+04 1.146E+05 1.146E+05 3.232E+07 33.7734 1.00000
  2.239E+11 2.239E+11 4.607E+00 1.054E+03 1.880E+04 1.110E+05 1.309E+05 1.309E+05 3.251E+07 34.0036 1.00000
  2.512E+11 2.512E+11 4.629E+00 1.183E+03 2.109E+04 1.272E+05 1.495E+05 1.495E+05 3.271E+07 34.2339 1.00000
  2.818E+11 2.818E+11 4.650E+00 1.328E+03 2.366E+04 1.458E+05 1.708E+05 1.708E+05 3.290E+07 34.4641 1.00000
  3.162E+11 3.162E+11 4.672E+00 1.490E+03 2.655E+04 1.670E+05 1.951E+05 1.951E+05 3.309E+07 34.6944 1.00000
  3.548E+11 3.548E+11 4.693E+00 1.672E+03 2.979E+04 1.914E+05 2.228E+05 2.228E+05 3.328E+07 34.9247 1.00000
  3.981E+11 3.981E+11 4.715E+00 1.876E+03 3.342E+04 2.193E+05 2.546E+05 2.546E+05 3.346E+07 35.1549 1.00000
  4.467E+11 4.467E+11 4.737E+00 2.106E+03 3.750E+04 2.513E+05 2.909E+05 2.909E+05 3.364E+07 35.3852 1.00000
  5.012E+11 5.012E+11 4.759E+00 2.363E+03 4.208E+04 2.880E+05 3.324E+05 3.324E+05 3.381E+07 35.6154 1.00000
  5.623E+11 5.623E+11 4.781E+00 2.652E+03 4.721E+04 3.301E+05 3.799E+05 3.799E+05 3.399E+07 35.8457 1.00000
  6.310E+11 6.310E+11 4.804E+00 2.976E+03 5.297E+04 3.783E+05 4.342E+05 4.342E+05 3.416E+07 36.0759 1.00000
  7.079E+11 7.079E+11 4.826E+00 3.339E+03 5.943E+04 4.336E+05 4.964E+05 4.964E+05 3.432E+07 36.3062 1.00000
  7.943E+11 7.943E+11 4.848E+00 3.747E+03 6.668E+04 4.970E+05 5.674E+05 5.674E+05 3.449E+07 36.5365 1.00000
  8.913E+11 8.913E+11 4.871E+00 4.204E+03 7.481E+04 5.697E+05 6.487E+05 6.487E+05 3.465E+07 36.7667 1.00000
  1.000E+12 1.000E+12 4.894E+00 4.718E+03 8.393E+04 6.531E+05 7.418E+05 7.418E+05 3.480E+07 36.9970 1.00000
  1.122E+12 1.122E+12 4.917E+00 5.294E+03 9.417E+04 7.488E+05 8.482E+05 8.482E+05 3.496E+07 37.2272 1.00000
  1.259E+12 1.259E+12 4.940E+00 5.940E+03 1.057E+05 8.584E+05 9.700E+05 9.700E+05 3.511E+07 37.4575 1.00000
  1.413E+12 1.413E+12 4.963E+00 6.665E+03 1.185E+05 9.842E+05 1.109E+06 1.109E+06 3.526E+07 37.6878 1.00000
  1.585E+12 1.585E+12 4.986E+00 7.479E+03 1.330E+05 1.129E+06 1.269E+06 1.269E+06 3.540E+07 37.9180 1.00000
  1.778E+12 1.778E+12 5.010E+00 8.392E+03 1.492E+05 1.294E+06 1.452E+06 1.452E+06 3.554E+07 38.1483 1.00000
  1.995E+12 1.995E+12 5.033E+00 9.417E+03 1.674E+05 1.484E+06 1.661E+06 1.661E+06 3.568E+07 38.3785 1.00000
  2.239E+12 2.239E+12 5.057E+00 1.057E+04 1.879E+05 1.702E+06 1.900E+06 1.900E+06 3.582E+07 38.6088 1.00000
  2.512E+12 2.512E+12 5.081E+00 1.186E+04 2.108E+05 1.952E+06 2.174E+06 2.174E+06 3.596E+07 38.8390 1.00000
  2.818E+12 2.818E+12 5.105E+00 1.330E+04 2.365E+05 2.238E+06 2.488E+06 2.488E+06 3.609E+07 39.0693 1.00000
  3.162E+12 3.162E+12 5.129E+00 1.493E+04 2.653E+05 2.567E+06 2.847E+06 2.847E+06 3.622E+07 39.2996 1.00000
  3.548E+12 3.548E+12 5.153E+00 1.675E+04 2.977E+05 2.945E+06 3.259E+06 3.259E+06 3.635E+07 39.5298 1.00000
  3.981E+12 3.981E+12 5.177E+00 1.879E+04 3.340E+05 3.378E+06 3.730E+06 3.730E+06 3.647E+07 39.7601 1.00000
  4.467E+12 4.467E+12 5.202E+00 2.109E+04 3.747E+05 3.874E+06 4.270E+06 4.270E+06 3.659E+07 39.9903 1.00000
  5.012E+12 5.012E+12 5.226E+00 2.366E+04 4.204E+05 4.445E+06 4.889E+06 4.889E+06 3.671E+07 40.2206 1.00000
  5.623E+12 5.623E+12 5.251E+00 2.655E+04 4.717E+05 5.099E+06 5.597E+06 5.597E+06 3.683E+07 40.4509 1.00000
  6.310E+12 6.310E+12 5.276E+00 2.979E+04 5.292E+05 5.850E+06 6.409E+06 6.409E+06 3.694E+07 40.6811 1.00000
  7.079E+12 7.079E+12 5.301E+00 3.342E+04 5.938E+05 6.712E+06 7.339E+06 7.339E+06 3.706E+07 40.9114 1.00000
  7.943E+12 7.943E+12 5.326E+00 3.750E+04 6.662E+05 7.702E+06 8.405E+06 8.405E+06 3.717E+07 41.1416 1.00000
  8.913E+12 8.913E+12 5.351E+00 4.208E+04 7.475E+05 8.837E+06 9.627E+06 9.627E+06 3.727E+07 41.3719 1.00000
  1.000E+13 1.000E+13 5.377E+00 4.721E+04 8.386E+05 1.014E+07 1.103E+07 1.103E+07 3.738E+07 41.6022 1.00000
  1.122E+13 1.122E+13 5.402E+00 5.297E+04 9.409E+05 1.164E+07 1.263E+07 1.263E+07 3.748E+07 41.8324 1.00000
  1.259E+13 1.259E+13 5.428E+00 5.943E+04 1.056E+06 1.336E+07 1.447E+07 1.447E+07 3.758E+07 42.0627 1.00000
  1.413E+13 1.413E+13 5.454E+00 6.669E+04 1.184E+06 1.533E+07 1.658E+07 1.658E+07 3.768E+07 42.2929 1.00000
  1.585E+13 1.585E+13 5.480E+00 7.482E+04 1.329E+06 1.759E+07 1.900E+07 1.900E+07 3.778E+07 42.5232 1.00000
  1.778E+13 1.778E+13 5.506E+00 8.396E+04 1.491E+06 2.019E+07 2.177E+07 2.177E+07 3.788E+07 42.7534 1.00000
  1.995E+13 1.995E+13 5.532E+00 9.420E+04 1.673E+06 2.318E+07 2.495E+07 2.495E+07 3.797E+07 42.9837 1.00000
  2.239E+13 2.239E+13 5.559E+00 1.057E+05 1.877E+06 2.661E+07 2.859E+07 2.859E+07 3.806E+07 43.2140 1.00000
  2.512E+13 2.512E+13 5.585E+00 1.186E+05 2.106E+06 3.054E+07 3.277E+07 3.277E+07 3.815E+07 43.4442 1.00000
  2.818E+13 2.818E+13 5.612E+00 1.331E+05 2.362E+06 3.506E+07 3.756E+07 3.756E+07 3.824E+07 43.6745 1.00000
  3.162E+13 3.162E+13 5.639E+00 1.493E+05 2.651E+06 4.026E+07 4.306E+07 4.306E+07 3.832E+07 43.9047 1.00000
  3.548E+13 3.548E+13 5.666E+00 1.675E+05 2.974E+06 4.622E+07 4.936E+07 4.936E+07 3.841E+07 44.1350 1.00000
  3.981E+13 3.981E+13 5.693E+00 1.880E+05 3.336E+06 5.307E+07 5.659E+07 5.659E+07 3.849E+07 44.3653 1.00000
  4.467E+13 4.467E+13 5.720E+00 2.109E+05 3.743E+06 6.094E+07 6.489E+07 6.489E+07 3.857E+07 44.5955 1.00000
  5.012E+13 5.012E+13 5.748E+00 2.366E+05 4.200E+06 6.997E+07 7.441E+07 7.441E+07 3.865E+07 44.8258 1.00000
  5.623E+13 5.623E+13 5.775E+00 2.655E+05 4.712E+06 8.035E+07 8.533E+07 8.533E+07 3.873E+07 45.0560 1.00000
  6.310E+13 6.310E+13 5.803E+00 2.979E+05 5.287E+06 9.227E+07 9.786E+07 9.786E+07 3.880E+07 45.2863 1.00000
  7.079E+13 7.079E+13 5.831E+00 3.342E+05 5.932E+06 1.060E+08 1.122E+08 1.122E+08 3.888E+07 45.5165 1.00000
  7.943E+13 7.943E+13 5.859E+00 3.750E+05 6.655E+06 1.217E+08 1.287E+08 1.287E+08 3.895E+07 45.7468 1.00000
  8.913E+13 8.913E+13 5.887E+00 4.208E+05 7.466E+06 1.398E+08 1.477E+08 1.477E+08 3.902E+07 45.9771 1.00000
