 Incident particle is a Tau with M = 1776.82000 MeV
 Index = 0: PolyvinylAlcohol
      Absorber with <Z/A> = 0.54473
 Sternheimer coef:  a     k=m_s   x_0    x_1    I[eV]   Cbar  delta0
                 0.1118  3.3893  0.1401  2.6315   69.7  3.1115 0.00

 *** Table generated with PUMAS v1.00 ***

      T         p     Ionization  brems     pair     photonuc  Radloss    dE/dx   CSDA Range  delta   beta
    [MeV]    [MeV/c]  -----------------------[MeV cm^2/g]------------------------  [g/cm^2]
  1.000E+05 1.018E+05 2.381E+00 1.270E-04 1.975E-03 8.405E-03 1.051E-02 2.391E+00 2.091E+04  5.0548 0.99985
  1.122E+05 1.140E+05 2.401E+00 1.466E-04 2.387E-03 9.496E-03 1.203E-02 2.413E+00 2.599E+04  5.2687 0.99988
  1.259E+05 1.277E+05 2.422E+00 1.693E-04 2.874E-03 1.067E-02 1.372E-02 2.435E+00 3.164E+04  5.4847 0.99990
  1.413E+05 1.430E+05 2.442E+00 1.954E-04 3.447E-03 1.200E-02 1.564E-02 2.458E+00 3.792E+04  5.7025 0.99992
  1.585E+05 1.603E+05 2.463E+00 2.253E-04 4.122E-03 1.348E-02 1.783E-02 2.480E+00 4.490E+04  5.9221 0.99994
  1.778E+05 1.796E+05 2.483E+00 2.598E-04 4.915E-03 1.514E-02 2.031E-02 2.503E+00 5.266E+04  6.1432 0.99995
  1.995E+05 2.013E+05 2.503E+00 2.994E-04 5.843E-03 1.703E-02 2.317E-02 2.526E+00 6.129E+04  6.3658 0.99996
  2.239E+05 2.256E+05 2.523E+00 3.449E-04 6.929E-03 1.910E-02 2.638E-02 2.550E+00 7.088E+04  6.5896 0.99997
  2.512E+05 2.530E+05 2.543E+00 3.971E-04 8.196E-03 2.142E-02 3.002E-02 2.573E+00 8.154E+04  6.8145 0.99998
  2.818E+05 2.836E+05 2.563E+00 4.570E-04 9.672E-03 2.404E-02 3.417E-02 2.598E+00 9.340E+04  7.0404 0.99998
  3.162E+05 3.180E+05 2.583E+00 5.257E-04 1.139E-02 2.700E-02 3.891E-02 2.622E+00 1.066E+05  7.2671 0.99998
  3.548E+05 3.566E+05 2.603E+00 6.046E-04 1.338E-02 3.032E-02 4.431E-02 2.648E+00 1.212E+05  7.4946 0.99999
  3.981E+05 3.999E+05 2.623E+00 6.950E-04 1.569E-02 3.403E-02 5.042E-02 2.674E+00 1.375E+05  7.7227 0.99999
  4.467E+05 4.485E+05 2.643E+00 7.987E-04 1.837E-02 3.819E-02 5.736E-02 2.700E+00 1.556E+05  7.9512 0.99999
  5.012E+05 5.030E+05 2.663E+00 9.174E-04 2.146E-02 4.288E-02 6.526E-02 2.728E+00 1.757E+05  8.1802 0.99999
  5.623E+05 5.641E+05 2.682E+00 1.053E-03 2.503E-02 4.796E-02 7.405E-02 2.757E+00 1.980E+05  8.4095 1.00000
  6.310E+05 6.327E+05 2.702E+00 1.209E-03 2.915E-02 5.369E-02 8.405E-02 2.786E+00 2.227E+05  8.6390 1.00000
  7.079E+05 7.097E+05 2.722E+00 1.388E-03 3.389E-02 6.016E-02 9.544E-02 2.817E+00 2.502E+05  8.8686 1.00000
  7.943E+05 7.961E+05 2.741E+00 1.592E-03 3.935E-02 6.747E-02 1.084E-01 2.850E+00 2.807E+05  9.0983 1.00000
  8.913E+05 8.930E+05 2.761E+00 1.826E-03 4.561E-02 7.573E-02 1.232E-01 2.884E+00 3.145E+05  9.3281 1.00000
  1.000E+06 1.002E+06 2.780E+00 2.093E-03 5.280E-02 8.507E-02 1.400E-01 2.920E+00 3.520E+05  9.5579 1.00000
  1.122E+06 1.124E+06 2.799E+00 2.399E-03 6.104E-02 9.565E-02 1.591E-01 2.958E+00 3.935E+05  9.7878 1.00000
  1.259E+06 1.261E+06 2.818E+00 2.749E-03 7.048E-02 1.076E-01 1.809E-01 2.999E+00 4.395E+05 10.0177 1.00000
  1.413E+06 1.414E+06 2.837E+00 3.149E-03 8.127E-02 1.212E-01 2.057E-01 3.043E+00 4.903E+05 10.2476 1.00000
  1.585E+06 1.587E+06 2.856E+00 3.607E-03 9.361E-02 1.366E-01 2.339E-01 3.090E+00 5.465E+05 10.4776 1.00000
  1.778E+06 1.780E+06 2.875E+00 4.130E-03 1.077E-01 1.541E-01 2.659E-01 3.141E+00 6.086E+05 10.7076 1.00000
  1.995E+06 1.997E+06 2.894E+00 4.727E-03 1.237E-01 1.740E-01 3.024E-01 3.196E+00 6.771E+05 10.9377 1.00000
  2.239E+06 2.240E+06 2.912E+00 5.410E-03 1.420E-01 1.965E-01 3.440E-01 3.256E+00 7.526E+05 11.1678 1.00000
  2.512E+06 2.514E+06 2.930E+00 6.189E-03 1.629E-01 2.222E-01 3.912E-01 3.322E+00 8.356E+05 11.3978 1.00000
  2.818E+06 2.820E+06 2.948E+00 7.079E-03 1.865E-01 2.513E-01 4.449E-01 3.393E+00 9.269E+05 11.6279 1.00000
  3.162E+06 3.164E+06 2.966E+00 8.095E-03 2.135E-01 2.844E-01 5.060E-01 3.472E+00 1.027E+06 11.8581 1.00000
  3.548E+06 3.550E+06 2.984E+00 9.255E-03 2.440E-01 3.221E-01 5.754E-01 3.560E+00 1.137E+06 12.0882 1.00000
  3.981E+06 3.983E+06 3.002E+00 1.058E-02 2.787E-01 3.650E-01 6.543E-01 3.656E+00 1.257E+06 12.3184 1.00000
  4.467E+06 4.469E+06 3.019E+00 1.209E-02 3.181E-01 4.138E-01 7.439E-01 3.763E+00 1.388E+06 12.5485 1.00000
  5.012E+06 5.014E+06 3.037E+00 1.381E-02 3.626E-01 4.693E-01 8.457E-01 3.882E+00 1.530E+06 12.7787 1.00000
  5.623E+06 5.625E+06 3.054E+00 1.577E-02 4.131E-01 5.326E-01 9.614E-01 4.015E+00 1.685E+06 13.0089 1.00000
  6.310E+06 6.311E+06 3.071E+00 1.801E-02 4.702E-01 6.046E-01 1.093E+00 4.164E+00 1.853E+06 13.2391 1.00000
  7.079E+06 7.081E+06 3.088E+00 2.056E-02 5.348E-01 6.867E-01 1.242E+00 4.330E+00 2.035E+06 13.4693 1.00000
  7.943E+06 7.945E+06 3.104E+00 2.347E-02 6.078E-01 7.802E-01 1.411E+00 4.516E+00 2.230E+06 13.6995 1.00000
  8.913E+06 8.914E+06 3.121E+00 2.677E-02 6.903E-01 8.868E-01 1.604E+00 4.725E+00 2.440E+06 13.9297 1.00000
  1.000E+07 1.000E+07 3.137E+00 3.054E-02 7.834E-01 1.008E+00 1.822E+00 4.959E+00 2.665E+06 14.1599 1.00000
  1.122E+07 1.122E+07 3.153E+00 3.483E-02 8.885E-01 1.147E+00 2.070E+00 5.223E+00 2.904E+06 14.3901 1.00000
  1.259E+07 1.259E+07 3.169E+00 3.971E-02 1.007E+00 1.305E+00 2.352E+00 5.521E+00 3.159E+06 14.6203 1.00000
  1.413E+07 1.413E+07 3.185E+00 4.526E-02 1.141E+00 1.485E+00 2.671E+00 5.856E+00 3.430E+06 14.8506 1.00000
  1.585E+07 1.585E+07 3.201E+00 5.157E-02 1.292E+00 1.690E+00 3.033E+00 6.234E+00 3.715E+06 15.0808 1.00000
  1.778E+07 1.778E+07 3.216E+00 5.875E-02 1.461E+00 1.925E+00 3.445E+00 6.661E+00 4.015E+06 15.3110 1.00000
  1.995E+07 1.995E+07 3.232E+00 6.691E-02 1.653E+00 2.192E+00 3.911E+00 7.143E+00 4.330E+06 15.5413 1.00000
  2.239E+07 2.239E+07 3.247E+00 7.618E-02 1.868E+00 2.497E+00 4.441E+00 7.688E+00 4.659E+06 15.7715 1.00000
  2.512E+07 2.512E+07 3.263E+00 8.671E-02 2.111E+00 2.845E+00 5.042E+00 8.305E+00 5.001E+06 16.0017 1.00000
  2.818E+07 2.819E+07 3.278E+00 9.867E-02 2.384E+00 3.241E+00 5.724E+00 9.002E+00 5.356E+06 16.2320 1.00000
  3.162E+07 3.162E+07 3.293E+00 1.122E-01 2.691E+00 3.694E+00 6.497E+00 9.791E+00 5.722E+06 16.4622 1.00000
  3.548E+07 3.548E+07 3.309E+00 1.276E-01 3.036E+00 4.211E+00 7.375E+00 1.068E+01 6.100E+06 16.6925 1.00000
  3.981E+07 3.981E+07 3.324E+00 1.451E-01 3.425E+00 4.801E+00 8.371E+00 1.169E+01 6.488E+06 16.9227 1.00000
  4.467E+07 4.467E+07 3.339E+00 1.650E-01 3.861E+00 5.475E+00 9.501E+00 1.284E+01 6.885E+06 17.1530 1.00000
  5.012E+07 5.012E+07 3.354E+00 1.874E-01 4.352E+00 6.244E+00 1.078E+01 1.414E+01 7.290E+06 17.3832 1.00000
  5.623E+07 5.624E+07 3.369E+00 2.129E-01 4.904E+00 7.121E+00 1.224E+01 1.561E+01 7.702E+06 17.6135 1.00000
  6.310E+07 6.310E+07 3.384E+00 2.418E-01 5.524E+00 8.123E+00 1.389E+01 1.727E+01 8.120E+06 17.8437 1.00000
  7.079E+07 7.080E+07 3.399E+00 2.745E-01 6.221E+00 9.267E+00 1.576E+01 1.916E+01 8.544E+06 18.0740 1.00000
  7.943E+07 7.943E+07 3.415E+00 3.115E-01 7.004E+00 1.057E+01 1.789E+01 2.130E+01 8.972E+06 18.3042 1.00000
  8.913E+07 8.913E+07 3.430E+00 3.535E-01 7.883E+00 1.206E+01 2.030E+01 2.373E+01 9.404E+06 18.5345 1.00000
  1.000E+08 1.000E+08 3.445E+00 4.009E-01 8.871E+00 1.377E+01 2.304E+01 2.648E+01 9.838E+06 18.7647 1.00000
  1.122E+08 1.122E+08 3.460E+00 4.546E-01 9.980E+00 1.571E+01 2.615E+01 2.961E+01 1.027E+07 18.9950 1.00000
  1.259E+08 1.259E+08 3.475E+00 5.154E-01 1.123E+01 1.793E+01 2.968E+01 3.315E+01 1.071E+07 19.2252 1.00000
  1.413E+08 1.413E+08 3.491E+00 5.841E-01 1.262E+01 2.047E+01 3.368E+01 3.717E+01 1.115E+07 19.4555 1.00000
  1.585E+08 1.585E+08 3.506E+00 6.618E-01 1.419E+01 2.337E+01 3.823E+01 4.173E+01 1.159E+07 19.6858 1.00000
  1.778E+08 1.778E+08 3.521E+00 7.496E-01 1.596E+01 2.668E+01 4.339E+01 4.691E+01 1.203E+07 19.9160 1.00000
  1.995E+08 1.995E+08 3.537E+00 8.487E-01 1.794E+01 3.046E+01 4.925E+01 5.279E+01 1.246E+07 20.1463 1.00000
  2.239E+08 2.239E+08 3.552E+00 9.608E-01 2.016E+01 3.478E+01 5.590E+01 5.946E+01 1.290E+07 20.3765 1.00000
  2.512E+08 2.512E+08 3.568E+00 1.087E+00 2.265E+01 3.972E+01 6.346E+01 6.703E+01 1.333E+07 20.6068 1.00000
  2.818E+08 2.818E+08 3.584E+00 1.230E+00 2.545E+01 4.536E+01 7.204E+01 7.563E+01 1.376E+07 20.8370 1.00000
  3.162E+08 3.162E+08 3.599E+00 1.391E+00 2.859E+01 5.181E+01 8.179E+01 8.539E+01 1.419E+07 21.0673 1.00000
  3.548E+08 3.548E+08 3.615E+00 1.573E+00 3.212E+01 5.917E+01 9.287E+01 9.648E+01 1.462E+07 21.2976 1.00000
  3.981E+08 3.981E+08 3.631E+00 1.778E+00 3.608E+01 6.759E+01 1.054E+02 1.091E+02 1.504E+07 21.5278 1.00000
  4.467E+08 4.467E+08 3.647E+00 2.010E+00 4.052E+01 7.720E+01 1.197E+02 1.234E+02 1.546E+07 21.7581 1.00000
  5.012E+08 5.012E+08 3.663E+00 2.271E+00 4.551E+01 8.819E+01 1.360E+02 1.396E+02 1.588E+07 21.9883 1.00000
  5.623E+08 5.623E+08 3.679E+00 2.565E+00 5.110E+01 1.008E+02 1.544E+02 1.581E+02 1.629E+07 22.2186 1.00000
  6.310E+08 6.310E+08 3.695E+00 2.896E+00 5.738E+01 1.151E+02 1.754E+02 1.791E+02 1.670E+07 22.4488 1.00000
  7.079E+08 7.079E+08 3.712E+00 3.270E+00 6.443E+01 1.315E+02 1.992E+02 2.029E+02 1.710E+07 22.6791 1.00000
  7.943E+08 7.943E+08 3.728E+00 3.691E+00 7.233E+01 1.503E+02 2.263E+02 2.300E+02 1.750E+07 22.9094 1.00000
  8.913E+08 8.913E+08 3.744E+00 4.165E+00 8.121E+01 1.717E+02 2.571E+02 2.608E+02 1.790E+07 23.1396 1.00000
  1.000E+09 1.000E+09 3.761E+00 4.698E+00 9.116E+01 1.962E+02 2.921E+02 2.959E+02 1.829E+07 23.3699 1.00000
  1.122E+09 1.122E+09 3.778E+00 5.299E+00 1.023E+02 2.243E+02 3.319E+02 3.357E+02 1.868E+07 23.6001 1.00000
  1.259E+09 1.259E+09 3.794E+00 5.976E+00 1.149E+02 2.563E+02 3.772E+02 3.810E+02 1.906E+07 23.8304 1.00000
  1.413E+09 1.413E+09 3.811E+00 6.737E+00 1.289E+02 2.930E+02 4.286E+02 4.325E+02 1.944E+07 24.0606 1.00000
  1.585E+09 1.585E+09 3.828E+00 7.593E+00 1.447E+02 3.349E+02 4.872E+02 4.910E+02 1.982E+07 24.2909 1.00000
  1.778E+09 1.778E+09 3.845E+00 8.557E+00 1.624E+02 3.828E+02 5.538E+02 5.576E+02 2.019E+07 24.5212 1.00000
  1.995E+09 1.995E+09 3.862E+00 9.641E+00 1.823E+02 4.376E+02 6.295E+02 6.334E+02 2.055E+07 24.7514 1.00000
  2.239E+09 2.239E+09 3.879E+00 1.086E+01 2.046E+02 5.002E+02 7.157E+02 7.196E+02 2.091E+07 24.9817 1.00000
  2.512E+09 2.512E+09 3.896E+00 1.223E+01 2.296E+02 5.719E+02 8.138E+02 8.177E+02 2.127E+07 25.2119 1.00000
  2.818E+09 2.818E+09 3.914E+00 1.377E+01 2.577E+02 6.539E+02 9.253E+02 9.293E+02 2.162E+07 25.4422 1.00000
  3.162E+09 3.162E+09 3.931E+00 1.550E+01 2.892E+02 7.476E+02 1.052E+03 1.056E+03 2.197E+07 25.6725 1.00000
  3.548E+09 3.548E+09 3.949E+00 1.745E+01 3.246E+02 8.548E+02 1.197E+03 1.201E+03 2.232E+07 25.9027 1.00000
  3.981E+09 3.981E+09 3.966E+00 1.964E+01 3.642E+02 9.775E+02 1.361E+03 1.365E+03 2.265E+07 26.1330 1.00000
  4.467E+09 4.467E+09 3.984E+00 2.210E+01 4.087E+02 1.118E+03 1.549E+03 1.553E+03 2.299E+07 26.3632 1.00000
  5.012E+09 5.012E+09 4.002E+00 2.487E+01 4.587E+02 1.278E+03 1.762E+03 1.766E+03 2.332E+07 26.5935 1.00000
  5.623E+09 5.623E+09 4.020E+00 2.797E+01 5.147E+02 1.462E+03 2.005E+03 2.009E+03 2.364E+07 26.8237 1.00000
  6.310E+09 6.310E+09 4.038E+00 3.146E+01 5.776E+02 1.672E+03 2.281E+03 2.285E+03 2.396E+07 27.0540 1.00000
  7.079E+09 7.079E+09 4.056E+00 3.538E+01 6.481E+02 1.913E+03 2.596E+03 2.600E+03 2.428E+07 27.2843 1.00000
  7.943E+09 7.943E+09 4.074E+00 3.978E+01 7.272E+02 2.188E+03 2.955E+03 2.959E+03 2.459E+07 27.5145 1.00000
  8.913E+09 8.913E+09 4.092E+00 4.472E+01 8.160E+02 2.503E+03 3.364E+03 3.368E+03 2.490E+07 27.7448 1.00000
  1.000E+10 1.000E+10 4.111E+00 5.028E+01 9.157E+02 2.863E+03 3.829E+03 3.833E+03 2.520E+07 27.9750 1.00000
  1.122E+10 1.122E+10 4.129E+00 5.651E+01 1.027E+03 3.276E+03 4.360E+03 4.364E+03 2.550E+07 28.2053 1.00000
  1.259E+10 1.259E+10 4.148E+00 6.351E+01 1.153E+03 3.748E+03 4.964E+03 4.968E+03 2.580E+07 28.4356 1.00000
  1.413E+10 1.413E+10 4.167E+00 7.138E+01 1.294E+03 4.288E+03 5.653E+03 5.657E+03 2.609E+07 28.6658 1.00000
  1.585E+10 1.585E+10 4.186E+00 8.020E+01 1.452E+03 4.907E+03 6.438E+03 6.442E+03 2.637E+07 28.8961 1.00000
  1.778E+10 1.778E+10 4.205E+00 9.011E+01 1.629E+03 5.615E+03 7.333E+03 7.337E+03 2.666E+07 29.1263 1.00000
  1.995E+10 1.995E+10 4.224E+00 1.012E+02 1.827E+03 6.425E+03 8.354E+03 8.358E+03 2.693E+07 29.3566 1.00000
  2.239E+10 2.239E+10 4.243E+00 1.137E+02 2.050E+03 7.353E+03 9.517E+03 9.521E+03 2.721E+07 29.5869 1.00000
  2.512E+10 2.512E+10 4.262E+00 1.277E+02 2.301E+03 8.415E+03 1.084E+04 1.085E+04 2.748E+07 29.8171 1.00000
  2.818E+10 2.818E+10 4.282E+00 1.435E+02 2.581E+03 9.631E+03 1.236E+04 1.236E+04 2.774E+07 30.0474 1.00000
  3.162E+10 3.162E+10 4.301E+00 1.611E+02 2.896E+03 1.102E+04 1.408E+04 1.409E+04 2.800E+07 30.2776 1.00000
  3.548E+10 3.548E+10 4.321E+00 1.810E+02 3.250E+03 1.262E+04 1.605E+04 1.605E+04 2.826E+07 30.5079 1.00000
  3.981E+10 3.981E+10 4.340E+00 2.032E+02 3.646E+03 1.444E+04 1.829E+04 1.830E+04 2.851E+07 30.7381 1.00000
  4.467E+10 4.467E+10 4.360E+00 2.282E+02 4.091E+03 1.654E+04 2.085E+04 2.086E+04 2.876E+07 30.9684 1.00000
  5.012E+10 5.012E+10 4.380E+00 2.562E+02 4.591E+03 1.893E+04 2.378E+04 2.378E+04 2.901E+07 31.1987 1.00000
  5.623E+10 5.623E+10 4.400E+00 2.877E+02 5.151E+03 2.167E+04 2.711E+04 2.712E+04 2.925E+07 31.4289 1.00000
  6.310E+10 6.310E+10 4.421E+00 3.230E+02 5.779E+03 2.481E+04 3.092E+04 3.092E+04 2.949E+07 31.6592 1.00000
  7.079E+10 7.079E+10 4.441E+00 3.626E+02 6.484E+03 2.841E+04 3.526E+04 3.526E+04 2.972E+07 31.8894 1.00000
  7.943E+10 7.943E+10 4.461E+00 4.071E+02 7.275E+03 3.253E+04 4.022E+04 4.022E+04 2.995E+07 32.1197 1.00000
  8.913E+10 8.913E+10 4.482E+00 4.570E+02 8.163E+03 3.726E+04 4.588E+04 4.588E+04 3.018E+07 32.3500 1.00000
  1.000E+11 1.000E+11 4.502E+00 5.130E+02 9.159E+03 4.266E+04 5.234E+04 5.234E+04 3.040E+07 32.5802 1.00000
  1.122E+11 1.122E+11 4.523E+00 5.758E+02 1.028E+04 4.886E+04 5.971E+04 5.972E+04 3.062E+07 32.8105 1.00000
  1.259E+11 1.259E+11 4.544E+00 6.463E+02 1.153E+04 5.596E+04 6.814E+04 6.814E+04 3.083E+07 33.0407 1.00000
  1.413E+11 1.413E+11 4.565E+00 7.254E+02 1.294E+04 6.410E+04 7.776E+04 7.776E+04 3.104E+07 33.2710 1.00000
  1.585E+11 1.585E+11 4.586E+00 8.142E+02 1.451E+04 7.342E+04 8.875E+04 8.875E+04 3.125E+07 33.5012 1.00000
  1.778E+11 1.778E+11 4.607E+00 9.138E+02 1.629E+04 8.410E+04 1.013E+05 1.013E+05 3.146E+07 33.7315 1.00000
  1.995E+11 1.995E+11 4.629E+00 1.026E+03 1.827E+04 9.634E+04 1.156E+05 1.156E+05 3.166E+07 33.9618 1.00000
  2.239E+11 2.239E+11 4.650E+00 1.151E+03 2.050E+04 1.104E+05 1.320E+05 1.320E+05 3.185E+07 34.1920 1.00000
  2.512E+11 2.512E+11 4.672E+00 1.292E+03 2.300E+04 1.264E+05 1.507E+05 1.507E+05 3.205E+07 34.4223 1.00000
  2.818E+11 2.818E+11 4.693E+00 1.450E+03 2.581E+04 1.449E+05 1.721E+05 1.721E+05 3.224E+07 34.6525 1.00000
  3.162E+11 3.162E+11 4.715E+00 1.627E+03 2.896E+04 1.660E+05 1.966E+05 1.966E+05 3.243E+07 34.8828 1.00000
  3.548E+11 3.548E+11 4.737E+00 1.826E+03 3.249E+04 1.902E+05 2.245E+05 2.245E+05 3.261E+07 35.1131 1.00000
  3.981E+11 3.981E+11 4.759E+00 2.049E+03 3.645E+04 2.179E+05 2.564E+05 2.564E+05 3.279E+07 35.3433 1.00000
  4.467E+11 4.467E+11 4.782E+00 2.299E+03 4.090E+04 2.497E+05 2.929E+05 2.929E+05 3.297E+07 35.5736 1.00000
  5.012E+11 5.012E+11 4.804E+00 2.580E+03 4.589E+04 2.862E+05 3.347E+05 3.347E+05 3.314E+07 35.8038 1.00000
  5.623E+11 5.623E+11 4.826E+00 2.895E+03 5.148E+04 3.280E+05 3.824E+05 3.824E+05 3.331E+07 36.0341 1.00000
  6.310E+11 6.310E+11 4.849E+00 3.249E+03 5.776E+04 3.760E+05 4.370E+05 4.370E+05 3.348E+07 36.2643 1.00000
  7.079E+11 7.079E+11 4.872E+00 3.646E+03 6.481E+04 4.309E+05 4.994E+05 4.994E+05 3.365E+07 36.4946 1.00000
  7.943E+11 7.943E+11 4.894E+00 4.091E+03 7.272E+04 4.939E+05 5.708E+05 5.708E+05 3.381E+07 36.7249 1.00000
  8.913E+11 8.913E+11 4.917E+00 4.590E+03 8.158E+04 5.662E+05 6.524E+05 6.524E+05 3.397E+07 36.9551 1.00000
  1.000E+12 1.000E+12 4.940E+00 5.151E+03 9.154E+04 6.491E+05 7.458E+05 7.458E+05 3.413E+07 37.1854 1.00000
  1.122E+12 1.122E+12 4.964E+00 5.780E+03 1.027E+05 7.441E+05 8.526E+05 8.526E+05 3.428E+07 37.4156 1.00000
  1.259E+12 1.259E+12 4.987E+00 6.485E+03 1.152E+05 8.531E+05 9.749E+05 9.749E+05 3.443E+07 37.6459 1.00000
  1.413E+12 1.413E+12 5.010E+00 7.277E+03 1.293E+05 9.782E+05 1.115E+06 1.115E+06 3.458E+07 37.8762 1.00000
  1.585E+12 1.585E+12 5.034E+00 8.166E+03 1.451E+05 1.122E+06 1.275E+06 1.275E+06 3.472E+07 38.1064 1.00000
  1.778E+12 1.778E+12 5.058E+00 9.162E+03 1.627E+05 1.286E+06 1.458E+06 1.458E+06 3.486E+07 38.3367 1.00000
  1.995E+12 1.995E+12 5.082E+00 1.028E+04 1.826E+05 1.475E+06 1.668E+06 1.668E+06 3.500E+07 38.5669 1.00000
  2.239E+12 2.239E+12 5.106E+00 1.154E+04 2.049E+05 1.691E+06 1.908E+06 1.908E+06 3.514E+07 38.7972 1.00000
  2.512E+12 2.512E+12 5.130E+00 1.294E+04 2.299E+05 1.940E+06 2.182E+06 2.182E+06 3.527E+07 39.0274 1.00000
  2.818E+12 2.818E+12 5.154E+00 1.452E+04 2.579E+05 2.224E+06 2.497E+06 2.497E+06 3.541E+07 39.2577 1.00000
  3.162E+12 3.162E+12 5.178E+00 1.630E+04 2.893E+05 2.551E+06 2.857E+06 2.857E+06 3.554E+07 39.4880 1.00000
  3.548E+12 3.548E+12 5.203E+00 1.828E+04 3.246E+05 2.926E+06 3.269E+06 3.269E+06 3.566E+07 39.7182 1.00000
  3.981E+12 3.981E+12 5.228E+00 2.052E+04 3.642E+05 3.357E+06 3.741E+06 3.742E+06 3.579E+07 39.9485 1.00000
  4.467E+12 4.467E+12 5.252E+00 2.302E+04 4.087E+05 3.851E+06 4.282E+06 4.282E+06 3.591E+07 40.1787 1.00000
  5.012E+12 5.012E+12 5.277E+00 2.583E+04 4.585E+05 4.417E+06 4.902E+06 4.902E+06 3.603E+07 40.4090 1.00000
  5.623E+12 5.623E+12 5.302E+00 2.898E+04 5.144E+05 5.068E+06 5.611E+06 5.611E+06 3.614E+07 40.6393 1.00000
  6.310E+12 6.310E+12 5.328E+00 3.252E+04 5.772E+05 5.814E+06 6.424E+06 6.424E+06 3.626E+07 40.8695 1.00000
  7.079E+12 7.079E+12 5.353E+00 3.649E+04 6.476E+05 6.671E+06 7.355E+06 7.355E+06 3.637E+07 41.0998 1.00000
  7.943E+12 7.943E+12 5.378E+00 4.094E+04 7.265E+05 7.654E+06 8.422E+06 8.422E+06 3.648E+07 41.3300 1.00000
  8.913E+12 8.913E+12 5.404E+00 4.594E+04 8.152E+05 8.783E+06 9.644E+06 9.644E+06 3.659E+07 41.5603 1.00000
  1.000E+13 1.000E+13 5.430E+00 5.154E+04 9.146E+05 1.008E+07 1.104E+07 1.104E+07 3.669E+07 41.7906 1.00000
  1.122E+13 1.122E+13 5.456E+00 5.783E+04 1.026E+06 1.157E+07 1.265E+07 1.265E+07 3.680E+07 42.0208 1.00000
  1.259E+13 1.259E+13 5.482E+00 6.489E+04 1.151E+06 1.327E+07 1.449E+07 1.449E+07 3.690E+07 42.2511 1.00000
  1.413E+13 1.413E+13 5.508E+00 7.281E+04 1.292E+06 1.523E+07 1.660E+07 1.660E+07 3.700E+07 42.4813 1.00000
  1.585E+13 1.585E+13 5.534E+00 8.169E+04 1.449E+06 1.748E+07 1.902E+07 1.902E+07 3.710E+07 42.7116 1.00000
  1.778E+13 1.778E+13 5.561E+00 9.166E+04 1.626E+06 2.007E+07 2.179E+07 2.179E+07 3.719E+07 42.9418 1.00000
  1.995E+13 1.995E+13 5.587E+00 1.028E+05 1.824E+06 2.304E+07 2.496E+07 2.496E+07 3.728E+07 43.1721 1.00000
  2.239E+13 2.239E+13 5.614E+00 1.154E+05 2.047E+06 2.644E+07 2.860E+07 2.860E+07 3.738E+07 43.4024 1.00000
  2.512E+13 2.512E+13 5.641E+00 1.295E+05 2.296E+06 3.036E+07 3.278E+07 3.278E+07 3.746E+07 43.6326 1.00000
  2.818E+13 2.818E+13 5.668E+00 1.453E+05 2.576E+06 3.485E+07 3.757E+07 3.757E+07 3.755E+07 43.8629 1.00000
  3.162E+13 3.162E+13 5.695E+00 1.630E+05 2.891E+06 4.001E+07 4.306E+07 4.306E+07 3.764E+07 44.0931 1.00000
  3.548E+13 3.548E+13 5.723E+00 1.829E+05 3.243E+06 4.593E+07 4.936E+07 4.936E+07 3.772E+07 44.3234 1.00000
  3.981E+13 3.981E+13 5.750E+00 2.052E+05 3.639E+06 5.274E+07 5.659E+07 5.659E+07 3.780E+07 44.5537 1.00000
  4.467E+13 4.467E+13 5.778E+00 2.302E+05 4.082E+06 6.056E+07 6.487E+07 6.487E+07 3.788E+07 44.7839 1.00000
  5.012E+13 5.012E+13 5.805E+00 2.583E+05 4.580E+06 6.954E+07 7.438E+07 7.438E+07 3.796E+07 45.0142 1.00000
  5.623E+13 5.623E+13 5.833E+00 2.899E+05 5.139E+06 7.986E+07 8.528E+07 8.528E+07 3.804E+07 45.2444 1.00000
  6.310E+13 6.310E+13 5.861E+00 3.252E+05 5.766E+06 9.171E+07 9.780E+07 9.780E+07 3.812E+07 45.4747 1.00000
  7.079E+13 7.079E+13 5.890E+00 3.649E+05 6.469E+06 1.053E+08 1.122E+08 1.122E+08 3.819E+07 45.7049 1.00000
  7.943E+13 7.943E+13 5.918E+00 4.094E+05 7.258E+06 1.210E+08 1.286E+08 1.286E+08 3.826E+07 45.9352 1.00000
  8.913E+13 8.913E+13 5.947E+00 4.594E+05 8.143E+06 1.389E+08 1.475E+08 1.475E+08 3.833E+07 46.1655 1.00000
