 Incident particle is a Tau with M = 1776.82000 MeV
 Index = 0: Polychlorostyrene
      Absorber with <Z/A> = 0.52513
 Sternheimer coef:  a     k=m_s   x_0    x_1    I[eV]   Cbar  delta0
                 0.0753  3.5441  0.1238  2.9241   81.7  3.4659 0.00

 *** Table generated with PUMAS v1.00 ***

      T         p     Ionization  brems     pair     photonuc  Radloss    dE/dx   CSDA Range  delta   beta
    [MeV]    [MeV/c]  -----------------------[MeV cm^2/g]------------------------  [g/cm^2]
  1.000E+05 1.018E+05 2.293E+00 1.596E-04 2.514E-03 8.333E-03 1.101E-02 2.304E+00 2.170E+04  4.7595 0.99985
  1.122E+05 1.140E+05 2.313E+00 1.844E-04 3.031E-03 9.410E-03 1.263E-02 2.326E+00 2.697E+04  4.9677 0.99988
  1.259E+05 1.277E+05 2.334E+00 2.130E-04 3.641E-03 1.057E-02 1.442E-02 2.348E+00 3.283E+04  5.1781 0.99990
  1.413E+05 1.430E+05 2.354E+00 2.459E-04 4.360E-03 1.188E-02 1.648E-02 2.370E+00 3.934E+04  5.3907 0.99992
  1.585E+05 1.603E+05 2.374E+00 2.837E-04 5.205E-03 1.334E-02 1.883E-02 2.393E+00 4.658E+04  5.6053 0.99994
  1.778E+05 1.796E+05 2.394E+00 3.273E-04 6.196E-03 1.497E-02 2.150E-02 2.415E+00 5.462E+04  5.8218 0.99995
  1.995E+05 2.013E+05 2.414E+00 3.773E-04 7.357E-03 1.683E-02 2.457E-02 2.438E+00 6.356E+04  6.0399 0.99996
  2.239E+05 2.256E+05 2.433E+00 4.348E-04 8.713E-03 1.887E-02 2.802E-02 2.461E+00 7.350E+04  6.2597 0.99997
  2.512E+05 2.530E+05 2.453E+00 5.008E-04 1.029E-02 2.115E-02 3.195E-02 2.485E+00 8.455E+04  6.4808 0.99998
  2.818E+05 2.836E+05 2.473E+00 5.765E-04 1.213E-02 2.372E-02 3.644E-02 2.509E+00 9.682E+04  6.7033 0.99998
  3.162E+05 3.180E+05 2.492E+00 6.635E-04 1.427E-02 2.663E-02 4.157E-02 2.534E+00 1.105E+05  6.9269 0.99998
  3.548E+05 3.566E+05 2.512E+00 7.632E-04 1.676E-02 2.989E-02 4.741E-02 2.559E+00 1.256E+05  7.1516 0.99999
  3.981E+05 3.999E+05 2.531E+00 8.776E-04 1.963E-02 3.354E-02 5.404E-02 2.585E+00 1.424E+05  7.3772 0.99999
  4.467E+05 4.485E+05 2.550E+00 1.009E-03 2.296E-02 3.762E-02 6.158E-02 2.612E+00 1.611E+05  7.6036 0.99999
  5.012E+05 5.030E+05 2.570E+00 1.159E-03 2.680E-02 4.222E-02 7.017E-02 2.640E+00 1.819E+05  7.8307 0.99999
  5.623E+05 5.641E+05 2.589E+00 1.331E-03 3.123E-02 4.720E-02 7.976E-02 2.668E+00 2.049E+05  8.0585 1.00000
  6.310E+05 6.327E+05 2.608E+00 1.528E-03 3.633E-02 5.282E-02 9.068E-02 2.698E+00 2.305E+05  8.2868 1.00000
  7.079E+05 7.097E+05 2.627E+00 1.753E-03 4.221E-02 5.916E-02 1.031E-01 2.730E+00 2.589E+05  8.5156 1.00000
  7.943E+05 7.961E+05 2.645E+00 2.012E-03 4.896E-02 6.631E-02 1.173E-01 2.763E+00 2.903E+05  8.7447 1.00000
  8.913E+05 8.930E+05 2.664E+00 2.307E-03 5.671E-02 7.441E-02 1.334E-01 2.798E+00 3.252E+05  8.9740 1.00000
  1.000E+06 1.002E+06 2.683E+00 2.645E-03 6.559E-02 8.356E-02 1.518E-01 2.835E+00 3.638E+05  9.2037 1.00000
  1.122E+06 1.124E+06 2.701E+00 3.031E-03 7.577E-02 9.392E-02 1.727E-01 2.874E+00 4.066E+05  9.4334 1.00000
  1.259E+06 1.261E+06 2.720E+00 3.473E-03 8.742E-02 1.057E-01 1.965E-01 2.916E+00 4.539E+05  9.6633 1.00000
  1.413E+06 1.414E+06 2.738E+00 3.978E-03 1.007E-01 1.190E-01 2.237E-01 2.962E+00 5.061E+05  9.8932 1.00000
  1.585E+06 1.587E+06 2.756E+00 4.555E-03 1.159E-01 1.340E-01 2.545E-01 3.011E+00 5.638E+05 10.1232 1.00000
  1.778E+06 1.780E+06 2.774E+00 5.215E-03 1.332E-01 1.511E-01 2.896E-01 3.064E+00 6.275E+05 10.3532 1.00000
  1.995E+06 1.997E+06 2.792E+00 5.968E-03 1.530E-01 1.706E-01 3.295E-01 3.122E+00 6.977E+05 10.5833 1.00000
  2.239E+06 2.240E+06 2.810E+00 6.828E-03 1.755E-01 1.926E-01 3.749E-01 3.185E+00 7.749E+05 10.8134 1.00000
  2.512E+06 2.514E+06 2.828E+00 7.810E-03 2.011E-01 2.177E-01 4.266E-01 3.254E+00 8.597E+05 11.0434 1.00000
  2.818E+06 2.820E+06 2.845E+00 8.930E-03 2.301E-01 2.462E-01 4.853E-01 3.331E+00 9.528E+05 11.2735 1.00000
  3.162E+06 3.164E+06 2.863E+00 1.021E-02 2.631E-01 2.786E-01 5.519E-01 3.415E+00 1.055E+06 11.5037 1.00000
  3.548E+06 3.550E+06 2.880E+00 1.167E-02 3.006E-01 3.154E-01 6.277E-01 3.508E+00 1.166E+06 11.7338 1.00000
  3.981E+06 3.983E+06 2.897E+00 1.333E-02 3.431E-01 3.574E-01 7.138E-01 3.611E+00 1.288E+06 11.9640 1.00000
  4.467E+06 4.469E+06 2.914E+00 1.523E-02 3.912E-01 4.051E-01 8.115E-01 3.725E+00 1.420E+06 12.1941 1.00000
  5.012E+06 5.014E+06 2.930E+00 1.739E-02 4.457E-01 4.594E-01 9.225E-01 3.853E+00 1.564E+06 12.4243 1.00000
  5.623E+06 5.625E+06 2.947E+00 1.985E-02 5.074E-01 5.213E-01 1.049E+00 3.995E+00 1.720E+06 12.6545 1.00000
  6.310E+06 6.311E+06 2.963E+00 2.266E-02 5.772E-01 5.917E-01 1.192E+00 4.155E+00 1.889E+06 12.8847 1.00000
  7.079E+06 7.081E+06 2.979E+00 2.585E-02 6.560E-01 6.720E-01 1.354E+00 4.333E+00 2.070E+06 13.1149 1.00000
  7.943E+06 7.945E+06 2.995E+00 2.949E-02 7.451E-01 7.634E-01 1.538E+00 4.533E+00 2.265E+06 13.3451 1.00000
  8.913E+06 8.914E+06 3.011E+00 3.363E-02 8.457E-01 8.676E-01 1.747E+00 4.758E+00 2.474E+06 13.5753 1.00000
  1.000E+07 1.000E+07 3.027E+00 3.834E-02 9.593E-01 9.864E-01 1.984E+00 5.011E+00 2.697E+06 13.8055 1.00000
  1.122E+07 1.122E+07 3.043E+00 4.370E-02 1.087E+00 1.122E+00 2.253E+00 5.295E+00 2.934E+06 14.0357 1.00000
  1.259E+07 1.259E+07 3.058E+00 4.979E-02 1.232E+00 1.276E+00 2.558E+00 5.616E+00 3.185E+06 14.2659 1.00000
  1.413E+07 1.413E+07 3.073E+00 5.672E-02 1.395E+00 1.452E+00 2.904E+00 5.977E+00 3.450E+06 14.4962 1.00000
  1.585E+07 1.585E+07 3.089E+00 6.460E-02 1.578E+00 1.653E+00 3.296E+00 6.384E+00 3.729E+06 14.7264 1.00000
  1.778E+07 1.778E+07 3.104E+00 7.355E-02 1.785E+00 1.882E+00 3.740E+00 6.844E+00 4.022E+06 14.9566 1.00000
  1.995E+07 1.995E+07 3.119E+00 8.371E-02 2.017E+00 2.143E+00 4.244E+00 7.363E+00 4.328E+06 15.1869 1.00000
  2.239E+07 2.239E+07 3.133E+00 9.526E-02 2.279E+00 2.441E+00 4.816E+00 7.949E+00 4.646E+06 15.4171 1.00000
  2.512E+07 2.512E+07 3.148E+00 1.084E-01 2.574E+00 2.781E+00 5.464E+00 8.612E+00 4.977E+06 15.6473 1.00000
  2.818E+07 2.819E+07 3.163E+00 1.232E-01 2.906E+00 3.169E+00 6.198E+00 9.361E+00 5.318E+06 15.8776 1.00000
  3.162E+07 3.162E+07 3.178E+00 1.401E-01 3.279E+00 3.612E+00 7.031E+00 1.021E+01 5.670E+06 16.1078 1.00000
  3.548E+07 3.548E+07 3.192E+00 1.592E-01 3.698E+00 4.118E+00 7.975E+00 1.117E+01 6.032E+06 16.3381 1.00000
  3.981E+07 3.981E+07 3.207E+00 1.809E-01 4.170E+00 4.694E+00 9.045E+00 1.225E+01 6.403E+06 16.5683 1.00000
  4.467E+07 4.467E+07 3.222E+00 2.055E-01 4.700E+00 5.353E+00 1.026E+01 1.348E+01 6.781E+06 16.7986 1.00000
  5.012E+07 5.012E+07 3.236E+00 2.334E-01 5.296E+00 6.104E+00 1.163E+01 1.487E+01 7.167E+06 17.0288 1.00000
  5.623E+07 5.624E+07 3.251E+00 2.650E-01 5.966E+00 6.962E+00 1.319E+01 1.644E+01 7.558E+06 17.2591 1.00000
  6.310E+07 6.310E+07 3.265E+00 3.007E-01 6.718E+00 7.941E+00 1.496E+01 1.823E+01 7.955E+06 17.4893 1.00000
  7.079E+07 7.080E+07 3.280E+00 3.412E-01 7.564E+00 9.059E+00 1.696E+01 2.024E+01 8.356E+06 17.7196 1.00000
  7.943E+07 7.943E+07 3.295E+00 3.870E-01 8.514E+00 1.034E+01 1.924E+01 2.253E+01 8.761E+06 17.9498 1.00000
  8.913E+07 8.913E+07 3.309E+00 4.389E-01 9.580E+00 1.179E+01 2.181E+01 2.512E+01 9.169E+06 18.1801 1.00000
  1.000E+08 1.000E+08 3.324E+00 4.975E-01 1.078E+01 1.346E+01 2.473E+01 2.806E+01 9.580E+06 18.4103 1.00000
  1.122E+08 1.122E+08 3.339E+00 5.638E-01 1.212E+01 1.536E+01 2.805E+01 3.139E+01 9.991E+06 18.6406 1.00000
  1.259E+08 1.259E+08 3.353E+00 6.388E-01 1.363E+01 1.753E+01 3.180E+01 3.516E+01 1.040E+07 18.8708 1.00000
  1.413E+08 1.413E+08 3.368E+00 7.235E-01 1.533E+01 2.001E+01 3.607E+01 3.943E+01 1.082E+07 19.1011 1.00000
  1.585E+08 1.585E+08 3.383E+00 8.193E-01 1.723E+01 2.285E+01 4.090E+01 4.428E+01 1.123E+07 19.3314 1.00000
  1.778E+08 1.778E+08 3.398E+00 9.275E-01 1.937E+01 2.608E+01 4.638E+01 4.978E+01 1.164E+07 19.5616 1.00000
  1.995E+08 1.995E+08 3.413E+00 1.050E+00 2.177E+01 2.978E+01 5.260E+01 5.601E+01 1.205E+07 19.7919 1.00000
  2.239E+08 2.239E+08 3.428E+00 1.187E+00 2.447E+01 3.400E+01 5.966E+01 6.308E+01 1.247E+07 20.0221 1.00000
  2.512E+08 2.512E+08 3.443E+00 1.343E+00 2.749E+01 3.883E+01 6.766E+01 7.110E+01 1.287E+07 20.2524 1.00000
  2.818E+08 2.818E+08 3.458E+00 1.519E+00 3.088E+01 4.434E+01 7.674E+01 8.020E+01 1.328E+07 20.4826 1.00000
  3.162E+08 3.162E+08 3.473E+00 1.717E+00 3.469E+01 5.064E+01 8.705E+01 9.052E+01 1.368E+07 20.7129 1.00000
  3.548E+08 3.548E+08 3.488E+00 1.940E+00 3.897E+01 5.784E+01 9.875E+01 1.022E+02 1.409E+07 20.9432 1.00000
  3.981E+08 3.981E+08 3.503E+00 2.192E+00 4.377E+01 6.607E+01 1.120E+02 1.155E+02 1.449E+07 21.1734 1.00000
  4.467E+08 4.467E+08 3.519E+00 2.476E+00 4.915E+01 7.547E+01 1.271E+02 1.306E+02 1.488E+07 21.4037 1.00000
  5.012E+08 5.012E+08 3.534E+00 2.796E+00 5.519E+01 8.621E+01 1.442E+02 1.477E+02 1.527E+07 21.6339 1.00000
  5.623E+08 5.623E+08 3.550E+00 3.157E+00 6.198E+01 9.849E+01 1.636E+02 1.672E+02 1.566E+07 21.8642 1.00000
  6.310E+08 6.310E+08 3.565E+00 3.563E+00 6.959E+01 1.125E+02 1.857E+02 1.892E+02 1.605E+07 22.0944 1.00000
  7.079E+08 7.079E+08 3.581E+00 4.020E+00 7.813E+01 1.286E+02 2.107E+02 2.143E+02 1.643E+07 22.3247 1.00000
  7.943E+08 7.943E+08 3.597E+00 4.535E+00 8.771E+01 1.469E+02 2.391E+02 2.427E+02 1.681E+07 22.5550 1.00000
  8.913E+08 8.913E+08 3.613E+00 5.115E+00 9.847E+01 1.679E+02 2.714E+02 2.751E+02 1.719E+07 22.7852 1.00000
  1.000E+09 1.000E+09 3.629E+00 5.768E+00 1.105E+02 1.918E+02 3.081E+02 3.118E+02 1.756E+07 23.0155 1.00000
  1.122E+09 1.122E+09 3.645E+00 6.503E+00 1.241E+02 2.192E+02 3.498E+02 3.534E+02 1.793E+07 23.2457 1.00000
  1.259E+09 1.259E+09 3.661E+00 7.330E+00 1.393E+02 2.505E+02 3.972E+02 4.008E+02 1.829E+07 23.4760 1.00000
  1.413E+09 1.413E+09 3.677E+00 8.260E+00 1.563E+02 2.864E+02 4.509E+02 4.546E+02 1.866E+07 23.7062 1.00000
  1.585E+09 1.585E+09 3.693E+00 9.306E+00 1.755E+02 3.273E+02 5.121E+02 5.158E+02 1.901E+07 23.9365 1.00000
  1.778E+09 1.778E+09 3.709E+00 1.048E+01 1.969E+02 3.742E+02 5.816E+02 5.853E+02 1.936E+07 24.1668 1.00000
  1.995E+09 1.995E+09 3.726E+00 1.181E+01 2.210E+02 4.277E+02 6.605E+02 6.643E+02 1.971E+07 24.3970 1.00000
  2.239E+09 2.239E+09 3.742E+00 1.329E+01 2.480E+02 4.890E+02 7.503E+02 7.540E+02 2.006E+07 24.6273 1.00000
  2.512E+09 2.512E+09 3.759E+00 1.497E+01 2.784E+02 5.590E+02 8.523E+02 8.561E+02 2.040E+07 24.8575 1.00000
  2.818E+09 2.818E+09 3.776E+00 1.685E+01 3.124E+02 6.391E+02 9.684E+02 9.721E+02 2.074E+07 25.0878 1.00000
  3.162E+09 3.162E+09 3.793E+00 1.896E+01 3.506E+02 7.308E+02 1.100E+03 1.104E+03 2.107E+07 25.3181 1.00000
  3.548E+09 3.548E+09 3.810E+00 2.133E+01 3.934E+02 8.356E+02 1.250E+03 1.254E+03 2.140E+07 25.5483 1.00000
  3.981E+09 3.981E+09 3.826E+00 2.400E+01 4.415E+02 9.555E+02 1.421E+03 1.425E+03 2.172E+07 25.7786 1.00000
  4.467E+09 4.467E+09 3.844E+00 2.700E+01 4.954E+02 1.093E+03 1.615E+03 1.619E+03 2.204E+07 26.0088 1.00000
  5.012E+09 5.012E+09 3.861E+00 3.036E+01 5.560E+02 1.250E+03 1.836E+03 1.840E+03 2.236E+07 26.2391 1.00000
  5.623E+09 5.623E+09 3.878E+00 3.415E+01 6.239E+02 1.429E+03 2.087E+03 2.091E+03 2.267E+07 26.4693 1.00000
  6.310E+09 6.310E+09 3.895E+00 3.840E+01 7.000E+02 1.635E+03 2.373E+03 2.377E+03 2.298E+07 26.6996 1.00000
  7.079E+09 7.079E+09 3.913E+00 4.317E+01 7.855E+02 1.870E+03 2.698E+03 2.702E+03 2.328E+07 26.9299 1.00000
  7.943E+09 7.943E+09 3.931E+00 4.853E+01 8.814E+02 2.139E+03 3.069E+03 3.073E+03 2.358E+07 27.1601 1.00000
  8.913E+09 8.913E+09 3.948E+00 5.454E+01 9.891E+02 2.447E+03 3.490E+03 3.494E+03 2.388E+07 27.3904 1.00000
  1.000E+10 1.000E+10 3.966E+00 6.130E+01 1.110E+03 2.799E+03 3.970E+03 3.974E+03 2.417E+07 27.6206 1.00000
  1.122E+10 1.122E+10 3.984E+00 6.889E+01 1.245E+03 3.202E+03 4.516E+03 4.520E+03 2.446E+07 27.8509 1.00000
  1.259E+10 1.259E+10 4.002E+00 7.741E+01 1.397E+03 3.663E+03 5.138E+03 5.142E+03 2.475E+07 28.0812 1.00000
  1.413E+10 1.413E+10 4.020E+00 8.697E+01 1.568E+03 4.191E+03 5.846E+03 5.850E+03 2.503E+07 28.3114 1.00000
  1.585E+10 1.585E+10 4.038E+00 9.771E+01 1.759E+03 4.796E+03 6.653E+03 6.657E+03 2.530E+07 28.5417 1.00000
  1.778E+10 1.778E+10 4.056E+00 1.098E+02 1.974E+03 5.488E+03 7.572E+03 7.576E+03 2.558E+07 28.7719 1.00000
  1.995E+10 1.995E+10 4.075E+00 1.233E+02 2.215E+03 6.280E+03 8.618E+03 8.622E+03 2.584E+07 29.0022 1.00000
  2.239E+10 2.239E+10 4.093E+00 1.385E+02 2.485E+03 7.187E+03 9.811E+03 9.815E+03 2.611E+07 29.2325 1.00000
  2.512E+10 2.512E+10 4.112E+00 1.555E+02 2.788E+03 8.225E+03 1.117E+04 1.117E+04 2.637E+07 29.4627 1.00000
  2.818E+10 2.818E+10 4.131E+00 1.747E+02 3.129E+03 9.414E+03 1.272E+04 1.272E+04 2.663E+07 29.6930 1.00000
  3.162E+10 3.162E+10 4.149E+00 1.961E+02 3.510E+03 1.078E+04 1.448E+04 1.449E+04 2.688E+07 29.9232 1.00000
  3.548E+10 3.548E+10 4.168E+00 2.202E+02 3.939E+03 1.233E+04 1.649E+04 1.650E+04 2.713E+07 30.1535 1.00000
  3.981E+10 3.981E+10 4.187E+00 2.473E+02 4.419E+03 1.412E+04 1.879E+04 1.879E+04 2.738E+07 30.3837 1.00000
  4.467E+10 4.467E+10 4.206E+00 2.777E+02 4.959E+03 1.616E+04 2.140E+04 2.140E+04 2.762E+07 30.6140 1.00000
  5.012E+10 5.012E+10 4.226E+00 3.117E+02 5.564E+03 1.850E+04 2.438E+04 2.438E+04 2.786E+07 30.8443 1.00000
  5.623E+10 5.623E+10 4.245E+00 3.500E+02 6.242E+03 2.118E+04 2.778E+04 2.778E+04 2.810E+07 31.0745 1.00000
  6.310E+10 6.310E+10 4.264E+00 3.929E+02 7.004E+03 2.426E+04 3.165E+04 3.166E+04 2.833E+07 31.3048 1.00000
  7.079E+10 7.079E+10 4.284E+00 4.411E+02 7.859E+03 2.777E+04 3.607E+04 3.608E+04 2.856E+07 31.5350 1.00000
  7.943E+10 7.943E+10 4.304E+00 4.951E+02 8.817E+03 3.180E+04 4.111E+04 4.112E+04 2.878E+07 31.7653 1.00000
  8.913E+10 8.913E+10 4.323E+00 5.557E+02 9.893E+03 3.642E+04 4.686E+04 4.687E+04 2.900E+07 31.9956 1.00000
  1.000E+11 1.000E+11 4.343E+00 6.238E+02 1.110E+04 4.170E+04 5.343E+04 5.343E+04 2.922E+07 32.2258 1.00000
  1.122E+11 1.122E+11 4.363E+00 7.002E+02 1.245E+04 4.776E+04 6.091E+04 6.092E+04 2.943E+07 32.4561 1.00000
  1.259E+11 1.259E+11 4.383E+00 7.858E+02 1.397E+04 5.470E+04 6.946E+04 6.946E+04 2.965E+07 32.6863 1.00000
  1.413E+11 1.413E+11 4.404E+00 8.820E+02 1.568E+04 6.265E+04 7.921E+04 7.922E+04 2.985E+07 32.9166 1.00000
  1.585E+11 1.585E+11 4.424E+00 9.899E+02 1.759E+04 7.176E+04 9.034E+04 9.035E+04 3.006E+07 33.1468 1.00000
  1.778E+11 1.778E+11 4.445E+00 1.111E+03 1.974E+04 8.220E+04 1.031E+05 1.031E+05 3.026E+07 33.3771 1.00000
  1.995E+11 1.995E+11 4.465E+00 1.247E+03 2.214E+04 9.417E+04 1.176E+05 1.176E+05 3.046E+07 33.6074 1.00000
  2.239E+11 2.239E+11 4.486E+00 1.399E+03 2.485E+04 1.079E+05 1.341E+05 1.341E+05 3.065E+07 33.8376 1.00000
  2.512E+11 2.512E+11 4.507E+00 1.570E+03 2.788E+04 1.236E+05 1.530E+05 1.530E+05 3.084E+07 34.0679 1.00000
  2.818E+11 2.818E+11 4.528E+00 1.762E+03 3.128E+04 1.416E+05 1.746E+05 1.746E+05 3.103E+07 34.2981 1.00000
  3.162E+11 3.162E+11 4.549E+00 1.978E+03 3.509E+04 1.622E+05 1.993E+05 1.993E+05 3.121E+07 34.5284 1.00000
  3.548E+11 3.548E+11 4.570E+00 2.219E+03 3.937E+04 1.859E+05 2.275E+05 2.275E+05 3.140E+07 34.7587 1.00000
  3.981E+11 3.981E+11 4.591E+00 2.490E+03 4.418E+04 2.130E+05 2.597E+05 2.597E+05 3.157E+07 34.9889 1.00000
  4.467E+11 4.467E+11 4.612E+00 2.794E+03 4.957E+04 2.441E+05 2.965E+05 2.965E+05 3.175E+07 35.2192 1.00000
  5.012E+11 5.012E+11 4.634E+00 3.136E+03 5.561E+04 2.798E+05 3.385E+05 3.385E+05 3.192E+07 35.4494 1.00000
  5.623E+11 5.623E+11 4.656E+00 3.519E+03 6.240E+04 3.206E+05 3.865E+05 3.866E+05 3.209E+07 35.6797 1.00000
  6.310E+11 6.310E+11 4.677E+00 3.949E+03 7.001E+04 3.675E+05 4.414E+05 4.414E+05 3.226E+07 35.9099 1.00000
  7.079E+11 7.079E+11 4.699E+00 4.431E+03 7.855E+04 4.212E+05 5.042E+05 5.042E+05 3.242E+07 36.1402 1.00000
  7.943E+11 7.943E+11 4.721E+00 4.972E+03 8.813E+04 4.828E+05 5.759E+05 5.759E+05 3.258E+07 36.3705 1.00000
  8.913E+11 8.913E+11 4.743E+00 5.579E+03 9.888E+04 5.535E+05 6.579E+05 6.579E+05 3.274E+07 36.6007 1.00000
  1.000E+12 1.000E+12 4.766E+00 6.260E+03 1.109E+05 6.345E+05 7.517E+05 7.517E+05 3.289E+07 36.8310 1.00000
  1.122E+12 1.122E+12 4.788E+00 7.024E+03 1.245E+05 7.274E+05 8.589E+05 8.589E+05 3.305E+07 37.0612 1.00000
  1.259E+12 1.259E+12 4.811E+00 7.882E+03 1.397E+05 8.339E+05 9.815E+05 9.815E+05 3.320E+07 37.2915 1.00000
  1.413E+12 1.413E+12 4.833E+00 8.844E+03 1.567E+05 9.561E+05 1.122E+06 1.122E+06 3.334E+07 37.5218 1.00000
  1.585E+12 1.585E+12 4.856E+00 9.923E+03 1.758E+05 1.096E+06 1.282E+06 1.282E+06 3.349E+07 37.7520 1.00000
  1.778E+12 1.778E+12 4.879E+00 1.113E+04 1.972E+05 1.257E+06 1.465E+06 1.465E+06 3.363E+07 37.9823 1.00000
  1.995E+12 1.995E+12 4.902E+00 1.249E+04 2.213E+05 1.442E+06 1.675E+06 1.675E+06 3.377E+07 38.2125 1.00000
  2.239E+12 2.239E+12 4.925E+00 1.402E+04 2.483E+05 1.653E+06 1.915E+06 1.915E+06 3.390E+07 38.4428 1.00000
  2.512E+12 2.512E+12 4.948E+00 1.573E+04 2.786E+05 1.896E+06 2.190E+06 2.190E+06 3.404E+07 38.6730 1.00000
  2.818E+12 2.818E+12 4.972E+00 1.765E+04 3.126E+05 2.174E+06 2.505E+06 2.505E+06 3.417E+07 38.9033 1.00000
  3.162E+12 3.162E+12 4.995E+00 1.980E+04 3.507E+05 2.494E+06 2.864E+06 2.864E+06 3.430E+07 39.1336 1.00000
  3.548E+12 3.548E+12 5.019E+00 2.222E+04 3.934E+05 2.860E+06 3.276E+06 3.276E+06 3.442E+07 39.3638 1.00000
  3.981E+12 3.981E+12 5.042E+00 2.493E+04 4.414E+05 3.281E+06 3.747E+06 3.748E+06 3.455E+07 39.5941 1.00000
  4.467E+12 4.467E+12 5.066E+00 2.797E+04 4.953E+05 3.764E+06 4.287E+06 4.287E+06 3.467E+07 39.8243 1.00000
  5.012E+12 5.012E+12 5.090E+00 3.139E+04 5.557E+05 4.318E+06 4.905E+06 4.905E+06 3.479E+07 40.0546 1.00000
  5.623E+12 5.623E+12 5.115E+00 3.522E+04 6.235E+05 4.954E+06 5.612E+06 5.612E+06 3.490E+07 40.2849 1.00000
  6.310E+12 6.310E+12 5.139E+00 3.952E+04 6.995E+05 5.683E+06 6.422E+06 6.422E+06 3.502E+07 40.5151 1.00000
  7.079E+12 7.079E+12 5.163E+00 4.434E+04 7.848E+05 6.521E+06 7.350E+06 7.350E+06 3.513E+07 40.7454 1.00000
  7.943E+12 7.943E+12 5.188E+00 4.975E+04 8.805E+05 7.482E+06 8.412E+06 8.412E+06 3.524E+07 40.9756 1.00000
  8.913E+12 8.913E+12 5.213E+00 5.582E+04 9.879E+05 8.585E+06 9.629E+06 9.629E+06 3.535E+07 41.2059 1.00000
  1.000E+13 1.000E+13 5.237E+00 6.263E+04 1.108E+06 9.851E+06 1.102E+07 1.102E+07 3.546E+07 41.4362 1.00000
  1.122E+13 1.122E+13 5.262E+00 7.027E+04 1.244E+06 1.131E+07 1.262E+07 1.262E+07 3.556E+07 41.6664 1.00000
  1.259E+13 1.259E+13 5.287E+00 7.885E+04 1.395E+06 1.297E+07 1.445E+07 1.445E+07 3.566E+07 41.8967 1.00000
  1.413E+13 1.413E+13 5.313E+00 8.847E+04 1.565E+06 1.489E+07 1.654E+07 1.654E+07 3.576E+07 42.1269 1.00000
  1.585E+13 1.585E+13 5.338E+00 9.927E+04 1.756E+06 1.709E+07 1.895E+07 1.895E+07 3.586E+07 42.3572 1.00000
  1.778E+13 1.778E+13 5.364E+00 1.114E+05 1.971E+06 1.962E+07 2.170E+07 2.170E+07 3.595E+07 42.5874 1.00000
  1.995E+13 1.995E+13 5.389E+00 1.250E+05 2.211E+06 2.252E+07 2.485E+07 2.485E+07 3.605E+07 42.8177 1.00000
  2.239E+13 2.239E+13 5.415E+00 1.402E+05 2.481E+06 2.585E+07 2.847E+07 2.847E+07 3.614E+07 43.0480 1.00000
  2.512E+13 2.512E+13 5.441E+00 1.573E+05 2.783E+06 2.967E+07 3.261E+07 3.261E+07 3.623E+07 43.2782 1.00000
  2.818E+13 2.818E+13 5.467E+00 1.765E+05 3.122E+06 3.406E+07 3.736E+07 3.736E+07 3.632E+07 43.5085 1.00000
  3.162E+13 3.162E+13 5.493E+00 1.981E+05 3.503E+06 3.911E+07 4.281E+07 4.281E+07 3.640E+07 43.7387 1.00000
  3.548E+13 3.548E+13 5.520E+00 2.222E+05 3.931E+06 4.490E+07 4.905E+07 4.905E+07 3.649E+07 43.9690 1.00000
  3.981E+13 3.981E+13 5.546E+00 2.493E+05 4.410E+06 5.155E+07 5.621E+07 5.621E+07 3.657E+07 44.1993 1.00000
  4.467E+13 4.467E+13 5.573E+00 2.798E+05 4.948E+06 5.920E+07 6.442E+07 6.442E+07 3.665E+07 44.4295 1.00000
  5.012E+13 5.012E+13 5.600E+00 3.139E+05 5.551E+06 6.797E+07 7.384E+07 7.384E+07 3.673E+07 44.6598 1.00000
  5.623E+13 5.623E+13 5.626E+00 3.522E+05 6.228E+06 7.806E+07 8.464E+07 8.464E+07 3.681E+07 44.8900 1.00000
  6.310E+13 6.310E+13 5.653E+00 3.952E+05 6.988E+06 8.964E+07 9.702E+07 9.702E+07 3.688E+07 45.1203 1.00000
  7.079E+13 7.079E+13 5.681E+00 4.434E+05 7.840E+06 1.029E+08 1.112E+08 1.112E+08 3.696E+07 45.3505 1.00000
  7.943E+13 7.943E+13 5.708E+00 4.975E+05 8.796E+06 1.182E+08 1.275E+08 1.275E+08 3.703E+07 45.5808 1.00000
  8.913E+13 8.913E+13 5.736E+00 5.582E+05 9.869E+06 1.358E+08 1.462E+08 1.462E+08 3.710E+07 45.8111 1.00000
