 Incident particle is a Tau with M = 1776.82000 MeV
 Index = 0: Polyvinyltoluene
      Absorber with <Z/A> = 0.54136
 Sternheimer coef:  a     k=m_s   x_0    x_1    I[eV]   Cbar  delta0
                 0.1610  3.2393  0.1464  2.4855   64.7  3.1997 0.00

 *** Table generated with PUMAS v1.00 ***

      T         p     Ionization  brems     pair     photonuc  Radloss    dE/dx   CSDA Range  delta   beta
    [MeV]    [MeV/c]  -----------------------[MeV cm^2/g]------------------------  [g/cm^2]
  1.000E+05 1.018E+05 2.387E+00 1.141E-04 1.771E-03 8.431E-03 1.032E-02 2.397E+00 2.086E+04  4.9534 0.99985
  1.122E+05 1.140E+05 2.407E+00 1.317E-04 2.142E-03 9.528E-03 1.180E-02 2.419E+00 2.593E+04  5.1682 0.99988
  1.259E+05 1.277E+05 2.427E+00 1.520E-04 2.581E-03 1.071E-02 1.344E-02 2.441E+00 3.156E+04  5.3852 0.99990
  1.413E+05 1.430E+05 2.448E+00 1.754E-04 3.099E-03 1.204E-02 1.532E-02 2.463E+00 3.783E+04  5.6041 0.99992
  1.585E+05 1.603E+05 2.468E+00 2.023E-04 3.709E-03 1.353E-02 1.745E-02 2.485E+00 4.479E+04  5.8248 0.99994
  1.778E+05 1.796E+05 2.488E+00 2.332E-04 4.424E-03 1.520E-02 1.986E-02 2.508E+00 5.254E+04  6.0471 0.99995
  1.995E+05 2.013E+05 2.508E+00 2.687E-04 5.263E-03 1.711E-02 2.264E-02 2.530E+00 6.115E+04  6.2708 0.99996
  2.239E+05 2.256E+05 2.528E+00 3.095E-04 6.244E-03 1.919E-02 2.574E-02 2.553E+00 7.073E+04  6.4957 0.99997
  2.512E+05 2.530E+05 2.548E+00 3.564E-04 7.390E-03 2.152E-02 2.927E-02 2.577E+00 8.138E+04  6.7216 0.99998
  2.818E+05 2.836E+05 2.567E+00 4.101E-04 8.725E-03 2.416E-02 3.329E-02 2.601E+00 9.322E+04  6.9485 0.99998
  3.162E+05 3.180E+05 2.587E+00 4.718E-04 1.028E-02 2.713E-02 3.788E-02 2.625E+00 1.064E+05  7.1762 0.99998
  3.548E+05 3.566E+05 2.607E+00 5.425E-04 1.208E-02 3.048E-02 4.310E-02 2.650E+00 1.210E+05  7.4045 0.99999
  3.981E+05 3.999E+05 2.627E+00 6.236E-04 1.417E-02 3.421E-02 4.901E-02 2.676E+00 1.373E+05  7.6332 0.99999
  4.467E+05 4.485E+05 2.646E+00 7.166E-04 1.660E-02 3.840E-02 5.572E-02 2.702E+00 1.553E+05  7.8623 0.99999
  5.012E+05 5.030E+05 2.666E+00 8.231E-04 1.940E-02 4.312E-02 6.335E-02 2.729E+00 1.754E+05  8.0917 0.99999
  5.623E+05 5.641E+05 2.686E+00 9.452E-04 2.263E-02 4.824E-02 7.182E-02 2.757E+00 1.977E+05  8.3212 1.00000
  6.310E+05 6.327E+05 2.705E+00 1.085E-03 2.636E-02 5.401E-02 8.146E-02 2.787E+00 2.225E+05  8.5507 1.00000
  7.079E+05 7.097E+05 2.725E+00 1.245E-03 3.066E-02 6.053E-02 9.244E-02 2.817E+00 2.499E+05  8.7804 1.00000
  7.943E+05 7.961E+05 2.744E+00 1.428E-03 3.561E-02 6.789E-02 1.049E-01 2.849E+00 2.804E+05  9.0101 1.00000
  8.913E+05 8.930E+05 2.763E+00 1.638E-03 4.129E-02 7.622E-02 1.191E-01 2.882E+00 3.142E+05  9.2399 1.00000
  1.000E+06 1.002E+06 2.782E+00 1.878E-03 4.781E-02 8.563E-02 1.353E-01 2.918E+00 3.517E+05  9.4697 1.00000
  1.122E+06 1.124E+06 2.802E+00 2.153E-03 5.529E-02 9.630E-02 1.537E-01 2.955E+00 3.933E+05  9.6996 1.00000
  1.259E+06 1.261E+06 2.821E+00 2.467E-03 6.386E-02 1.084E-01 1.747E-01 2.995E+00 4.393E+05  9.9295 1.00000
  1.413E+06 1.414E+06 2.839E+00 2.827E-03 7.366E-02 1.221E-01 1.986E-01 3.038E+00 4.902E+05 10.1594 1.00000
  1.585E+06 1.587E+06 2.858E+00 3.238E-03 8.486E-02 1.376E-01 2.257E-01 3.084E+00 5.466E+05 10.3894 1.00000
  1.778E+06 1.780E+06 2.877E+00 3.708E-03 9.766E-02 1.552E-01 2.566E-01 3.133E+00 6.088E+05 10.6194 1.00000
  1.995E+06 1.997E+06 2.895E+00 4.244E-03 1.122E-01 1.752E-01 2.917E-01 3.187E+00 6.774E+05 10.8495 1.00000
  2.239E+06 2.240E+06 2.914E+00 4.858E-03 1.289E-01 1.980E-01 3.317E-01 3.245E+00 7.531E+05 11.0796 1.00000
  2.512E+06 2.514E+06 2.932E+00 5.559E-03 1.478E-01 2.238E-01 3.772E-01 3.309E+00 8.365E+05 11.3096 1.00000
  2.818E+06 2.820E+06 2.950E+00 6.360E-03 1.694E-01 2.532E-01 4.289E-01 3.379E+00 9.282E+05 11.5397 1.00000
  3.162E+06 3.164E+06 2.968E+00 7.274E-03 1.939E-01 2.866E-01 4.877E-01 3.455E+00 1.029E+06 11.7699 1.00000
  3.548E+06 3.550E+06 2.985E+00 8.318E-03 2.217E-01 3.245E-01 5.545E-01 3.540E+00 1.139E+06 12.0000 1.00000
  3.981E+06 3.983E+06 3.003E+00 9.509E-03 2.533E-01 3.678E-01 6.305E-01 3.634E+00 1.260E+06 12.2302 1.00000
  4.467E+06 4.469E+06 3.020E+00 1.087E-02 2.891E-01 4.170E-01 7.169E-01 3.737E+00 1.392E+06 12.4603 1.00000
  5.012E+06 5.014E+06 3.038E+00 1.242E-02 3.297E-01 4.730E-01 8.150E-01 3.853E+00 1.535E+06 12.6905 1.00000
  5.623E+06 5.625E+06 3.055E+00 1.419E-02 3.756E-01 5.367E-01 9.266E-01 3.981E+00 1.692E+06 12.9207 1.00000
  6.310E+06 6.311E+06 3.071E+00 1.620E-02 4.277E-01 6.094E-01 1.053E+00 4.125E+00 1.861E+06 13.1509 1.00000
  7.079E+06 7.081E+06 3.088E+00 1.850E-02 4.866E-01 6.921E-01 1.197E+00 4.285E+00 2.044E+06 13.3811 1.00000
  7.943E+06 7.945E+06 3.105E+00 2.112E-02 5.531E-01 7.864E-01 1.361E+00 4.465E+00 2.242E+06 13.6113 1.00000
  8.913E+06 8.914E+06 3.121E+00 2.411E-02 6.283E-01 8.939E-01 1.546E+00 4.667E+00 2.454E+06 13.8415 1.00000
  1.000E+07 1.000E+07 3.137E+00 2.750E-02 7.133E-01 1.016E+00 1.757E+00 4.894E+00 2.682E+06 14.0717 1.00000
  1.122E+07 1.122E+07 3.153E+00 3.137E-02 8.092E-01 1.156E+00 1.997E+00 5.150E+00 2.925E+06 14.3019 1.00000
  1.259E+07 1.259E+07 3.169E+00 3.578E-02 9.174E-01 1.315E+00 2.268E+00 5.438E+00 3.183E+06 14.5321 1.00000
  1.413E+07 1.413E+07 3.185E+00 4.079E-02 1.039E+00 1.497E+00 2.577E+00 5.762E+00 3.458E+06 14.7624 1.00000
  1.585E+07 1.585E+07 3.201E+00 4.649E-02 1.177E+00 1.704E+00 2.927E+00 6.128E+00 3.748E+06 14.9926 1.00000
  1.778E+07 1.778E+07 3.216E+00 5.298E-02 1.332E+00 1.940E+00 3.325E+00 6.541E+00 4.054E+06 15.2228 1.00000
  1.995E+07 1.995E+07 3.232E+00 6.035E-02 1.507E+00 2.210E+00 3.777E+00 7.008E+00 4.374E+06 15.4531 1.00000
  2.239E+07 2.239E+07 3.247E+00 6.873E-02 1.703E+00 2.517E+00 4.289E+00 7.536E+00 4.710E+06 15.6833 1.00000
  2.512E+07 2.512E+07 3.262E+00 7.825E-02 1.925E+00 2.868E+00 4.871E+00 8.133E+00 5.059E+06 15.9135 1.00000
  2.818E+07 2.819E+07 3.277E+00 8.906E-02 2.174E+00 3.268E+00 5.531E+00 8.809E+00 5.421E+06 16.1438 1.00000
  3.162E+07 3.162E+07 3.293E+00 1.013E-01 2.455E+00 3.725E+00 6.281E+00 9.573E+00 5.796E+06 16.3740 1.00000
  3.548E+07 3.548E+07 3.308E+00 1.153E-01 2.770E+00 4.246E+00 7.132E+00 1.044E+01 6.182E+06 16.6043 1.00000
  3.981E+07 3.981E+07 3.323E+00 1.311E-01 3.125E+00 4.841E+00 8.097E+00 1.142E+01 6.579E+06 16.8345 1.00000
  4.467E+07 4.467E+07 3.338E+00 1.491E-01 3.524E+00 5.520E+00 9.193E+00 1.253E+01 6.986E+06 17.0648 1.00000
  5.012E+07 5.012E+07 3.353E+00 1.694E-01 3.973E+00 6.295E+00 1.044E+01 1.379E+01 7.401E+06 17.2950 1.00000
  5.623E+07 5.624E+07 3.368E+00 1.925E-01 4.477E+00 7.180E+00 1.185E+01 1.522E+01 7.824E+06 17.5253 1.00000
  6.310E+07 6.310E+07 3.383E+00 2.186E-01 5.044E+00 8.190E+00 1.345E+01 1.684E+01 8.253E+06 17.7555 1.00000
  7.079E+07 7.080E+07 3.398E+00 2.483E-01 5.681E+00 9.344E+00 1.527E+01 1.867E+01 8.688E+06 17.9858 1.00000
  7.943E+07 7.943E+07 3.413E+00 2.819E-01 6.397E+00 1.066E+01 1.734E+01 2.075E+01 9.127E+06 18.2160 1.00000
  8.913E+07 8.913E+07 3.428E+00 3.199E-01 7.201E+00 1.216E+01 1.968E+01 2.311E+01 9.570E+06 18.4463 1.00000
  1.000E+08 1.000E+08 3.443E+00 3.629E-01 8.103E+00 1.388E+01 2.235E+01 2.579E+01 1.002E+07 18.6765 1.00000
  1.122E+08 1.122E+08 3.458E+00 4.116E-01 9.117E+00 1.584E+01 2.537E+01 2.883E+01 1.046E+07 18.9068 1.00000
  1.259E+08 1.259E+08 3.474E+00 4.667E-01 1.026E+01 1.808E+01 2.881E+01 3.228E+01 1.091E+07 19.1370 1.00000
  1.413E+08 1.413E+08 3.489E+00 5.291E-01 1.153E+01 2.064E+01 3.271E+01 3.619E+01 1.136E+07 19.3673 1.00000
  1.585E+08 1.585E+08 3.504E+00 5.996E-01 1.297E+01 2.356E+01 3.713E+01 4.064E+01 1.181E+07 19.5976 1.00000
  1.778E+08 1.778E+08 3.519E+00 6.793E-01 1.458E+01 2.690E+01 4.216E+01 4.568E+01 1.226E+07 19.8278 1.00000
  1.995E+08 1.995E+08 3.535E+00 7.694E-01 1.639E+01 3.072E+01 4.788E+01 5.141E+01 1.271E+07 20.0581 1.00000
  2.239E+08 2.239E+08 3.550E+00 8.712E-01 1.842E+01 3.507E+01 5.437E+01 5.792E+01 1.316E+07 20.2883 1.00000
  2.512E+08 2.512E+08 3.566E+00 9.862E-01 2.070E+01 4.005E+01 6.174E+01 6.531E+01 1.360E+07 20.5186 1.00000
  2.818E+08 2.818E+08 3.581E+00 1.116E+00 2.326E+01 4.574E+01 7.012E+01 7.370E+01 1.405E+07 20.7488 1.00000
  3.162E+08 3.162E+08 3.597E+00 1.263E+00 2.614E+01 5.224E+01 7.964E+01 8.323E+01 1.449E+07 20.9791 1.00000
  3.548E+08 3.548E+08 3.613E+00 1.428E+00 2.936E+01 5.966E+01 9.045E+01 9.406E+01 1.492E+07 21.2094 1.00000
  3.981E+08 3.981E+08 3.628E+00 1.614E+00 3.298E+01 6.815E+01 1.027E+02 1.064E+02 1.536E+07 21.4396 1.00000
  4.467E+08 4.467E+08 3.644E+00 1.825E+00 3.704E+01 7.784E+01 1.167E+02 1.204E+02 1.579E+07 21.6699 1.00000
  5.012E+08 5.012E+08 3.660E+00 2.062E+00 4.160E+01 8.893E+01 1.326E+02 1.363E+02 1.621E+07 21.9001 1.00000
  5.623E+08 5.623E+08 3.676E+00 2.330E+00 4.672E+01 1.016E+02 1.506E+02 1.543E+02 1.664E+07 22.1304 1.00000
  6.310E+08 6.310E+08 3.692E+00 2.632E+00 5.246E+01 1.161E+02 1.712E+02 1.749E+02 1.705E+07 22.3606 1.00000
  7.079E+08 7.079E+08 3.708E+00 2.972E+00 5.890E+01 1.326E+02 1.945E+02 1.982E+02 1.747E+07 22.5909 1.00000
  7.943E+08 7.943E+08 3.725E+00 3.355E+00 6.613E+01 1.515E+02 2.210E+02 2.247E+02 1.788E+07 22.8212 1.00000
  8.913E+08 8.913E+08 3.741E+00 3.786E+00 7.425E+01 1.732E+02 2.512E+02 2.549E+02 1.829E+07 23.0514 1.00000
  1.000E+09 1.000E+09 3.757E+00 4.272E+00 8.335E+01 1.979E+02 2.855E+02 2.893E+02 1.869E+07 23.2817 1.00000
  1.122E+09 1.122E+09 3.774E+00 4.820E+00 9.357E+01 2.261E+02 3.245E+02 3.283E+02 1.908E+07 23.5119 1.00000
  1.259E+09 1.259E+09 3.790E+00 5.436E+00 1.050E+02 2.584E+02 3.689E+02 3.727E+02 1.948E+07 23.7422 1.00000
  1.413E+09 1.413E+09 3.807E+00 6.130E+00 1.179E+02 2.954E+02 4.194E+02 4.232E+02 1.986E+07 23.9724 1.00000
  1.585E+09 1.585E+09 3.824E+00 6.910E+00 1.323E+02 3.376E+02 4.769E+02 4.807E+02 2.025E+07 24.2027 1.00000
  1.778E+09 1.778E+09 3.841E+00 7.788E+00 1.485E+02 3.860E+02 5.423E+02 5.461E+02 2.062E+07 24.4330 1.00000
  1.995E+09 1.995E+09 3.858E+00 8.777E+00 1.667E+02 4.412E+02 6.167E+02 6.205E+02 2.100E+07 24.6632 1.00000
  2.239E+09 2.239E+09 3.875E+00 9.888E+00 1.871E+02 5.044E+02 7.014E+02 7.052E+02 2.137E+07 24.8935 1.00000
  2.512E+09 2.512E+09 3.892E+00 1.114E+01 2.100E+02 5.766E+02 7.978E+02 8.017E+02 2.173E+07 25.1237 1.00000
  2.818E+09 2.818E+09 3.909E+00 1.254E+01 2.357E+02 6.593E+02 9.075E+02 9.114E+02 2.209E+07 25.3540 1.00000
  3.162E+09 3.162E+09 3.926E+00 1.412E+01 2.645E+02 7.538E+02 1.032E+03 1.036E+03 2.244E+07 25.5843 1.00000
  3.548E+09 3.548E+09 3.944E+00 1.590E+01 2.968E+02 8.619E+02 1.175E+03 1.179E+03 2.279E+07 25.8145 1.00000
  3.981E+09 3.981E+09 3.961E+00 1.790E+01 3.331E+02 9.856E+02 1.337E+03 1.341E+03 2.314E+07 26.0448 1.00000
  4.467E+09 4.467E+09 3.979E+00 2.014E+01 3.738E+02 1.127E+03 1.521E+03 1.525E+03 2.348E+07 26.2750 1.00000
  5.012E+09 5.012E+09 3.997E+00 2.266E+01 4.194E+02 1.289E+03 1.731E+03 1.735E+03 2.382E+07 26.5053 1.00000
  5.623E+09 5.623E+09 4.015E+00 2.550E+01 4.707E+02 1.474E+03 1.970E+03 1.974E+03 2.415E+07 26.7355 1.00000
  6.310E+09 6.310E+09 4.032E+00 2.868E+01 5.282E+02 1.686E+03 2.243E+03 2.247E+03 2.447E+07 26.9658 1.00000
  7.079E+09 7.079E+09 4.050E+00 3.226E+01 5.927E+02 1.929E+03 2.554E+03 2.558E+03 2.479E+07 27.1961 1.00000
  7.943E+09 7.943E+09 4.069E+00 3.627E+01 6.650E+02 2.206E+03 2.907E+03 2.912E+03 2.511E+07 27.4263 1.00000
  8.913E+09 8.913E+09 4.087E+00 4.079E+01 7.462E+02 2.524E+03 3.311E+03 3.315E+03 2.542E+07 27.6566 1.00000
  1.000E+10 1.000E+10 4.105E+00 4.585E+01 8.374E+02 2.887E+03 3.770E+03 3.774E+03 2.573E+07 27.8868 1.00000
  1.122E+10 1.122E+10 4.124E+00 5.155E+01 9.396E+02 3.303E+03 4.294E+03 4.298E+03 2.604E+07 28.1171 1.00000
  1.259E+10 1.259E+10 4.142E+00 5.794E+01 1.054E+03 3.779E+03 4.891E+03 4.895E+03 2.634E+07 28.3474 1.00000
  1.413E+10 1.413E+10 4.161E+00 6.511E+01 1.183E+03 4.324E+03 5.572E+03 5.576E+03 2.663E+07 28.5776 1.00000
  1.585E+10 1.585E+10 4.179E+00 7.317E+01 1.327E+03 4.947E+03 6.348E+03 6.352E+03 2.692E+07 28.8079 1.00000
  1.778E+10 1.778E+10 4.198E+00 8.222E+01 1.489E+03 5.661E+03 7.233E+03 7.237E+03 2.721E+07 29.0381 1.00000
  1.995E+10 1.995E+10 4.217E+00 9.238E+01 1.671E+03 6.478E+03 8.242E+03 8.246E+03 2.749E+07 29.2684 1.00000
  2.239E+10 2.239E+10 4.236E+00 1.038E+02 1.875E+03 7.414E+03 9.393E+03 9.397E+03 2.776E+07 29.4987 1.00000
  2.512E+10 2.512E+10 4.256E+00 1.166E+02 2.104E+03 8.485E+03 1.071E+04 1.071E+04 2.804E+07 29.7289 1.00000
  2.818E+10 2.818E+10 4.275E+00 1.310E+02 2.361E+03 9.711E+03 1.220E+04 1.221E+04 2.831E+07 29.9592 1.00000
  3.162E+10 3.162E+10 4.294E+00 1.471E+02 2.649E+03 1.112E+04 1.391E+04 1.392E+04 2.857E+07 30.1894 1.00000
  3.548E+10 3.548E+10 4.314E+00 1.652E+02 2.972E+03 1.272E+04 1.586E+04 1.586E+04 2.883E+07 30.4197 1.00000
  3.981E+10 3.981E+10 4.333E+00 1.855E+02 3.335E+03 1.456E+04 1.808E+04 1.809E+04 2.909E+07 30.6499 1.00000
  4.467E+10 4.467E+10 4.353E+00 2.083E+02 3.742E+03 1.667E+04 2.062E+04 2.063E+04 2.934E+07 30.8802 1.00000
  5.012E+10 5.012E+10 4.373E+00 2.339E+02 4.198E+03 1.909E+04 2.352E+04 2.352E+04 2.959E+07 31.1105 1.00000
  5.623E+10 5.623E+10 4.393E+00 2.626E+02 4.710E+03 2.185E+04 2.683E+04 2.683E+04 2.983E+07 31.3407 1.00000
  6.310E+10 6.310E+10 4.413E+00 2.949E+02 5.285E+03 2.502E+04 3.060E+04 3.060E+04 3.007E+07 31.5710 1.00000
  7.079E+10 7.079E+10 4.433E+00 3.311E+02 5.930E+03 2.865E+04 3.491E+04 3.491E+04 3.031E+07 31.8012 1.00000
  7.943E+10 7.943E+10 4.453E+00 3.717E+02 6.653E+03 3.280E+04 3.983E+04 3.983E+04 3.054E+07 32.0315 1.00000
  8.913E+10 8.913E+10 4.474E+00 4.172E+02 7.465E+03 3.756E+04 4.545E+04 4.545E+04 3.077E+07 32.2618 1.00000
  1.000E+11 1.000E+11 4.494E+00 4.684E+02 8.376E+03 4.302E+04 5.186E+04 5.187E+04 3.099E+07 32.4920 1.00000
  1.122E+11 1.122E+11 4.515E+00 5.258E+02 9.397E+03 4.927E+04 5.919E+04 5.919E+04 3.121E+07 32.7223 1.00000
  1.259E+11 1.259E+11 4.536E+00 5.902E+02 1.054E+04 5.643E+04 6.756E+04 6.756E+04 3.143E+07 32.9525 1.00000
  1.413E+11 1.413E+11 4.556E+00 6.624E+02 1.183E+04 6.463E+04 7.712E+04 7.712E+04 3.164E+07 33.1828 1.00000
  1.585E+11 1.585E+11 4.577E+00 7.435E+02 1.327E+04 7.403E+04 8.804E+04 8.805E+04 3.185E+07 33.4130 1.00000
  1.778E+11 1.778E+11 4.598E+00 8.345E+02 1.489E+04 8.480E+04 1.005E+05 1.005E+05 3.206E+07 33.6433 1.00000
  1.995E+11 1.995E+11 4.620E+00 9.366E+02 1.671E+04 9.714E+04 1.148E+05 1.148E+05 3.226E+07 33.8736 1.00000
  2.239E+11 2.239E+11 4.641E+00 1.051E+03 1.875E+04 1.113E+05 1.311E+05 1.311E+05 3.246E+07 34.1038 1.00000
  2.512E+11 2.512E+11 4.662E+00 1.180E+03 2.103E+04 1.275E+05 1.497E+05 1.497E+05 3.266E+07 34.3341 1.00000
  2.818E+11 2.818E+11 4.684E+00 1.324E+03 2.360E+04 1.461E+05 1.710E+05 1.710E+05 3.285E+07 34.5643 1.00000
  3.162E+11 3.162E+11 4.706E+00 1.486E+03 2.648E+04 1.674E+05 1.953E+05 1.953E+05 3.304E+07 34.7946 1.00000
  3.548E+11 3.548E+11 4.728E+00 1.667E+03 2.971E+04 1.918E+05 2.231E+05 2.232E+05 3.322E+07 35.0249 1.00000
  3.981E+11 3.981E+11 4.750E+00 1.871E+03 3.333E+04 2.197E+05 2.550E+05 2.550E+05 3.340E+07 35.2551 1.00000
  4.467E+11 4.467E+11 4.772E+00 2.100E+03 3.740E+04 2.518E+05 2.913E+05 2.913E+05 3.358E+07 35.4854 1.00000
  5.012E+11 5.012E+11 4.794E+00 2.356E+03 4.196E+04 2.886E+05 3.329E+05 3.329E+05 3.376E+07 35.7156 1.00000
  5.623E+11 5.623E+11 4.816E+00 2.644E+03 4.708E+04 3.307E+05 3.805E+05 3.805E+05 3.393E+07 35.9459 1.00000
  6.310E+11 6.310E+11 4.839E+00 2.967E+03 5.282E+04 3.791E+05 4.349E+05 4.349E+05 3.410E+07 36.1761 1.00000
  7.079E+11 7.079E+11 4.861E+00 3.330E+03 5.927E+04 4.345E+05 4.971E+05 4.971E+05 3.426E+07 36.4064 1.00000
  7.943E+11 7.943E+11 4.884E+00 3.736E+03 6.650E+04 4.980E+05 5.683E+05 5.683E+05 3.443E+07 36.6367 1.00000
  8.913E+11 8.913E+11 4.907E+00 4.193E+03 7.461E+04 5.709E+05 6.497E+05 6.497E+05 3.459E+07 36.8669 1.00000
  1.000E+12 1.000E+12 4.930E+00 4.705E+03 8.371E+04 6.545E+05 7.429E+05 7.429E+05 3.474E+07 37.0972 1.00000
  1.122E+12 1.122E+12 4.953E+00 5.279E+03 9.392E+04 7.503E+05 8.495E+05 8.495E+05 3.490E+07 37.3274 1.00000
  1.259E+12 1.259E+12 4.976E+00 5.924E+03 1.054E+05 8.602E+05 9.715E+05 9.715E+05 3.505E+07 37.5577 1.00000
  1.413E+12 1.413E+12 4.999E+00 6.647E+03 1.182E+05 9.863E+05 1.111E+06 1.111E+06 3.520E+07 37.7880 1.00000
  1.585E+12 1.585E+12 5.023E+00 7.458E+03 1.327E+05 1.131E+06 1.271E+06 1.271E+06 3.534E+07 38.0182 1.00000
  1.778E+12 1.778E+12 5.046E+00 8.369E+03 1.488E+05 1.297E+06 1.454E+06 1.454E+06 3.548E+07 38.2485 1.00000
  1.995E+12 1.995E+12 5.070E+00 9.390E+03 1.670E+05 1.487E+06 1.663E+06 1.663E+06 3.562E+07 38.4787 1.00000
  2.239E+12 2.239E+12 5.094E+00 1.054E+04 1.874E+05 1.705E+06 1.903E+06 1.903E+06 3.576E+07 38.7090 1.00000
  2.512E+12 2.512E+12 5.118E+00 1.182E+04 2.102E+05 1.956E+06 2.178E+06 2.178E+06 3.590E+07 38.9392 1.00000
  2.818E+12 2.818E+12 5.142E+00 1.327E+04 2.358E+05 2.243E+06 2.492E+06 2.492E+06 3.603E+07 39.1695 1.00000
  3.162E+12 3.162E+12 5.166E+00 1.488E+04 2.646E+05 2.573E+06 2.852E+06 2.852E+06 3.616E+07 39.3998 1.00000
  3.548E+12 3.548E+12 5.190E+00 1.670E+04 2.969E+05 2.951E+06 3.264E+06 3.264E+06 3.628E+07 39.6300 1.00000
  3.981E+12 3.981E+12 5.215E+00 1.874E+04 3.331E+05 3.385E+06 3.736E+06 3.736E+06 3.641E+07 39.8603 1.00000
  4.467E+12 4.467E+12 5.240E+00 2.103E+04 3.737E+05 3.883E+06 4.277E+06 4.277E+06 3.653E+07 40.0905 1.00000
  5.012E+12 5.012E+12 5.264E+00 2.359E+04 4.193E+05 4.454E+06 4.897E+06 4.897E+06 3.665E+07 40.3208 1.00000
  5.623E+12 5.623E+12 5.289E+00 2.647E+04 4.704E+05 5.110E+06 5.607E+06 5.607E+06 3.677E+07 40.5511 1.00000
  6.310E+12 6.310E+12 5.314E+00 2.970E+04 5.278E+05 5.862E+06 6.420E+06 6.420E+06 3.688E+07 40.7813 1.00000
  7.079E+12 7.079E+12 5.339E+00 3.333E+04 5.922E+05 6.726E+06 7.352E+06 7.352E+06 3.699E+07 41.0116 1.00000
  7.943E+12 7.943E+12 5.365E+00 3.739E+04 6.644E+05 7.718E+06 8.420E+06 8.420E+06 3.710E+07 41.2418 1.00000
  8.913E+12 8.913E+12 5.390E+00 4.196E+04 7.455E+05 8.856E+06 9.643E+06 9.643E+06 3.721E+07 41.4721 1.00000
  1.000E+13 1.000E+13 5.416E+00 4.708E+04 8.364E+05 1.016E+07 1.105E+07 1.105E+07 3.732E+07 41.7024 1.00000
  1.122E+13 1.122E+13 5.442E+00 5.282E+04 9.384E+05 1.166E+07 1.265E+07 1.265E+07 3.742E+07 41.9326 1.00000
  1.259E+13 1.259E+13 5.467E+00 5.927E+04 1.053E+06 1.338E+07 1.450E+07 1.450E+07 3.752E+07 42.1629 1.00000
  1.413E+13 1.413E+13 5.493E+00 6.650E+04 1.181E+06 1.536E+07 1.661E+07 1.661E+07 3.762E+07 42.3931 1.00000
  1.585E+13 1.585E+13 5.520E+00 7.462E+04 1.325E+06 1.763E+07 1.903E+07 1.903E+07 3.772E+07 42.6234 1.00000
  1.778E+13 1.778E+13 5.546E+00 8.372E+04 1.487E+06 2.024E+07 2.181E+07 2.181E+07 3.781E+07 42.8536 1.00000
  1.995E+13 1.995E+13 5.572E+00 9.394E+04 1.668E+06 2.323E+07 2.499E+07 2.499E+07 3.791E+07 43.0839 1.00000
  2.239E+13 2.239E+13 5.599E+00 1.054E+05 1.872E+06 2.666E+07 2.864E+07 2.864E+07 3.800E+07 43.3142 1.00000
  2.512E+13 2.512E+13 5.626E+00 1.183E+05 2.100E+06 3.061E+07 3.283E+07 3.283E+07 3.809E+07 43.5444 1.00000
  2.818E+13 2.818E+13 5.653E+00 1.327E+05 2.356E+06 3.514E+07 3.763E+07 3.763E+07 3.817E+07 43.7747 1.00000
  3.162E+13 3.162E+13 5.680E+00 1.489E+05 2.643E+06 4.034E+07 4.313E+07 4.313E+07 3.826E+07 44.0049 1.00000
  3.548E+13 3.548E+13 5.707E+00 1.671E+05 2.966E+06 4.632E+07 4.945E+07 4.945E+07 3.834E+07 44.2352 1.00000
  3.981E+13 3.981E+13 5.734E+00 1.874E+05 3.328E+06 5.318E+07 5.669E+07 5.669E+07 3.843E+07 44.4655 1.00000
  4.467E+13 4.467E+13 5.762E+00 2.103E+05 3.733E+06 6.106E+07 6.501E+07 6.501E+07 3.851E+07 44.6957 1.00000
  5.012E+13 5.012E+13 5.789E+00 2.360E+05 4.189E+06 7.012E+07 7.454E+07 7.454E+07 3.858E+07 44.9260 1.00000
  5.623E+13 5.623E+13 5.817E+00 2.648E+05 4.700E+06 8.052E+07 8.548E+07 8.548E+07 3.866E+07 45.1562 1.00000
  6.310E+13 6.310E+13 5.845E+00 2.971E+05 5.273E+06 9.247E+07 9.804E+07 9.804E+07 3.874E+07 45.3865 1.00000
  7.079E+13 7.079E+13 5.873E+00 3.333E+05 5.916E+06 1.062E+08 1.124E+08 1.124E+08 3.881E+07 45.6167 1.00000
  7.943E+13 7.943E+13 5.901E+00 3.740E+05 6.637E+06 1.220E+08 1.290E+08 1.290E+08 3.888E+07 45.8470 1.00000
  8.913E+13 8.913E+13 5.929E+00 4.196E+05 7.446E+06 1.401E+08 1.479E+08 1.479E+08 3.895E+07 46.0773 1.00000
