 Incident particle is a Tau with M = 1776.82000 MeV
 Index = 0: Polyethylene
      Absorber with <Z/A> = 0.57023
 Sternheimer coef:  a     k=m_s   x_0    x_1    I[eV]   Cbar  delta0
                 0.1211  3.4292  0.1489  2.5296   57.4  3.0563 0.00

 *** Table generated with PUMAS v1.00 ***

      T         p     Ionization  brems     pair     photonuc  Radloss    dE/dx   CSDA Range  delta   beta
    [MeV]    [MeV/c]  -----------------------[MeV cm^2/g]------------------------  [g/cm^2]
  1.000E+05 1.018E+05 2.523E+00 1.098E-04 1.708E-03 8.481E-03 1.030E-02 2.533E+00 1.974E+04  5.0891 0.99985
  1.122E+05 1.140E+05 2.544E+00 1.268E-04 2.069E-03 9.588E-03 1.178E-02 2.556E+00 2.453E+04  5.3055 0.99988
  1.259E+05 1.277E+05 2.566E+00 1.464E-04 2.495E-03 1.078E-02 1.342E-02 2.579E+00 2.986E+04  5.5239 0.99990
  1.413E+05 1.430E+05 2.587E+00 1.689E-04 2.998E-03 1.213E-02 1.529E-02 2.602E+00 3.579E+04  5.7440 0.99992
  1.585E+05 1.603E+05 2.608E+00 1.947E-04 3.590E-03 1.363E-02 1.742E-02 2.625E+00 4.239E+04  5.9657 0.99994
  1.778E+05 1.796E+05 2.629E+00 2.245E-04 4.285E-03 1.532E-02 1.983E-02 2.649E+00 4.972E+04  6.1888 0.99995
  1.995E+05 2.013E+05 2.650E+00 2.586E-04 5.100E-03 1.724E-02 2.260E-02 2.673E+00 5.788E+04  6.4131 0.99996
  2.239E+05 2.256E+05 2.671E+00 2.979E-04 6.054E-03 1.935E-02 2.570E-02 2.697E+00 6.694E+04  6.6384 0.99997
  2.512E+05 2.530E+05 2.692E+00 3.430E-04 7.167E-03 2.171E-02 2.922E-02 2.721E+00 7.703E+04  6.8647 0.99998
  2.818E+05 2.836E+05 2.713E+00 3.947E-04 8.465E-03 2.438E-02 3.324E-02 2.746E+00 8.824E+04  7.0919 0.99998
  3.162E+05 3.180E+05 2.734E+00 4.541E-04 9.976E-03 2.739E-02 3.782E-02 2.772E+00 1.007E+05  7.3196 0.99998
  3.548E+05 3.566E+05 2.754E+00 5.221E-04 1.173E-02 3.078E-02 4.303E-02 2.798E+00 1.146E+05  7.5479 0.99999
  3.981E+05 3.999E+05 2.775E+00 6.002E-04 1.377E-02 3.456E-02 4.893E-02 2.824E+00 1.300E+05  7.7767 0.99999
  4.467E+05 4.485E+05 2.796E+00 6.897E-04 1.612E-02 3.881E-02 5.562E-02 2.852E+00 1.471E+05  8.0058 0.99999
  5.012E+05 5.030E+05 2.817E+00 7.923E-04 1.885E-02 4.359E-02 6.323E-02 2.880E+00 1.661E+05  8.2351 0.99999
  5.623E+05 5.641E+05 2.837E+00 9.099E-04 2.200E-02 4.878E-02 7.169E-02 2.909E+00 1.872E+05  8.4646 1.00000
  6.310E+05 6.327E+05 2.858E+00 1.045E-03 2.563E-02 5.463E-02 8.131E-02 2.939E+00 2.107E+05  8.6941 1.00000
  7.079E+05 7.097E+05 2.878E+00 1.199E-03 2.982E-02 6.124E-02 9.226E-02 2.971E+00 2.368E+05  8.9238 1.00000
  7.943E+05 7.961E+05 2.899E+00 1.375E-03 3.464E-02 6.871E-02 1.047E-01 3.003E+00 2.657E+05  9.1535 1.00000
  8.913E+05 8.930E+05 2.919E+00 1.578E-03 4.017E-02 7.715E-02 1.189E-01 3.038E+00 2.978E+05  9.3833 1.00000
  1.000E+06 1.002E+06 2.939E+00 1.809E-03 4.653E-02 8.671E-02 1.350E-01 3.074E+00 3.334E+05  9.6131 1.00000
  1.122E+06 1.124E+06 2.959E+00 2.074E-03 5.382E-02 9.753E-02 1.534E-01 3.113E+00 3.728E+05  9.8430 1.00000
  1.259E+06 1.261E+06 2.979E+00 2.377E-03 6.217E-02 1.098E-01 1.743E-01 3.154E+00 4.165E+05 10.0729 1.00000
  1.413E+06 1.414E+06 2.999E+00 2.723E-03 7.173E-02 1.237E-01 1.981E-01 3.197E+00 4.649E+05 10.3028 1.00000
  1.585E+06 1.587E+06 3.019E+00 3.120E-03 8.265E-02 1.395E-01 2.252E-01 3.244E+00 5.184E+05 10.5328 1.00000
  1.778E+06 1.780E+06 3.039E+00 3.573E-03 9.513E-02 1.574E-01 2.561E-01 3.295E+00 5.775E+05 10.7628 1.00000
  1.995E+06 1.997E+06 3.058E+00 4.091E-03 1.094E-01 1.777E-01 2.911E-01 3.349E+00 6.429E+05 10.9929 1.00000
  2.239E+06 2.240E+06 3.077E+00 4.684E-03 1.256E-01 2.008E-01 3.310E-01 3.409E+00 7.149E+05 11.2230 1.00000
  2.512E+06 2.514E+06 3.097E+00 5.361E-03 1.441E-01 2.270E-01 3.764E-01 3.473E+00 7.943E+05 11.4530 1.00000
  2.818E+06 2.820E+06 3.116E+00 6.134E-03 1.651E-01 2.568E-01 4.281E-01 3.544E+00 8.817E+05 11.6831 1.00000
  3.162E+06 3.164E+06 3.134E+00 7.017E-03 1.890E-01 2.907E-01 4.868E-01 3.621E+00 9.777E+05 11.9133 1.00000
  3.548E+06 3.550E+06 3.153E+00 8.026E-03 2.162E-01 3.293E-01 5.535E-01 3.707E+00 1.083E+06 12.1434 1.00000
  3.981E+06 3.983E+06 3.172E+00 9.177E-03 2.470E-01 3.732E-01 6.294E-01 3.801E+00 1.198E+06 12.3736 1.00000
  4.467E+06 4.469E+06 3.190E+00 1.049E-02 2.820E-01 4.232E-01 7.157E-01 3.906E+00 1.324E+06 12.6037 1.00000
  5.012E+06 5.014E+06 3.208E+00 1.199E-02 3.217E-01 4.801E-01 8.137E-01 4.022E+00 1.462E+06 12.8339 1.00000
  5.623E+06 5.625E+06 3.226E+00 1.370E-02 3.666E-01 5.449E-01 9.251E-01 4.151E+00 1.612E+06 13.0641 1.00000
  6.310E+06 6.311E+06 3.244E+00 1.565E-02 4.174E-01 6.187E-01 1.052E+00 4.295E+00 1.774E+06 13.2943 1.00000
  7.079E+06 7.081E+06 3.261E+00 1.788E-02 4.750E-01 7.027E-01 1.196E+00 4.457E+00 1.950E+06 13.5245 1.00000
  7.943E+06 7.945E+06 3.279E+00 2.041E-02 5.400E-01 7.986E-01 1.359E+00 4.638E+00 2.140E+06 13.7547 1.00000
  8.913E+06 8.914E+06 3.296E+00 2.330E-02 6.135E-01 9.077E-01 1.545E+00 4.840E+00 2.345E+06 13.9849 1.00000
  1.000E+07 1.000E+07 3.313E+00 2.660E-02 6.966E-01 1.032E+00 1.755E+00 5.068E+00 2.564E+06 14.2151 1.00000
  1.122E+07 1.122E+07 3.330E+00 3.035E-02 7.903E-01 1.174E+00 1.995E+00 5.325E+00 2.799E+06 14.4453 1.00000
  1.259E+07 1.259E+07 3.347E+00 3.461E-02 8.961E-01 1.336E+00 2.267E+00 5.613E+00 3.050E+06 14.6755 1.00000
  1.413E+07 1.413E+07 3.363E+00 3.947E-02 1.015E+00 1.520E+00 2.575E+00 5.939E+00 3.316E+06 14.9058 1.00000
  1.585E+07 1.585E+07 3.380E+00 4.500E-02 1.150E+00 1.731E+00 2.926E+00 6.306E+00 3.598E+06 15.1360 1.00000
  1.778E+07 1.778E+07 3.396E+00 5.129E-02 1.302E+00 1.971E+00 3.324E+00 6.720E+00 3.895E+06 15.3662 1.00000
  1.995E+07 1.995E+07 3.412E+00 5.844E-02 1.473E+00 2.245E+00 3.776E+00 7.188E+00 4.207E+06 15.5965 1.00000
  2.239E+07 2.239E+07 3.429E+00 6.658E-02 1.665E+00 2.557E+00 4.289E+00 7.717E+00 4.535E+06 15.8267 1.00000
  2.512E+07 2.512E+07 3.445E+00 7.582E-02 1.882E+00 2.913E+00 4.871E+00 8.316E+00 4.876E+06 16.0569 1.00000
  2.818E+07 2.819E+07 3.461E+00 8.632E-02 2.126E+00 3.320E+00 5.532E+00 8.993E+00 5.231E+06 16.2872 1.00000
  3.162E+07 3.162E+07 3.477E+00 9.824E-02 2.400E+00 3.784E+00 6.282E+00 9.759E+00 5.598E+06 16.5174 1.00000
  3.548E+07 3.548E+07 3.493E+00 1.118E-01 2.709E+00 4.314E+00 7.134E+00 1.063E+01 5.977E+06 16.7477 1.00000
  3.981E+07 3.981E+07 3.508E+00 1.272E-01 3.056E+00 4.918E+00 8.102E+00 1.161E+01 6.367E+06 16.9779 1.00000
  4.467E+07 4.467E+07 3.524E+00 1.446E-01 3.447E+00 5.608E+00 9.200E+00 1.272E+01 6.767E+06 17.2082 1.00000
  5.012E+07 5.012E+07 3.540E+00 1.644E-01 3.886E+00 6.396E+00 1.045E+01 1.399E+01 7.176E+06 17.4384 1.00000
  5.623E+07 5.624E+07 3.556E+00 1.868E-01 4.380E+00 7.295E+00 1.186E+01 1.542E+01 7.593E+06 17.6687 1.00000
  6.310E+07 6.310E+07 3.572E+00 2.122E-01 4.935E+00 8.321E+00 1.347E+01 1.704E+01 8.017E+06 17.8989 1.00000
  7.079E+07 7.080E+07 3.588E+00 2.411E-01 5.558E+00 9.493E+00 1.529E+01 1.888E+01 8.447E+06 18.1292 1.00000
  7.943E+07 7.943E+07 3.604E+00 2.737E-01 6.259E+00 1.083E+01 1.736E+01 2.097E+01 8.882E+06 18.3594 1.00000
  8.913E+07 8.913E+07 3.619E+00 3.107E-01 7.045E+00 1.236E+01 1.972E+01 2.334E+01 9.321E+06 18.5897 1.00000
  1.000E+08 1.000E+08 3.635E+00 3.526E-01 7.929E+00 1.410E+01 2.239E+01 2.602E+01 9.763E+06 18.8199 1.00000
  1.122E+08 1.122E+08 3.651E+00 4.000E-01 8.922E+00 1.610E+01 2.542E+01 2.907E+01 1.021E+07 19.0502 1.00000
  1.259E+08 1.259E+08 3.667E+00 4.537E-01 1.004E+01 1.837E+01 2.886E+01 3.253E+01 1.065E+07 19.2804 1.00000
  1.413E+08 1.413E+08 3.683E+00 5.144E-01 1.129E+01 2.097E+01 3.278E+01 3.646E+01 1.110E+07 19.5107 1.00000
  1.585E+08 1.585E+08 3.699E+00 5.831E-01 1.269E+01 2.394E+01 3.722E+01 4.092E+01 1.155E+07 19.7410 1.00000
  1.778E+08 1.778E+08 3.715E+00 6.607E-01 1.427E+01 2.734E+01 4.227E+01 4.598E+01 1.199E+07 19.9712 1.00000
  1.995E+08 1.995E+08 3.732E+00 7.485E-01 1.604E+01 3.121E+01 4.800E+01 5.174E+01 1.244E+07 20.2015 1.00000
  2.239E+08 2.239E+08 3.748E+00 8.476E-01 1.803E+01 3.564E+01 5.452E+01 5.827E+01 1.288E+07 20.4317 1.00000
  2.512E+08 2.512E+08 3.764E+00 9.597E-01 2.027E+01 4.070E+01 6.192E+01 6.569E+01 1.333E+07 20.6620 1.00000
  2.818E+08 2.818E+08 3.781E+00 1.086E+00 2.277E+01 4.647E+01 7.033E+01 7.411E+01 1.377E+07 20.8922 1.00000
  3.162E+08 3.162E+08 3.797E+00 1.229E+00 2.559E+01 5.308E+01 7.989E+01 8.369E+01 1.420E+07 21.1225 1.00000
  3.548E+08 3.548E+08 3.814E+00 1.390E+00 2.874E+01 6.062E+01 9.076E+01 9.457E+01 1.464E+07 21.3528 1.00000
  3.981E+08 3.981E+08 3.830E+00 1.572E+00 3.229E+01 6.924E+01 1.031E+02 1.069E+02 1.507E+07 21.5830 1.00000
  4.467E+08 4.467E+08 3.847E+00 1.778E+00 3.627E+01 7.910E+01 1.171E+02 1.210E+02 1.550E+07 21.8133 1.00000
  5.012E+08 5.012E+08 3.864E+00 2.009E+00 4.073E+01 9.036E+01 1.331E+02 1.370E+02 1.592E+07 22.0435 1.00000
  5.623E+08 5.623E+08 3.881E+00 2.270E+00 4.574E+01 1.032E+02 1.512E+02 1.551E+02 1.634E+07 22.2738 1.00000
  6.310E+08 6.310E+08 3.898E+00 2.564E+00 5.136E+01 1.179E+02 1.719E+02 1.758E+02 1.676E+07 22.5040 1.00000
  7.079E+08 7.079E+08 3.915E+00 2.896E+00 5.767E+01 1.348E+02 1.953E+02 1.992E+02 1.717E+07 22.7343 1.00000
  7.943E+08 7.943E+08 3.932E+00 3.270E+00 6.475E+01 1.540E+02 2.220E+02 2.259E+02 1.758E+07 22.9646 1.00000
  8.913E+08 8.913E+08 3.949E+00 3.692E+00 7.270E+01 1.759E+02 2.523E+02 2.563E+02 1.798E+07 23.1948 1.00000
  1.000E+09 1.000E+09 3.966E+00 4.166E+00 8.161E+01 2.011E+02 2.868E+02 2.908E+02 1.838E+07 23.4251 1.00000
  1.122E+09 1.122E+09 3.984E+00 4.700E+00 9.162E+01 2.298E+02 3.261E+02 3.301E+02 1.878E+07 23.6553 1.00000
  1.259E+09 1.259E+09 4.001E+00 5.302E+00 1.028E+02 2.626E+02 3.708E+02 3.748E+02 1.917E+07 23.8856 1.00000
  1.413E+09 1.413E+09 4.019E+00 5.980E+00 1.154E+02 3.002E+02 4.216E+02 4.256E+02 1.955E+07 24.1158 1.00000
  1.585E+09 1.585E+09 4.036E+00 6.742E+00 1.296E+02 3.431E+02 4.794E+02 4.834E+02 1.993E+07 24.3461 1.00000
  1.778E+09 1.778E+09 4.054E+00 7.600E+00 1.454E+02 3.922E+02 5.452E+02 5.493E+02 2.031E+07 24.5764 1.00000
  1.995E+09 1.995E+09 4.072E+00 8.565E+00 1.632E+02 4.483E+02 6.201E+02 6.242E+02 2.068E+07 24.8066 1.00000
  2.239E+09 2.239E+09 4.090E+00 9.651E+00 1.832E+02 5.125E+02 7.054E+02 7.095E+02 2.105E+07 25.0369 1.00000
  2.512E+09 2.512E+09 4.108E+00 1.087E+01 2.056E+02 5.859E+02 8.024E+02 8.065E+02 2.141E+07 25.2671 1.00000
  2.818E+09 2.818E+09 4.126E+00 1.225E+01 2.308E+02 6.699E+02 9.129E+02 9.170E+02 2.176E+07 25.4974 1.00000
  3.162E+09 3.162E+09 4.144E+00 1.379E+01 2.590E+02 7.660E+02 1.039E+03 1.043E+03 2.212E+07 25.7277 1.00000
  3.548E+09 3.548E+09 4.163E+00 1.553E+01 2.906E+02 8.758E+02 1.182E+03 1.186E+03 2.246E+07 25.9579 1.00000
  3.981E+09 3.981E+09 4.181E+00 1.748E+01 3.261E+02 1.002E+03 1.345E+03 1.349E+03 2.281E+07 26.1882 1.00000
  4.467E+09 4.467E+09 4.200E+00 1.967E+01 3.660E+02 1.145E+03 1.531E+03 1.535E+03 2.315E+07 26.4184 1.00000
  5.012E+09 5.012E+09 4.218E+00 2.214E+01 4.107E+02 1.310E+03 1.743E+03 1.747E+03 2.348E+07 26.6487 1.00000
  5.623E+09 5.623E+09 4.237E+00 2.491E+01 4.609E+02 1.498E+03 1.984E+03 1.988E+03 2.381E+07 26.8789 1.00000
  6.310E+09 6.310E+09 4.256E+00 2.802E+01 5.172E+02 1.713E+03 2.259E+03 2.263E+03 2.413E+07 27.1092 1.00000
  7.079E+09 7.079E+09 4.275E+00 3.152E+01 5.803E+02 1.960E+03 2.572E+03 2.576E+03 2.445E+07 27.3395 1.00000
  7.943E+09 7.943E+09 4.294E+00 3.544E+01 6.512E+02 2.242E+03 2.928E+03 2.933E+03 2.477E+07 27.5697 1.00000
  8.913E+09 8.913E+09 4.313E+00 3.986E+01 7.307E+02 2.564E+03 3.335E+03 3.339E+03 2.508E+07 27.8000 1.00000
  1.000E+10 1.000E+10 4.333E+00 4.481E+01 8.199E+02 2.934E+03 3.798E+03 3.803E+03 2.538E+07 28.0302 1.00000
  1.122E+10 1.122E+10 4.352E+00 5.038E+01 9.200E+02 3.356E+03 4.327E+03 4.331E+03 2.568E+07 28.2605 1.00000
  1.259E+10 1.259E+10 4.371E+00 5.663E+01 1.032E+03 3.840E+03 4.929E+03 4.933E+03 2.598E+07 28.4908 1.00000
  1.413E+10 1.413E+10 4.391E+00 6.365E+01 1.158E+03 4.393E+03 5.615E+03 5.620E+03 2.627E+07 28.7210 1.00000
  1.585E+10 1.585E+10 4.411E+00 7.153E+01 1.300E+03 5.027E+03 6.398E+03 6.403E+03 2.656E+07 28.9513 1.00000
  1.778E+10 1.778E+10 4.431E+00 8.038E+01 1.458E+03 5.752E+03 7.291E+03 7.296E+03 2.684E+07 29.1815 1.00000
  1.995E+10 1.995E+10 4.451E+00 9.031E+01 1.636E+03 6.583E+03 8.309E+03 8.314E+03 2.712E+07 29.4118 1.00000
  2.239E+10 2.239E+10 4.471E+00 1.015E+02 1.836E+03 7.533E+03 9.471E+03 9.475E+03 2.740E+07 29.6421 1.00000
  2.512E+10 2.512E+10 4.491E+00 1.140E+02 2.060E+03 8.622E+03 1.080E+04 1.080E+04 2.767E+07 29.8723 1.00000
  2.818E+10 2.818E+10 4.511E+00 1.280E+02 2.312E+03 9.868E+03 1.231E+04 1.231E+04 2.794E+07 30.1026 1.00000
  3.162E+10 3.162E+10 4.532E+00 1.438E+02 2.594E+03 1.129E+04 1.403E+04 1.404E+04 2.820E+07 30.3328 1.00000
  3.548E+10 3.548E+10 4.552E+00 1.615E+02 2.910E+03 1.293E+04 1.600E+04 1.600E+04 2.846E+07 30.5631 1.00000
  3.981E+10 3.981E+10 4.573E+00 1.814E+02 3.265E+03 1.480E+04 1.825E+04 1.825E+04 2.871E+07 30.7933 1.00000
  4.467E+10 4.467E+10 4.594E+00 2.037E+02 3.664E+03 1.694E+04 2.081E+04 2.081E+04 2.896E+07 31.0236 1.00000
  5.012E+10 5.012E+10 4.614E+00 2.288E+02 4.111E+03 1.939E+04 2.373E+04 2.374E+04 2.921E+07 31.2539 1.00000
  5.623E+10 5.623E+10 4.635E+00 2.569E+02 4.612E+03 2.220E+04 2.707E+04 2.708E+04 2.945E+07 31.4841 1.00000
  6.310E+10 6.310E+10 4.657E+00 2.884E+02 5.175E+03 2.542E+04 3.089E+04 3.089E+04 2.968E+07 31.7144 1.00000
  7.079E+10 7.079E+10 4.678E+00 3.238E+02 5.807E+03 2.911E+04 3.524E+04 3.524E+04 2.992E+07 31.9446 1.00000
  7.943E+10 7.943E+10 4.699E+00 3.635E+02 6.515E+03 3.333E+04 4.021E+04 4.022E+04 3.015E+07 32.1749 1.00000
  8.913E+10 8.913E+10 4.721E+00 4.081E+02 7.310E+03 3.817E+04 4.589E+04 4.589E+04 3.037E+07 32.4052 1.00000
  1.000E+11 1.000E+11 4.742E+00 4.581E+02 8.202E+03 4.371E+04 5.237E+04 5.238E+04 3.060E+07 32.6354 1.00000
  1.122E+11 1.122E+11 4.764E+00 5.143E+02 9.202E+03 5.006E+04 5.978E+04 5.978E+04 3.082E+07 32.8657 1.00000
  1.259E+11 1.259E+11 4.786E+00 5.773E+02 1.032E+04 5.733E+04 6.824E+04 6.824E+04 3.103E+07 33.0959 1.00000
  1.413E+11 1.413E+11 4.808E+00 6.480E+02 1.158E+04 6.567E+04 7.790E+04 7.791E+04 3.124E+07 33.3262 1.00000
  1.585E+11 1.585E+11 4.830E+00 7.273E+02 1.300E+04 7.522E+04 8.894E+04 8.895E+04 3.145E+07 33.5564 1.00000
  1.778E+11 1.778E+11 4.852E+00 8.163E+02 1.458E+04 8.616E+04 1.016E+05 1.016E+05 3.165E+07 33.7867 1.00000
  1.995E+11 1.995E+11 4.875E+00 9.162E+02 1.636E+04 9.870E+04 1.160E+05 1.160E+05 3.185E+07 34.0170 1.00000
  2.239E+11 2.239E+11 4.897E+00 1.028E+03 1.836E+04 1.131E+05 1.325E+05 1.325E+05 3.205E+07 34.2472 1.00000
  2.512E+11 2.512E+11 4.920E+00 1.154E+03 2.060E+04 1.295E+05 1.513E+05 1.513E+05 3.224E+07 34.4775 1.00000
  2.818E+11 2.818E+11 4.942E+00 1.295E+03 2.311E+04 1.484E+05 1.728E+05 1.728E+05 3.243E+07 34.7077 1.00000
  3.162E+11 3.162E+11 4.965E+00 1.454E+03 2.593E+04 1.701E+05 1.974E+05 1.974E+05 3.262E+07 34.9380 1.00000
  3.548E+11 3.548E+11 4.988E+00 1.631E+03 2.909E+04 1.949E+05 2.256E+05 2.256E+05 3.280E+07 35.1683 1.00000
  3.981E+11 3.981E+11 5.011E+00 1.831E+03 3.264E+04 2.233E+05 2.578E+05 2.578E+05 3.298E+07 35.3985 1.00000
  4.467E+11 4.467E+11 5.035E+00 2.054E+03 3.662E+04 2.559E+05 2.946E+05 2.946E+05 3.316E+07 35.6288 1.00000
  5.012E+11 5.012E+11 5.058E+00 2.305E+03 4.109E+04 2.932E+05 3.366E+05 3.366E+05 3.333E+07 35.8590 1.00000
  5.623E+11 5.623E+11 5.081E+00 2.587E+03 4.610E+04 3.361E+05 3.848E+05 3.848E+05 3.350E+07 36.0893 1.00000
  6.310E+11 6.310E+11 5.105E+00 2.903E+03 5.173E+04 3.852E+05 4.398E+05 4.398E+05 3.367E+07 36.3195 1.00000
  7.079E+11 7.079E+11 5.129E+00 3.258E+03 5.804E+04 4.415E+05 5.028E+05 5.028E+05 3.383E+07 36.5498 1.00000
  7.943E+11 7.943E+11 5.153E+00 3.655E+03 6.512E+04 5.061E+05 5.748E+05 5.749E+05 3.400E+07 36.7801 1.00000
  8.913E+11 8.913E+11 5.177E+00 4.102E+03 7.306E+04 5.801E+05 6.573E+05 6.573E+05 3.415E+07 37.0103 1.00000
  1.000E+12 1.000E+12 5.201E+00 4.603E+03 8.197E+04 6.650E+05 7.516E+05 7.516E+05 3.431E+07 37.2406 1.00000
  1.122E+12 1.122E+12 5.225E+00 5.165E+03 9.197E+04 7.624E+05 8.595E+05 8.595E+05 3.446E+07 37.4708 1.00000
  1.259E+12 1.259E+12 5.250E+00 5.795E+03 1.032E+05 8.741E+05 9.831E+05 9.831E+05 3.461E+07 37.7011 1.00000
  1.413E+12 1.413E+12 5.274E+00 6.503E+03 1.158E+05 1.002E+06 1.124E+06 1.124E+06 3.476E+07 37.9314 1.00000
  1.585E+12 1.585E+12 5.299E+00 7.297E+03 1.299E+05 1.149E+06 1.286E+06 1.286E+06 3.490E+07 38.1616 1.00000
  1.778E+12 1.778E+12 5.324E+00 8.188E+03 1.457E+05 1.318E+06 1.472E+06 1.472E+06 3.504E+07 38.3919 1.00000
  1.995E+12 1.995E+12 5.349E+00 9.187E+03 1.635E+05 1.511E+06 1.684E+06 1.684E+06 3.518E+07 38.6221 1.00000
  2.239E+12 2.239E+12 5.374E+00 1.031E+04 1.835E+05 1.733E+06 1.927E+06 1.927E+06 3.531E+07 38.8524 1.00000
  2.512E+12 2.512E+12 5.399E+00 1.157E+04 2.058E+05 1.987E+06 2.205E+06 2.205E+06 3.545E+07 39.0826 1.00000
  2.818E+12 2.818E+12 5.424E+00 1.298E+04 2.309E+05 2.279E+06 2.523E+06 2.523E+06 3.558E+07 39.3129 1.00000
  3.162E+12 3.162E+12 5.450E+00 1.456E+04 2.591E+05 2.614E+06 2.888E+06 2.888E+06 3.571E+07 39.5432 1.00000
  3.548E+12 3.548E+12 5.476E+00 1.634E+04 2.907E+05 2.998E+06 3.305E+06 3.305E+06 3.583E+07 39.7734 1.00000
  3.981E+12 3.981E+12 5.501E+00 1.833E+04 3.262E+05 3.439E+06 3.784E+06 3.784E+06 3.595E+07 40.0037 1.00000
  4.467E+12 4.467E+12 5.527E+00 2.057E+04 3.660E+05 3.945E+06 4.332E+06 4.332E+06 3.607E+07 40.2339 1.00000
  5.012E+12 5.012E+12 5.554E+00 2.308E+04 4.106E+05 4.526E+06 4.959E+06 4.959E+06 3.619E+07 40.4642 1.00000
  5.623E+12 5.623E+12 5.580E+00 2.590E+04 4.607E+05 5.192E+06 5.679E+06 5.679E+06 3.631E+07 40.6945 1.00000
  6.310E+12 6.310E+12 5.606E+00 2.906E+04 5.169E+05 5.957E+06 6.503E+06 6.503E+06 3.642E+07 40.9247 1.00000
  7.079E+12 7.079E+12 5.633E+00 3.261E+04 5.799E+05 6.835E+06 7.447E+06 7.447E+06 3.653E+07 41.1550 1.00000
  7.943E+12 7.943E+12 5.659E+00 3.659E+04 6.506E+05 7.842E+06 8.529E+06 8.529E+06 3.664E+07 41.3852 1.00000
  8.913E+12 8.913E+12 5.686E+00 4.105E+04 7.300E+05 8.999E+06 9.770E+06 9.770E+06 3.675E+07 41.6155 1.00000
  1.000E+13 1.000E+13 5.713E+00 4.606E+04 8.190E+05 1.033E+07 1.119E+07 1.119E+07 3.685E+07 41.8458 1.00000
  1.122E+13 1.122E+13 5.740E+00 5.168E+04 9.189E+05 1.185E+07 1.282E+07 1.282E+07 3.695E+07 42.0760 1.00000
  1.259E+13 1.259E+13 5.768E+00 5.799E+04 1.031E+06 1.360E+07 1.469E+07 1.469E+07 3.705E+07 42.3063 1.00000
  1.413E+13 1.413E+13 5.795E+00 6.506E+04 1.157E+06 1.561E+07 1.683E+07 1.683E+07 3.715E+07 42.5365 1.00000
  1.585E+13 1.585E+13 5.822E+00 7.300E+04 1.298E+06 1.791E+07 1.928E+07 1.928E+07 3.725E+07 42.7668 1.00000
  1.778E+13 1.778E+13 5.850E+00 8.191E+04 1.456E+06 2.056E+07 2.210E+07 2.210E+07 3.734E+07 42.9970 1.00000
  1.995E+13 1.995E+13 5.878E+00 9.191E+04 1.634E+06 2.360E+07 2.533E+07 2.533E+07 3.743E+07 43.2273 1.00000
  2.239E+13 2.239E+13 5.906E+00 1.031E+05 1.833E+06 2.709E+07 2.903E+07 2.903E+07 3.752E+07 43.4576 1.00000
  2.512E+13 2.512E+13 5.934E+00 1.157E+05 2.056E+06 3.110E+07 3.327E+07 3.327E+07 3.761E+07 43.6878 1.00000
  2.818E+13 2.818E+13 5.963E+00 1.298E+05 2.307E+06 3.570E+07 3.814E+07 3.814E+07 3.770E+07 43.9181 1.00000
  3.162E+13 3.162E+13 5.991E+00 1.457E+05 2.589E+06 4.099E+07 4.373E+07 4.373E+07 3.778E+07 44.1483 1.00000
  3.548E+13 3.548E+13 6.020E+00 1.634E+05 2.904E+06 4.706E+07 5.013E+07 5.013E+07 3.786E+07 44.3786 1.00000
  3.981E+13 3.981E+13 6.048E+00 1.834E+05 3.258E+06 5.404E+07 5.748E+07 5.748E+07 3.794E+07 44.6089 1.00000
  4.467E+13 4.467E+13 6.077E+00 2.058E+05 3.656E+06 6.205E+07 6.591E+07 6.591E+07 3.802E+07 44.8391 1.00000
  5.012E+13 5.012E+13 6.106E+00 2.309E+05 4.102E+06 7.125E+07 7.558E+07 7.558E+07 3.810E+07 45.0694 1.00000
  5.623E+13 5.623E+13 6.136E+00 2.590E+05 4.602E+06 8.182E+07 8.668E+07 8.668E+07 3.818E+07 45.2996 1.00000
  6.310E+13 6.310E+13 6.165E+00 2.906E+05 5.163E+06 9.396E+07 9.941E+07 9.941E+07 3.825E+07 45.5299 1.00000
  7.079E+13 7.079E+13 6.195E+00 3.261E+05 5.793E+06 1.079E+08 1.140E+08 1.140E+08 3.832E+07 45.7601 1.00000
  7.943E+13 7.943E+13 6.224E+00 3.659E+05 6.499E+06 1.239E+08 1.308E+08 1.308E+08 3.839E+07 45.9904 1.00000
  8.913E+13 8.913E+13 6.254E+00 4.106E+05 7.292E+06 1.423E+08 1.500E+08 1.500E+08 3.846E+07 46.2207 1.00000
