 Incident particle is a Tau with M = 1776.82000 MeV
 Index = 0: Polytrifluorochloroethylene
      Absorber with <Z/A> = 0.48081
 Sternheimer coef:  a     k=m_s   x_0    x_1    I[eV]   Cbar  delta0
                 0.0773  3.5085  0.1714  3.0265  120.7  3.8551 0.00

 *** Table generated with PUMAS v1.00 ***

      T         p     Ionization  brems     pair     photonuc  Radloss    dE/dx   CSDA Range  delta   beta
    [MeV]    [MeV/c]  -----------------------[MeV cm^2/g]------------------------  [g/cm^2]
  1.000E+05 1.018E+05 2.067E+00 1.974E-04 3.121E-03 8.191E-03 1.151E-02 2.079E+00 2.405E+04  4.4186 0.99985
  1.122E+05 1.140E+05 2.086E+00 2.282E-04 3.756E-03 9.240E-03 1.322E-02 2.099E+00 2.989E+04  4.6220 0.99988
  1.259E+05 1.277E+05 2.105E+00 2.637E-04 4.505E-03 1.037E-02 1.514E-02 2.120E+00 3.638E+04  4.8281 0.99990
  1.413E+05 1.430E+05 2.124E+00 3.045E-04 5.387E-03 1.164E-02 1.733E-02 2.141E+00 4.359E+04  5.0365 0.99992
  1.585E+05 1.603E+05 2.142E+00 3.515E-04 6.422E-03 1.306E-02 1.983E-02 2.162E+00 5.161E+04  5.2472 0.99994
  1.778E+05 1.796E+05 2.161E+00 4.055E-04 7.636E-03 1.464E-02 2.268E-02 2.183E+00 6.051E+04  5.4601 0.99995
  1.995E+05 2.013E+05 2.179E+00 4.675E-04 9.056E-03 1.644E-02 2.597E-02 2.205E+00 7.039E+04  5.6748 0.99996
  2.239E+05 2.256E+05 2.198E+00 5.389E-04 1.071E-02 1.841E-02 2.966E-02 2.227E+00 8.138E+04  5.8914 0.99997
  2.512E+05 2.530E+05 2.216E+00 6.208E-04 1.265E-02 2.062E-02 3.388E-02 2.250E+00 9.358E+04  6.1097 0.99998
  2.818E+05 2.836E+05 2.234E+00 7.148E-04 1.490E-02 2.310E-02 3.871E-02 2.273E+00 1.071E+05  6.3295 0.99998
  3.162E+05 3.180E+05 2.252E+00 8.227E-04 1.751E-02 2.590E-02 4.423E-02 2.296E+00 1.222E+05  6.5508 0.99998
  3.548E+05 3.566E+05 2.270E+00 9.464E-04 2.054E-02 2.905E-02 5.053E-02 2.321E+00 1.389E+05  6.7733 0.99999
  3.981E+05 3.999E+05 2.288E+00 1.088E-03 2.404E-02 3.255E-02 5.768E-02 2.346E+00 1.575E+05  6.9970 0.99999
  4.467E+05 4.485E+05 2.306E+00 1.251E-03 2.809E-02 3.648E-02 6.583E-02 2.371E+00 1.781E+05  7.2217 0.99999
  5.012E+05 5.030E+05 2.323E+00 1.437E-03 3.277E-02 4.090E-02 7.512E-02 2.398E+00 2.009E+05  7.4473 0.99999
  5.623E+05 5.641E+05 2.341E+00 1.651E-03 3.817E-02 4.569E-02 8.551E-02 2.426E+00 2.263E+05  7.6738 1.00000
  6.310E+05 6.327E+05 2.358E+00 1.895E-03 4.438E-02 5.108E-02 9.736E-02 2.456E+00 2.544E+05  7.9010 1.00000
  7.079E+05 7.097E+05 2.376E+00 2.175E-03 5.153E-02 5.716E-02 1.109E-01 2.487E+00 2.855E+05  8.1288 1.00000
  7.943E+05 7.961E+05 2.393E+00 2.495E-03 5.973E-02 6.402E-02 1.263E-01 2.519E+00 3.200E+05  8.3572 1.00000
  8.913E+05 8.930E+05 2.410E+00 2.861E-03 6.915E-02 7.178E-02 1.438E-01 2.554E+00 3.583E+05  8.5860 1.00000
  1.000E+06 1.002E+06 2.427E+00 3.279E-03 7.994E-02 8.054E-02 1.638E-01 2.591E+00 4.005E+05  8.8151 1.00000
  1.122E+06 1.124E+06 2.444E+00 3.758E-03 9.229E-02 9.046E-02 1.865E-01 2.631E+00 4.473E+05  9.0446 1.00000
  1.259E+06 1.261E+06 2.461E+00 4.305E-03 1.064E-01 1.017E-01 2.124E-01 2.674E+00 4.989E+05  9.2743 1.00000
  1.413E+06 1.414E+06 2.478E+00 4.930E-03 1.225E-01 1.144E-01 2.419E-01 2.720E+00 5.558E+05  9.5041 1.00000
  1.585E+06 1.587E+06 2.495E+00 5.644E-03 1.410E-01 1.288E-01 2.754E-01 2.770E+00 6.186E+05  9.7340 1.00000
  1.778E+06 1.780E+06 2.511E+00 6.460E-03 1.619E-01 1.452E-01 3.136E-01 2.825E+00 6.878E+05  9.9640 1.00000
  1.995E+06 1.997E+06 2.528E+00 7.391E-03 1.858E-01 1.638E-01 3.570E-01 2.885E+00 7.638E+05 10.1941 1.00000
  2.239E+06 2.240E+06 2.544E+00 8.453E-03 2.130E-01 1.849E-01 4.063E-01 2.950E+00 8.472E+05 10.4242 1.00000
  2.512E+06 2.514E+06 2.560E+00 9.666E-03 2.440E-01 2.088E-01 4.624E-01 3.023E+00 9.387E+05 10.6542 1.00000
  2.818E+06 2.820E+06 2.576E+00 1.105E-02 2.791E-01 2.360E-01 5.262E-01 3.102E+00 1.039E+06 10.8843 1.00000
  3.162E+06 3.164E+06 2.592E+00 1.263E-02 3.190E-01 2.670E-01 5.986E-01 3.191E+00 1.148E+06 11.1145 1.00000
  3.548E+06 3.550E+06 2.608E+00 1.442E-02 3.642E-01 3.022E-01 6.808E-01 3.289E+00 1.267E+06 11.3446 1.00000
  3.981E+06 3.983E+06 2.623E+00 1.647E-02 4.154E-01 3.422E-01 7.741E-01 3.398E+00 1.397E+06 11.5748 1.00000
  4.467E+06 4.469E+06 2.639E+00 1.881E-02 4.735E-01 3.878E-01 8.800E-01 3.519E+00 1.537E+06 11.8049 1.00000
  5.012E+06 5.014E+06 2.654E+00 2.147E-02 5.392E-01 4.396E-01 1.000E+00 3.654E+00 1.689E+06 12.0351 1.00000
  5.623E+06 5.625E+06 2.669E+00 2.450E-02 6.135E-01 4.987E-01 1.137E+00 3.806E+00 1.853E+06 12.2653 1.00000
  6.310E+06 6.311E+06 2.684E+00 2.795E-02 6.975E-01 5.659E-01 1.291E+00 3.976E+00 2.030E+06 12.4955 1.00000
  7.079E+06 7.081E+06 2.699E+00 3.188E-02 7.924E-01 6.425E-01 1.467E+00 4.166E+00 2.219E+06 12.7257 1.00000
  7.943E+06 7.945E+06 2.714E+00 3.635E-02 8.996E-01 7.298E-01 1.666E+00 4.380E+00 2.421E+06 12.9559 1.00000
  8.913E+06 8.914E+06 2.728E+00 4.144E-02 1.021E+00 8.293E-01 1.891E+00 4.620E+00 2.637E+06 13.1861 1.00000
  1.000E+07 1.000E+07 2.743E+00 4.722E-02 1.157E+00 9.426E-01 2.147E+00 4.890E+00 2.866E+06 13.4163 1.00000
  1.122E+07 1.122E+07 2.757E+00 5.379E-02 1.311E+00 1.072E+00 2.437E+00 5.194E+00 3.108E+06 13.6465 1.00000
  1.259E+07 1.259E+07 2.771E+00 6.127E-02 1.485E+00 1.219E+00 2.765E+00 5.536E+00 3.363E+06 13.8767 1.00000
  1.413E+07 1.413E+07 2.785E+00 6.976E-02 1.680E+00 1.387E+00 3.137E+00 5.922E+00 3.632E+06 14.1070 1.00000
  1.585E+07 1.585E+07 2.799E+00 7.941E-02 1.900E+00 1.579E+00 3.558E+00 6.357E+00 3.913E+06 14.3372 1.00000
  1.778E+07 1.778E+07 2.813E+00 9.036E-02 2.148E+00 1.797E+00 4.036E+00 6.849E+00 4.206E+06 14.5674 1.00000
  1.995E+07 1.995E+07 2.826E+00 1.028E-01 2.428E+00 2.046E+00 4.577E+00 7.403E+00 4.511E+06 14.7977 1.00000
  2.239E+07 2.239E+07 2.840E+00 1.169E-01 2.742E+00 2.331E+00 5.190E+00 8.030E+00 4.827E+06 15.0279 1.00000
  2.512E+07 2.512E+07 2.854E+00 1.329E-01 3.095E+00 2.655E+00 5.883E+00 8.737E+00 5.154E+06 15.2581 1.00000
  2.818E+07 2.819E+07 2.867E+00 1.511E-01 3.493E+00 3.025E+00 6.669E+00 9.537E+00 5.490E+06 15.4884 1.00000
  3.162E+07 3.162E+07 2.881E+00 1.717E-01 3.940E+00 3.448E+00 7.560E+00 1.044E+01 5.835E+06 15.7186 1.00000
  3.548E+07 3.548E+07 2.894E+00 1.951E-01 4.443E+00 3.930E+00 8.568E+00 1.146E+01 6.188E+06 15.9489 1.00000
  3.981E+07 3.981E+07 2.907E+00 2.215E-01 5.008E+00 4.480E+00 9.710E+00 1.262E+01 6.548E+06 16.1791 1.00000
  4.467E+07 4.467E+07 2.921E+00 2.515E-01 5.643E+00 5.108E+00 1.100E+01 1.392E+01 6.915E+06 16.4094 1.00000
  5.012E+07 5.012E+07 2.934E+00 2.855E-01 6.357E+00 5.825E+00 1.247E+01 1.540E+01 7.288E+06 16.6396 1.00000
  5.623E+07 5.624E+07 2.948E+00 3.239E-01 7.159E+00 6.643E+00 1.413E+01 1.707E+01 7.665E+06 16.8699 1.00000
  6.310E+07 6.310E+07 2.961E+00 3.675E-01 8.061E+00 7.578E+00 1.601E+01 1.897E+01 8.047E+06 17.1001 1.00000
  7.079E+07 7.080E+07 2.974E+00 4.168E-01 9.073E+00 8.644E+00 1.813E+01 2.111E+01 8.433E+06 17.3304 1.00000
  7.943E+07 7.943E+07 2.988E+00 4.725E-01 1.021E+01 9.862E+00 2.054E+01 2.353E+01 8.821E+06 17.5606 1.00000
  8.913E+07 8.913E+07 3.001E+00 5.355E-01 1.149E+01 1.125E+01 2.328E+01 2.628E+01 9.211E+06 17.7909 1.00000
  1.000E+08 1.000E+08 3.014E+00 6.068E-01 1.292E+01 1.284E+01 2.637E+01 2.938E+01 9.603E+06 18.0211 1.00000
  1.122E+08 1.122E+08 3.028E+00 6.873E-01 1.453E+01 1.466E+01 2.987E+01 3.290E+01 9.996E+06 18.2514 1.00000
  1.259E+08 1.259E+08 3.041E+00 7.784E-01 1.634E+01 1.673E+01 3.384E+01 3.689E+01 1.039E+07 18.4816 1.00000
  1.413E+08 1.413E+08 3.055E+00 8.812E-01 1.837E+01 1.909E+01 3.834E+01 4.140E+01 1.078E+07 18.7119 1.00000
  1.585E+08 1.585E+08 3.068E+00 9.974E-01 2.065E+01 2.180E+01 4.344E+01 4.651E+01 1.118E+07 18.9422 1.00000
  1.778E+08 1.778E+08 3.082E+00 1.128E+00 2.321E+01 2.488E+01 4.922E+01 5.230E+01 1.157E+07 19.1724 1.00000
  1.995E+08 1.995E+08 3.096E+00 1.277E+00 2.608E+01 2.841E+01 5.576E+01 5.886E+01 1.196E+07 19.4027 1.00000
  2.239E+08 2.239E+08 3.109E+00 1.444E+00 2.930E+01 3.244E+01 6.318E+01 6.629E+01 1.235E+07 19.6329 1.00000
  2.512E+08 2.512E+08 3.123E+00 1.632E+00 3.292E+01 3.704E+01 7.159E+01 7.472E+01 1.274E+07 19.8632 1.00000
  2.818E+08 2.818E+08 3.137E+00 1.845E+00 3.698E+01 4.230E+01 8.113E+01 8.426E+01 1.313E+07 20.0934 1.00000
  3.162E+08 3.162E+08 3.151E+00 2.084E+00 4.154E+01 4.831E+01 9.193E+01 9.508E+01 1.351E+07 20.3237 1.00000
  3.548E+08 3.548E+08 3.165E+00 2.354E+00 4.665E+01 5.518E+01 1.042E+02 1.074E+02 1.390E+07 20.5540 1.00000
  3.981E+08 3.981E+08 3.179E+00 2.659E+00 5.239E+01 6.302E+01 1.181E+02 1.213E+02 1.428E+07 20.7842 1.00000
  4.467E+08 4.467E+08 3.193E+00 3.002E+00 5.884E+01 7.199E+01 1.338E+02 1.370E+02 1.465E+07 21.0145 1.00000
  5.012E+08 5.012E+08 3.207E+00 3.389E+00 6.607E+01 8.224E+01 1.517E+02 1.549E+02 1.503E+07 21.2447 1.00000
  5.623E+08 5.623E+08 3.221E+00 3.824E+00 7.418E+01 9.395E+01 1.720E+02 1.752E+02 1.540E+07 21.4750 1.00000
  6.310E+08 6.310E+08 3.236E+00 4.314E+00 8.329E+01 1.073E+02 1.949E+02 1.982E+02 1.577E+07 21.7052 1.00000
  7.079E+08 7.079E+08 3.250E+00 4.866E+00 9.350E+01 1.226E+02 2.210E+02 2.243E+02 1.613E+07 21.9355 1.00000
  7.943E+08 7.943E+08 3.264E+00 5.488E+00 1.050E+02 1.401E+02 2.506E+02 2.539E+02 1.650E+07 22.1658 1.00000
  8.913E+08 8.913E+08 3.279E+00 6.187E+00 1.178E+02 1.601E+02 2.842E+02 2.874E+02 1.686E+07 22.3960 1.00000
  1.000E+09 1.000E+09 3.293E+00 6.974E+00 1.323E+02 1.830E+02 3.222E+02 3.255E+02 1.721E+07 22.6263 1.00000
  1.122E+09 1.122E+09 3.308E+00 7.859E+00 1.485E+02 2.091E+02 3.655E+02 3.688E+02 1.757E+07 22.8565 1.00000
  1.259E+09 1.259E+09 3.323E+00 8.855E+00 1.667E+02 2.390E+02 4.145E+02 4.178E+02 1.792E+07 23.0868 1.00000
  1.413E+09 1.413E+09 3.338E+00 9.975E+00 1.871E+02 2.732E+02 4.702E+02 4.735E+02 1.826E+07 23.3170 1.00000
  1.585E+09 1.585E+09 3.353E+00 1.124E+01 2.099E+02 3.122E+02 5.334E+02 5.368E+02 1.860E+07 23.5473 1.00000
  1.778E+09 1.778E+09 3.367E+00 1.265E+01 2.356E+02 3.569E+02 6.052E+02 6.086E+02 1.894E+07 23.7776 1.00000
  1.995E+09 1.995E+09 3.383E+00 1.424E+01 2.644E+02 4.080E+02 6.867E+02 6.901E+02 1.928E+07 24.0078 1.00000
  2.239E+09 2.239E+09 3.398E+00 1.603E+01 2.968E+02 4.664E+02 7.792E+02 7.826E+02 1.961E+07 24.2381 1.00000
  2.512E+09 2.512E+09 3.413E+00 1.804E+01 3.331E+02 5.332E+02 8.844E+02 8.878E+02 1.994E+07 24.4683 1.00000
  2.818E+09 2.818E+09 3.428E+00 2.030E+01 3.738E+02 6.097E+02 1.004E+03 1.007E+03 2.026E+07 24.6986 1.00000
  3.162E+09 3.162E+09 3.444E+00 2.284E+01 4.194E+02 6.971E+02 1.139E+03 1.143E+03 2.058E+07 24.9289 1.00000
  3.548E+09 3.548E+09 3.459E+00 2.570E+01 4.707E+02 7.971E+02 1.293E+03 1.297E+03 2.090E+07 25.1591 1.00000
  3.981E+09 3.981E+09 3.475E+00 2.890E+01 5.282E+02 9.115E+02 1.469E+03 1.472E+03 2.122E+07 25.3894 1.00000
  4.467E+09 4.467E+09 3.490E+00 3.250E+01 5.927E+02 1.042E+03 1.668E+03 1.671E+03 2.153E+07 25.6196 1.00000
  5.012E+09 5.012E+09 3.506E+00 3.655E+01 6.651E+02 1.192E+03 1.894E+03 1.897E+03 2.183E+07 25.8499 1.00000
  5.623E+09 5.623E+09 3.522E+00 4.109E+01 7.464E+02 1.363E+03 2.151E+03 2.154E+03 2.214E+07 26.0801 1.00000
  6.310E+09 6.310E+09 3.538E+00 4.619E+01 8.375E+02 1.559E+03 2.443E+03 2.447E+03 2.244E+07 26.3104 1.00000
  7.079E+09 7.079E+09 3.554E+00 5.192E+01 9.398E+02 1.784E+03 2.775E+03 2.779E+03 2.273E+07 26.5407 1.00000
  7.943E+09 7.943E+09 3.570E+00 5.836E+01 1.055E+03 2.040E+03 3.153E+03 3.157E+03 2.302E+07 26.7709 1.00000
  8.913E+09 8.913E+09 3.586E+00 6.558E+01 1.183E+03 2.334E+03 3.583E+03 3.586E+03 2.331E+07 27.0012 1.00000
  1.000E+10 1.000E+10 3.602E+00 7.369E+01 1.328E+03 2.670E+03 4.071E+03 4.075E+03 2.360E+07 27.2314 1.00000
  1.122E+10 1.122E+10 3.619E+00 8.280E+01 1.490E+03 3.054E+03 4.627E+03 4.631E+03 2.388E+07 27.4617 1.00000
  1.259E+10 1.259E+10 3.635E+00 9.302E+01 1.672E+03 3.495E+03 5.259E+03 5.263E+03 2.416E+07 27.6920 1.00000
  1.413E+10 1.413E+10 3.652E+00 1.045E+02 1.876E+03 3.998E+03 5.978E+03 5.982E+03 2.443E+07 27.9222 1.00000
  1.585E+10 1.585E+10 3.668E+00 1.174E+02 2.105E+03 4.575E+03 6.797E+03 6.801E+03 2.470E+07 28.1525 1.00000
  1.778E+10 1.778E+10 3.685E+00 1.318E+02 2.361E+03 5.235E+03 7.728E+03 7.732E+03 2.497E+07 28.3827 1.00000
  1.995E+10 1.995E+10 3.702E+00 1.481E+02 2.650E+03 5.991E+03 8.788E+03 8.792E+03 2.523E+07 28.6130 1.00000
  2.239E+10 2.239E+10 3.719E+00 1.663E+02 2.973E+03 6.856E+03 9.995E+03 9.999E+03 2.549E+07 28.8433 1.00000
  2.512E+10 2.512E+10 3.736E+00 1.867E+02 3.336E+03 7.846E+03 1.137E+04 1.137E+04 2.575E+07 29.0735 1.00000
  2.818E+10 2.818E+10 3.753E+00 2.097E+02 3.743E+03 8.980E+03 1.293E+04 1.294E+04 2.600E+07 29.3038 1.00000
  3.162E+10 3.162E+10 3.770E+00 2.354E+02 4.199E+03 1.028E+04 1.471E+04 1.472E+04 2.625E+07 29.5340 1.00000
  3.548E+10 3.548E+10 3.788E+00 2.643E+02 4.712E+03 1.177E+04 1.674E+04 1.675E+04 2.650E+07 29.7643 1.00000
  3.981E+10 3.981E+10 3.805E+00 2.968E+02 5.287E+03 1.347E+04 1.905E+04 1.906E+04 2.674E+07 29.9945 1.00000
  4.467E+10 4.467E+10 3.822E+00 3.332E+02 5.932E+03 1.542E+04 2.168E+04 2.169E+04 2.698E+07 30.2248 1.00000
  5.012E+10 5.012E+10 3.840E+00 3.740E+02 6.656E+03 1.765E+04 2.468E+04 2.468E+04 2.722E+07 30.4551 1.00000
  5.623E+10 5.623E+10 3.858E+00 4.199E+02 7.468E+03 2.021E+04 2.810E+04 2.810E+04 2.745E+07 30.6853 1.00000
  6.310E+10 6.310E+10 3.876E+00 4.713E+02 8.379E+03 2.314E+04 3.199E+04 3.199E+04 2.768E+07 30.9156 1.00000
  7.079E+10 7.079E+10 3.894E+00 5.291E+02 9.401E+03 2.649E+04 3.642E+04 3.643E+04 2.791E+07 31.1458 1.00000
  7.943E+10 7.943E+10 3.912E+00 5.938E+02 1.055E+04 3.034E+04 4.148E+04 4.148E+04 2.813E+07 31.3761 1.00000
  8.913E+10 8.913E+10 3.930E+00 6.665E+02 1.183E+04 3.474E+04 4.724E+04 4.724E+04 2.835E+07 31.6064 1.00000
  1.000E+11 1.000E+11 3.948E+00 7.481E+02 1.328E+04 3.978E+04 5.381E+04 5.381E+04 2.856E+07 31.8366 1.00000
  1.122E+11 1.122E+11 3.966E+00 8.397E+02 1.490E+04 4.556E+04 6.130E+04 6.130E+04 2.878E+07 32.0669 1.00000
  1.259E+11 1.259E+11 3.985E+00 9.424E+02 1.672E+04 5.218E+04 6.984E+04 6.984E+04 2.899E+07 32.2971 1.00000
  1.413E+11 1.413E+11 4.003E+00 1.058E+03 1.876E+04 5.976E+04 7.958E+04 7.958E+04 2.919E+07 32.5274 1.00000
  1.585E+11 1.585E+11 4.022E+00 1.187E+03 2.104E+04 6.846E+04 9.069E+04 9.069E+04 2.940E+07 32.7576 1.00000
  1.778E+11 1.778E+11 4.041E+00 1.332E+03 2.361E+04 7.841E+04 1.034E+05 1.034E+05 2.960E+07 32.9879 1.00000
  1.995E+11 1.995E+11 4.059E+00 1.495E+03 2.649E+04 8.983E+04 1.178E+05 1.178E+05 2.979E+07 33.2182 1.00000
  2.239E+11 2.239E+11 4.078E+00 1.678E+03 2.972E+04 1.029E+05 1.343E+05 1.343E+05 2.999E+07 33.4484 1.00000
  2.512E+11 2.512E+11 4.097E+00 1.883E+03 3.335E+04 1.179E+05 1.531E+05 1.531E+05 3.018E+07 33.6787 1.00000
  2.818E+11 2.818E+11 4.117E+00 2.113E+03 3.742E+04 1.351E+05 1.746E+05 1.746E+05 3.037E+07 33.9089 1.00000
  3.162E+11 3.162E+11 4.136E+00 2.371E+03 4.198E+04 1.548E+05 1.991E+05 1.991E+05 3.055E+07 34.1392 1.00000
  3.548E+11 3.548E+11 4.155E+00 2.660E+03 4.710E+04 1.773E+05 2.271E+05 2.271E+05 3.073E+07 34.3695 1.00000
  3.981E+11 3.981E+11 4.175E+00 2.985E+03 5.285E+04 2.032E+05 2.590E+05 2.590E+05 3.091E+07 34.5997 1.00000
  4.467E+11 4.467E+11 4.194E+00 3.350E+03 5.929E+04 2.329E+05 2.955E+05 2.955E+05 3.109E+07 34.8300 1.00000
  5.012E+11 5.012E+11 4.214E+00 3.759E+03 6.653E+04 2.669E+05 3.372E+05 3.372E+05 3.126E+07 35.0602 1.00000
  5.623E+11 5.623E+11 4.234E+00 4.218E+03 7.464E+04 3.059E+05 3.847E+05 3.847E+05 3.143E+07 35.2905 1.00000
  6.310E+11 6.310E+11 4.254E+00 4.733E+03 8.375E+04 3.506E+05 4.390E+05 4.390E+05 3.160E+07 35.5207 1.00000
  7.079E+11 7.079E+11 4.274E+00 5.311E+03 9.396E+04 4.018E+05 5.011E+05 5.011E+05 3.176E+07 35.7510 1.00000
  7.943E+11 7.943E+11 4.294E+00 5.959E+03 1.054E+05 4.606E+05 5.719E+05 5.720E+05 3.192E+07 35.9813 1.00000
  8.913E+11 8.913E+11 4.314E+00 6.687E+03 1.183E+05 5.280E+05 6.529E+05 6.529E+05 3.208E+07 36.2115 1.00000
  1.000E+12 1.000E+12 4.335E+00 7.503E+03 1.327E+05 6.052E+05 7.454E+05 7.454E+05 3.224E+07 36.4418 1.00000
  1.122E+12 1.122E+12 4.355E+00 8.419E+03 1.489E+05 6.939E+05 8.512E+05 8.512E+05 3.239E+07 36.6720 1.00000
  1.259E+12 1.259E+12 4.376E+00 9.447E+03 1.671E+05 7.955E+05 9.720E+05 9.720E+05 3.254E+07 36.9023 1.00000
  1.413E+12 1.413E+12 4.396E+00 1.060E+04 1.874E+05 9.121E+05 1.110E+06 1.110E+06 3.269E+07 37.1326 1.00000
  1.585E+12 1.585E+12 4.417E+00 1.189E+04 2.103E+05 1.046E+06 1.268E+06 1.268E+06 3.284E+07 37.3628 1.00000
  1.778E+12 1.778E+12 4.438E+00 1.335E+04 2.359E+05 1.199E+06 1.448E+06 1.448E+06 3.298E+07 37.5931 1.00000
  1.995E+12 1.995E+12 4.459E+00 1.497E+04 2.647E+05 1.375E+06 1.655E+06 1.655E+06 3.312E+07 37.8233 1.00000
  2.239E+12 2.239E+12 4.480E+00 1.680E+04 2.970E+05 1.577E+06 1.891E+06 1.891E+06 3.326E+07 38.0536 1.00000
  2.512E+12 2.512E+12 4.502E+00 1.885E+04 3.332E+05 1.808E+06 2.161E+06 2.161E+06 3.339E+07 38.2838 1.00000
  2.818E+12 2.818E+12 4.523E+00 2.115E+04 3.739E+05 2.074E+06 2.469E+06 2.469E+06 3.353E+07 38.5141 1.00000
  3.162E+12 3.162E+12 4.545E+00 2.373E+04 4.195E+05 2.379E+06 2.822E+06 2.822E+06 3.366E+07 38.7444 1.00000
  3.548E+12 3.548E+12 4.566E+00 2.663E+04 4.707E+05 2.729E+06 3.226E+06 3.226E+06 3.379E+07 38.9746 1.00000
  3.981E+12 3.981E+12 4.588E+00 2.988E+04 5.281E+05 3.130E+06 3.688E+06 3.688E+06 3.391E+07 39.2049 1.00000
  4.467E+12 4.467E+12 4.610E+00 3.353E+04 5.925E+05 3.590E+06 4.216E+06 4.216E+06 3.404E+07 39.4351 1.00000
  5.012E+12 5.012E+12 4.632E+00 3.762E+04 6.647E+05 4.119E+06 4.821E+06 4.821E+06 3.416E+07 39.6654 1.00000
  5.623E+12 5.623E+12 4.654E+00 4.221E+04 7.458E+05 4.725E+06 5.513E+06 5.513E+06 3.428E+07 39.8957 1.00000
  6.310E+12 6.310E+12 4.676E+00 4.736E+04 8.368E+05 5.421E+06 6.305E+06 6.305E+06 3.439E+07 40.1259 1.00000
  7.079E+12 7.079E+12 4.699E+00 5.314E+04 9.388E+05 6.220E+06 7.212E+06 7.212E+06 3.451E+07 40.3562 1.00000
  7.943E+12 7.943E+12 4.721E+00 5.962E+04 1.053E+06 7.137E+06 8.250E+06 8.250E+06 3.462E+07 40.5864 1.00000
  8.913E+12 8.913E+12 4.744E+00 6.690E+04 1.182E+06 8.189E+06 9.438E+06 9.438E+06 3.473E+07 40.8167 1.00000
  1.000E+13 1.000E+13 4.766E+00 7.506E+04 1.326E+06 9.397E+06 1.080E+07 1.080E+07 3.484E+07 41.0470 1.00000
  1.122E+13 1.122E+13 4.789E+00 8.422E+04 1.488E+06 1.078E+07 1.236E+07 1.236E+07 3.494E+07 41.2772 1.00000
  1.259E+13 1.259E+13 4.812E+00 9.450E+04 1.669E+06 1.238E+07 1.414E+07 1.414E+07 3.505E+07 41.5075 1.00000
  1.413E+13 1.413E+13 4.835E+00 1.060E+05 1.873E+06 1.420E+07 1.618E+07 1.618E+07 3.515E+07 41.7377 1.00000
  1.585E+13 1.585E+13 4.859E+00 1.190E+05 2.101E+06 1.630E+07 1.852E+07 1.852E+07 3.525E+07 41.9680 1.00000
  1.778E+13 1.778E+13 4.882E+00 1.335E+05 2.357E+06 1.871E+07 2.120E+07 2.120E+07 3.535E+07 42.1982 1.00000
  1.995E+13 1.995E+13 4.905E+00 1.498E+05 2.645E+06 2.148E+07 2.427E+07 2.427E+07 3.544E+07 42.4285 1.00000
  2.239E+13 2.239E+13 4.929E+00 1.681E+05 2.967E+06 2.466E+07 2.779E+07 2.779E+07 3.554E+07 42.6588 1.00000
  2.512E+13 2.512E+13 4.953E+00 1.886E+05 3.329E+06 2.830E+07 3.182E+07 3.182E+07 3.563E+07 42.8890 1.00000
  2.818E+13 2.818E+13 4.977E+00 2.116E+05 3.735E+06 3.249E+07 3.644E+07 3.644E+07 3.572E+07 43.1193 1.00000
  3.162E+13 3.162E+13 5.001E+00 2.374E+05 4.191E+06 3.730E+07 4.173E+07 4.173E+07 3.581E+07 43.3495 1.00000
  3.548E+13 3.548E+13 5.025E+00 2.663E+05 4.702E+06 4.283E+07 4.780E+07 4.780E+07 3.589E+07 43.5798 1.00000
  3.981E+13 3.981E+13 5.049E+00 2.988E+05 5.275E+06 4.918E+07 5.475E+07 5.475E+07 3.598E+07 43.8101 1.00000
  4.467E+13 4.467E+13 5.073E+00 3.353E+05 5.919E+06 5.647E+07 6.272E+07 6.272E+07 3.606E+07 44.0403 1.00000
  5.012E+13 5.012E+13 5.098E+00 3.762E+05 6.641E+06 6.484E+07 7.186E+07 7.186E+07 3.614E+07 44.2706 1.00000
  5.623E+13 5.623E+13 5.123E+00 4.221E+05 7.450E+06 7.446E+07 8.233E+07 8.233E+07 3.622E+07 44.5008 1.00000
  6.310E+13 6.310E+13 5.147E+00 4.736E+05 8.359E+06 8.551E+07 9.434E+07 9.434E+07 3.630E+07 44.7311 1.00000
  7.079E+13 7.079E+13 5.172E+00 5.314E+05 9.378E+06 9.820E+07 1.081E+08 1.081E+08 3.638E+07 44.9613 1.00000
  7.943E+13 7.943E+13 5.197E+00 5.963E+05 1.052E+07 1.128E+08 1.239E+08 1.239E+08 3.645E+07 45.1916 1.00000
  8.913E+13 8.913E+13 5.223E+00 6.690E+05 1.181E+07 1.295E+08 1.420E+08 1.420E+08 3.652E+07 45.4219 1.00000
