 Incident particle is a Tau with M = 1776.82000 MeV
 Index = 0: Polyacrylonitrile
      Absorber with <Z/A> = 0.52763
 Sternheimer coef:  a     k=m_s   x_0    x_1    I[eV]   Cbar  delta0
                 0.1628  3.1975  0.1504  2.5159   69.6  3.2459 0.00

 *** Table generated with PUMAS v1.00 ***

      T         p     Ionization  brems     pair     photonuc  Radloss    dE/dx   CSDA Range  delta   beta
    [MeV]    [MeV/c]  -----------------------[MeV cm^2/g]------------------------  [g/cm^2]
  1.000E+05 1.018E+05 2.317E+00 1.210E-04 1.877E-03 8.395E-03 1.039E-02 2.328E+00 2.148E+04  4.9168 0.99985
  1.122E+05 1.140E+05 2.337E+00 1.397E-04 2.269E-03 9.485E-03 1.189E-02 2.349E+00 2.670E+04  5.1304 0.99988
  1.259E+05 1.277E+05 2.357E+00 1.613E-04 2.732E-03 1.066E-02 1.355E-02 2.371E+00 3.250E+04  5.3462 0.99990
  1.413E+05 1.430E+05 2.377E+00 1.861E-04 3.278E-03 1.198E-02 1.545E-02 2.392E+00 3.895E+04  5.5640 0.99992
  1.585E+05 1.603E+05 2.397E+00 2.146E-04 3.920E-03 1.346E-02 1.760E-02 2.414E+00 4.612E+04  5.7836 0.99994
  1.778E+05 1.796E+05 2.416E+00 2.474E-04 4.674E-03 1.512E-02 2.004E-02 2.436E+00 5.410E+04  6.0049 0.99995
  1.995E+05 2.013E+05 2.436E+00 2.851E-04 5.558E-03 1.701E-02 2.285E-02 2.459E+00 6.296E+04  6.2278 0.99996
  2.239E+05 2.256E+05 2.455E+00 3.284E-04 6.592E-03 1.907E-02 2.599E-02 2.481E+00 7.282E+04  6.4519 0.99997
  2.512E+05 2.530E+05 2.475E+00 3.781E-04 7.798E-03 2.139E-02 2.956E-02 2.504E+00 8.378E+04  6.6773 0.99998
  2.818E+05 2.836E+05 2.494E+00 4.352E-04 9.204E-03 2.399E-02 3.363E-02 2.528E+00 9.596E+04  6.9036 0.99998
  3.162E+05 3.180E+05 2.514E+00 5.006E-04 1.084E-02 2.695E-02 3.828E-02 2.552E+00 1.095E+05  7.1308 0.99998
  3.548E+05 3.566E+05 2.533E+00 5.757E-04 1.274E-02 3.026E-02 4.357E-02 2.576E+00 1.245E+05  7.3588 0.99999
  3.981E+05 3.999E+05 2.552E+00 6.617E-04 1.494E-02 3.396E-02 4.956E-02 2.602E+00 1.413E+05  7.5873 0.99999
  4.467E+05 4.485E+05 2.571E+00 7.604E-04 1.749E-02 3.811E-02 5.636E-02 2.628E+00 1.598E+05  7.8162 0.99999
  5.012E+05 5.030E+05 2.590E+00 8.734E-04 2.043E-02 4.279E-02 6.409E-02 2.654E+00 1.805E+05  8.0455 0.99999
  5.623E+05 5.641E+05 2.609E+00 1.003E-03 2.383E-02 4.785E-02 7.269E-02 2.682E+00 2.034E+05  8.2750 1.00000
  6.310E+05 6.327E+05 2.628E+00 1.151E-03 2.776E-02 5.356E-02 8.247E-02 2.711E+00 2.289E+05  8.5045 1.00000
  7.079E+05 7.097E+05 2.647E+00 1.321E-03 3.227E-02 6.001E-02 9.361E-02 2.741E+00 2.571E+05  8.7342 1.00000
  7.943E+05 7.961E+05 2.666E+00 1.515E-03 3.747E-02 6.730E-02 1.063E-01 2.773E+00 2.884E+05  8.9639 1.00000
  8.913E+05 8.930E+05 2.685E+00 1.738E-03 4.344E-02 7.553E-02 1.207E-01 2.806E+00 3.232E+05  9.1937 1.00000
  1.000E+06 1.002E+06 2.704E+00 1.993E-03 5.029E-02 8.485E-02 1.371E-01 2.841E+00 3.617E+05  9.4235 1.00000
  1.122E+06 1.124E+06 2.722E+00 2.284E-03 5.815E-02 9.540E-02 1.558E-01 2.878E+00 4.044E+05  9.6534 1.00000
  1.259E+06 1.261E+06 2.741E+00 2.617E-03 6.714E-02 1.074E-01 1.771E-01 2.918E+00 4.516E+05  9.8833 1.00000
  1.413E+06 1.414E+06 2.759E+00 2.998E-03 7.743E-02 1.209E-01 2.013E-01 2.961E+00 5.039E+05 10.1132 1.00000
  1.585E+06 1.587E+06 2.778E+00 3.433E-03 8.919E-02 1.363E-01 2.289E-01 3.006E+00 5.617E+05 10.3432 1.00000
  1.778E+06 1.780E+06 2.796E+00 3.931E-03 1.026E-01 1.537E-01 2.602E-01 3.056E+00 6.255E+05 10.5732 1.00000
  1.995E+06 1.997E+06 2.814E+00 4.499E-03 1.179E-01 1.735E-01 2.959E-01 3.110E+00 6.958E+05 10.8033 1.00000
  2.239E+06 2.240E+06 2.832E+00 5.149E-03 1.354E-01 1.960E-01 3.365E-01 3.168E+00 7.734E+05 11.0334 1.00000
  2.512E+06 2.514E+06 2.849E+00 5.891E-03 1.552E-01 2.215E-01 3.826E-01 3.232E+00 8.588E+05 11.2634 1.00000
  2.818E+06 2.820E+06 2.867E+00 6.738E-03 1.778E-01 2.505E-01 4.351E-01 3.302E+00 9.526E+05 11.4935 1.00000
  3.162E+06 3.164E+06 2.884E+00 7.706E-03 2.035E-01 2.835E-01 4.947E-01 3.379E+00 1.056E+06 11.7237 1.00000
  3.548E+06 3.550E+06 2.902E+00 8.810E-03 2.327E-01 3.211E-01 5.626E-01 3.464E+00 1.168E+06 11.9538 1.00000
  3.981E+06 3.983E+06 2.919E+00 1.007E-02 2.658E-01 3.638E-01 6.396E-01 3.558E+00 1.292E+06 12.1840 1.00000
  4.467E+06 4.469E+06 2.936E+00 1.151E-02 3.033E-01 4.125E-01 7.272E-01 3.663E+00 1.426E+06 12.4141 1.00000
  5.012E+06 5.014E+06 2.952E+00 1.315E-02 3.458E-01 4.678E-01 8.268E-01 3.779E+00 1.573E+06 12.6443 1.00000
  5.623E+06 5.625E+06 2.969E+00 1.502E-02 3.940E-01 5.309E-01 9.399E-01 3.909E+00 1.732E+06 12.8745 1.00000
  6.310E+06 6.311E+06 2.985E+00 1.715E-02 4.485E-01 6.027E-01 1.068E+00 4.054E+00 1.904E+06 13.1047 1.00000
  7.079E+06 7.081E+06 3.002E+00 1.957E-02 5.101E-01 6.845E-01 1.214E+00 4.216E+00 2.091E+06 13.3349 1.00000
  7.943E+06 7.945E+06 3.018E+00 2.234E-02 5.798E-01 7.777E-01 1.380E+00 4.398E+00 2.291E+06 13.5651 1.00000
  8.913E+06 8.914E+06 3.034E+00 2.549E-02 6.585E-01 8.839E-01 1.568E+00 4.602E+00 2.507E+06 13.7953 1.00000
  1.000E+07 1.000E+07 3.050E+00 2.908E-02 7.474E-01 1.005E+00 1.782E+00 4.831E+00 2.737E+06 14.0255 1.00000
  1.122E+07 1.122E+07 3.065E+00 3.316E-02 8.478E-01 1.143E+00 2.024E+00 5.089E+00 2.984E+06 14.2557 1.00000
  1.259E+07 1.259E+07 3.081E+00 3.781E-02 9.610E-01 1.300E+00 2.299E+00 5.380E+00 3.245E+06 14.4859 1.00000
  1.413E+07 1.413E+07 3.096E+00 4.310E-02 1.089E+00 1.480E+00 2.612E+00 5.708E+00 3.523E+06 14.7162 1.00000
  1.585E+07 1.585E+07 3.111E+00 4.911E-02 1.233E+00 1.685E+00 2.966E+00 6.078E+00 3.815E+06 14.9464 1.00000
  1.778E+07 1.778E+07 3.126E+00 5.595E-02 1.395E+00 1.918E+00 3.369E+00 6.495E+00 4.123E+06 15.1766 1.00000
  1.995E+07 1.995E+07 3.142E+00 6.372E-02 1.578E+00 2.184E+00 3.826E+00 6.967E+00 4.446E+06 15.4069 1.00000
  2.239E+07 2.239E+07 3.157E+00 7.255E-02 1.783E+00 2.488E+00 4.344E+00 7.501E+00 4.783E+06 15.6371 1.00000
  2.512E+07 2.512E+07 3.171E+00 8.259E-02 2.015E+00 2.835E+00 4.932E+00 8.104E+00 5.134E+06 15.8673 1.00000
  2.818E+07 2.819E+07 3.186E+00 9.398E-02 2.276E+00 3.231E+00 5.600E+00 8.786E+00 5.497E+06 16.0976 1.00000
  3.162E+07 3.162E+07 3.201E+00 1.069E-01 2.569E+00 3.682E+00 6.358E+00 9.559E+00 5.873E+06 16.3278 1.00000
  3.548E+07 3.548E+07 3.216E+00 1.216E-01 2.899E+00 4.197E+00 7.218E+00 1.043E+01 6.260E+06 16.5581 1.00000
  3.981E+07 3.981E+07 3.230E+00 1.383E-01 3.270E+00 4.785E+00 8.193E+00 1.142E+01 6.657E+06 16.7883 1.00000
  4.467E+07 4.467E+07 3.245E+00 1.571E-01 3.687E+00 5.456E+00 9.301E+00 1.255E+01 7.063E+06 17.0186 1.00000
  5.012E+07 5.012E+07 3.260E+00 1.786E-01 4.156E+00 6.222E+00 1.056E+01 1.382E+01 7.477E+06 17.2488 1.00000
  5.623E+07 5.624E+07 3.274E+00 2.028E-01 4.683E+00 7.097E+00 1.198E+01 1.526E+01 7.899E+06 17.4791 1.00000
  6.310E+07 6.310E+07 3.289E+00 2.304E-01 5.276E+00 8.096E+00 1.360E+01 1.689E+01 8.327E+06 17.7093 1.00000
  7.079E+07 7.080E+07 3.304E+00 2.616E-01 5.942E+00 9.236E+00 1.544E+01 1.874E+01 8.760E+06 17.9396 1.00000
  7.943E+07 7.943E+07 3.318E+00 2.969E-01 6.689E+00 1.054E+01 1.752E+01 2.084E+01 9.198E+06 18.1698 1.00000
  8.913E+07 8.913E+07 3.333E+00 3.369E-01 7.529E+00 1.202E+01 1.989E+01 2.322E+01 9.639E+06 18.4001 1.00000
  1.000E+08 1.000E+08 3.348E+00 3.821E-01 8.473E+00 1.372E+01 2.258E+01 2.592E+01 1.008E+07 18.6303 1.00000
  1.122E+08 1.122E+08 3.363E+00 4.333E-01 9.533E+00 1.566E+01 2.563E+01 2.899E+01 1.053E+07 18.8606 1.00000
  1.259E+08 1.259E+08 3.377E+00 4.912E-01 1.072E+01 1.787E+01 2.909E+01 3.247E+01 1.098E+07 19.0908 1.00000
  1.413E+08 1.413E+08 3.392E+00 5.567E-01 1.206E+01 2.040E+01 3.302E+01 3.641E+01 1.142E+07 19.3211 1.00000
  1.585E+08 1.585E+08 3.407E+00 6.308E-01 1.356E+01 2.329E+01 3.748E+01 4.089E+01 1.187E+07 19.5514 1.00000
  1.778E+08 1.778E+08 3.422E+00 7.145E-01 1.524E+01 2.659E+01 4.255E+01 4.597E+01 1.232E+07 19.7816 1.00000
  1.995E+08 1.995E+08 3.437E+00 8.092E-01 1.713E+01 3.036E+01 4.830E+01 5.174E+01 1.276E+07 20.0119 1.00000
  2.239E+08 2.239E+08 3.452E+00 9.160E-01 1.926E+01 3.467E+01 5.484E+01 5.829E+01 1.321E+07 20.2421 1.00000
  2.512E+08 2.512E+08 3.467E+00 1.037E+00 2.164E+01 3.959E+01 6.226E+01 6.573E+01 1.365E+07 20.4724 1.00000
  2.818E+08 2.818E+08 3.482E+00 1.173E+00 2.432E+01 4.521E+01 7.070E+01 7.418E+01 1.409E+07 20.7026 1.00000
  3.162E+08 3.162E+08 3.498E+00 1.327E+00 2.732E+01 5.163E+01 8.027E+01 8.377E+01 1.453E+07 20.9329 1.00000
  3.548E+08 3.548E+08 3.513E+00 1.500E+00 3.069E+01 5.897E+01 9.116E+01 9.467E+01 1.496E+07 21.1632 1.00000
  3.981E+08 3.981E+08 3.528E+00 1.696E+00 3.447E+01 6.736E+01 1.035E+02 1.070E+02 1.539E+07 21.3934 1.00000
  4.467E+08 4.467E+08 3.544E+00 1.917E+00 3.871E+01 7.694E+01 1.176E+02 1.211E+02 1.582E+07 21.6237 1.00000
  5.012E+08 5.012E+08 3.559E+00 2.166E+00 4.348E+01 8.789E+01 1.335E+02 1.371E+02 1.624E+07 21.8539 1.00000
  5.623E+08 5.623E+08 3.575E+00 2.446E+00 4.882E+01 1.004E+02 1.517E+02 1.553E+02 1.666E+07 22.0842 1.00000
  6.310E+08 6.310E+08 3.590E+00 2.763E+00 5.482E+01 1.147E+02 1.723E+02 1.759E+02 1.708E+07 22.3144 1.00000
  7.079E+08 7.079E+08 3.606E+00 3.119E+00 6.155E+01 1.311E+02 1.957E+02 1.994E+02 1.749E+07 22.5447 1.00000
  7.943E+08 7.943E+08 3.622E+00 3.521E+00 6.911E+01 1.498E+02 2.224E+02 2.260E+02 1.790E+07 22.7750 1.00000
  8.913E+08 8.913E+08 3.638E+00 3.973E+00 7.759E+01 1.711E+02 2.527E+02 2.563E+02 1.830E+07 23.0052 1.00000
  1.000E+09 1.000E+09 3.654E+00 4.483E+00 8.710E+01 1.956E+02 2.872E+02 2.908E+02 1.870E+07 23.2355 1.00000
  1.122E+09 1.122E+09 3.670E+00 5.056E+00 9.778E+01 2.235E+02 3.263E+02 3.300E+02 1.910E+07 23.4657 1.00000
  1.259E+09 1.259E+09 3.686E+00 5.702E+00 1.098E+02 2.554E+02 3.709E+02 3.746E+02 1.949E+07 23.6960 1.00000
  1.413E+09 1.413E+09 3.702E+00 6.428E+00 1.232E+02 2.920E+02 4.216E+02 4.253E+02 1.987E+07 23.9262 1.00000
  1.585E+09 1.585E+09 3.719E+00 7.246E+00 1.383E+02 3.337E+02 4.792E+02 4.830E+02 2.025E+07 24.1565 1.00000
  1.778E+09 1.778E+09 3.735E+00 8.166E+00 1.552E+02 3.815E+02 5.448E+02 5.486E+02 2.063E+07 24.3868 1.00000
  1.995E+09 1.995E+09 3.752E+00 9.201E+00 1.742E+02 4.361E+02 6.195E+02 6.232E+02 2.100E+07 24.6170 1.00000
  2.239E+09 2.239E+09 3.768E+00 1.036E+01 1.955E+02 4.985E+02 7.044E+02 7.081E+02 2.137E+07 24.8473 1.00000
  2.512E+09 2.512E+09 3.785E+00 1.167E+01 2.194E+02 5.699E+02 8.010E+02 8.048E+02 2.173E+07 25.0775 1.00000
  2.818E+09 2.818E+09 3.802E+00 1.314E+01 2.462E+02 6.516E+02 9.110E+02 9.148E+02 2.209E+07 25.3078 1.00000
  3.162E+09 3.162E+09 3.819E+00 1.480E+01 2.763E+02 7.451E+02 1.036E+03 1.040E+03 2.244E+07 25.5381 1.00000
  3.548E+09 3.548E+09 3.836E+00 1.666E+01 3.101E+02 8.519E+02 1.179E+03 1.183E+03 2.279E+07 25.7683 1.00000
  3.981E+09 3.981E+09 3.853E+00 1.875E+01 3.480E+02 9.742E+02 1.341E+03 1.345E+03 2.313E+07 25.9986 1.00000
  4.467E+09 4.467E+09 3.870E+00 2.110E+01 3.905E+02 1.114E+03 1.526E+03 1.530E+03 2.347E+07 26.2288 1.00000
  5.012E+09 5.012E+09 3.887E+00 2.374E+01 4.382E+02 1.274E+03 1.736E+03 1.740E+03 2.381E+07 26.4591 1.00000
  5.623E+09 5.623E+09 3.905E+00 2.670E+01 4.918E+02 1.457E+03 1.976E+03 1.980E+03 2.414E+07 26.6893 1.00000
  6.310E+09 6.310E+09 3.922E+00 3.003E+01 5.518E+02 1.667E+03 2.248E+03 2.252E+03 2.446E+07 26.9196 1.00000
  7.079E+09 7.079E+09 3.940E+00 3.378E+01 6.192E+02 1.906E+03 2.559E+03 2.563E+03 2.479E+07 27.1499 1.00000
  7.943E+09 7.943E+09 3.957E+00 3.798E+01 6.949E+02 2.180E+03 2.913E+03 2.917E+03 2.510E+07 27.3801 1.00000
  8.913E+09 8.913E+09 3.975E+00 4.270E+01 7.797E+02 2.494E+03 3.317E+03 3.321E+03 2.541E+07 27.6104 1.00000
  1.000E+10 1.000E+10 3.993E+00 4.800E+01 8.749E+02 2.853E+03 3.776E+03 3.780E+03 2.572E+07 27.8406 1.00000
  1.122E+10 1.122E+10 4.011E+00 5.396E+01 9.817E+02 3.265E+03 4.300E+03 4.304E+03 2.602E+07 28.0709 1.00000
  1.259E+10 1.259E+10 4.029E+00 6.065E+01 1.102E+03 3.735E+03 4.897E+03 4.901E+03 2.632E+07 28.3012 1.00000
  1.413E+10 1.413E+10 4.047E+00 6.815E+01 1.236E+03 4.273E+03 5.578E+03 5.582E+03 2.662E+07 28.5314 1.00000
  1.585E+10 1.585E+10 4.065E+00 7.658E+01 1.387E+03 4.890E+03 6.353E+03 6.357E+03 2.691E+07 28.7617 1.00000
  1.778E+10 1.778E+10 4.084E+00 8.605E+01 1.556E+03 5.595E+03 7.238E+03 7.242E+03 2.719E+07 28.9919 1.00000
  1.995E+10 1.995E+10 4.102E+00 9.667E+01 1.746E+03 6.403E+03 8.246E+03 8.250E+03 2.747E+07 29.2222 1.00000
  2.239E+10 2.239E+10 4.121E+00 1.086E+02 1.959E+03 7.328E+03 9.395E+03 9.400E+03 2.775E+07 29.4525 1.00000
  2.512E+10 2.512E+10 4.140E+00 1.220E+02 2.198E+03 8.386E+03 1.071E+04 1.071E+04 2.802E+07 29.6827 1.00000
  2.818E+10 2.818E+10 4.158E+00 1.370E+02 2.466E+03 9.598E+03 1.220E+04 1.221E+04 2.829E+07 29.9130 1.00000
  3.162E+10 3.162E+10 4.177E+00 1.539E+02 2.767E+03 1.099E+04 1.391E+04 1.391E+04 2.856E+07 30.1432 1.00000
  3.548E+10 3.548E+10 4.196E+00 1.728E+02 3.105E+03 1.258E+04 1.585E+04 1.586E+04 2.882E+07 30.3735 1.00000
  3.981E+10 3.981E+10 4.215E+00 1.941E+02 3.484E+03 1.439E+04 1.807E+04 1.808E+04 2.907E+07 30.6037 1.00000
  4.467E+10 4.467E+10 4.235E+00 2.179E+02 3.909E+03 1.648E+04 2.061E+04 2.061E+04 2.933E+07 30.8340 1.00000
  5.012E+10 5.012E+10 4.254E+00 2.447E+02 4.386E+03 1.887E+04 2.350E+04 2.350E+04 2.957E+07 31.0643 1.00000
  5.623E+10 5.623E+10 4.273E+00 2.748E+02 4.921E+03 2.160E+04 2.679E+04 2.680E+04 2.982E+07 31.2945 1.00000
  6.310E+10 6.310E+10 4.293E+00 3.085E+02 5.522E+03 2.473E+04 3.056E+04 3.056E+04 3.006E+07 31.5248 1.00000
  7.079E+10 7.079E+10 4.312E+00 3.463E+02 6.195E+03 2.832E+04 3.486E+04 3.486E+04 3.030E+07 31.7550 1.00000
  7.943E+10 7.943E+10 4.332E+00 3.888E+02 6.951E+03 3.242E+04 3.976E+04 3.977E+04 3.053E+07 31.9853 1.00000
  8.913E+10 8.913E+10 4.352E+00 4.364E+02 7.799E+03 3.713E+04 4.536E+04 4.537E+04 3.076E+07 32.2156 1.00000
  1.000E+11 1.000E+11 4.372E+00 4.899E+02 8.751E+03 4.252E+04 5.176E+04 5.176E+04 3.098E+07 32.4458 1.00000
  1.122E+11 1.122E+11 4.392E+00 5.499E+02 9.819E+03 4.869E+04 5.906E+04 5.907E+04 3.120E+07 32.6761 1.00000
  1.259E+11 1.259E+11 4.412E+00 6.173E+02 1.102E+04 5.577E+04 6.740E+04 6.741E+04 3.142E+07 32.9063 1.00000
  1.413E+11 1.413E+11 4.433E+00 6.928E+02 1.236E+04 6.388E+04 7.693E+04 7.693E+04 3.163E+07 33.1366 1.00000
  1.585E+11 1.585E+11 4.453E+00 7.776E+02 1.387E+04 7.317E+04 8.781E+04 8.782E+04 3.184E+07 33.3668 1.00000
  1.778E+11 1.778E+11 4.474E+00 8.728E+02 1.556E+04 8.381E+04 1.002E+05 1.002E+05 3.205E+07 33.5971 1.00000
  1.995E+11 1.995E+11 4.494E+00 9.796E+02 1.746E+04 9.601E+04 1.144E+05 1.145E+05 3.225E+07 33.8274 1.00000
  2.239E+11 2.239E+11 4.515E+00 1.099E+03 1.959E+04 1.100E+05 1.307E+05 1.307E+05 3.245E+07 34.0576 1.00000
  2.512E+11 2.512E+11 4.536E+00 1.234E+03 2.198E+04 1.260E+05 1.492E+05 1.492E+05 3.265E+07 34.2879 1.00000
  2.818E+11 2.818E+11 4.557E+00 1.385E+03 2.466E+04 1.444E+05 1.704E+05 1.704E+05 3.284E+07 34.5181 1.00000
  3.162E+11 3.162E+11 4.578E+00 1.554E+03 2.767E+04 1.654E+05 1.946E+05 1.946E+05 3.303E+07 34.7484 1.00000
  3.548E+11 3.548E+11 4.600E+00 1.744E+03 3.104E+04 1.895E+05 2.223E+05 2.223E+05 3.322E+07 34.9787 1.00000
  3.981E+11 3.981E+11 4.621E+00 1.957E+03 3.483E+04 2.172E+05 2.540E+05 2.540E+05 3.340E+07 35.2089 1.00000
  4.467E+11 4.467E+11 4.643E+00 2.196E+03 3.908E+04 2.489E+05 2.902E+05 2.902E+05 3.358E+07 35.4392 1.00000
  5.012E+11 5.012E+11 4.664E+00 2.464E+03 4.384E+04 2.852E+05 3.315E+05 3.315E+05 3.375E+07 35.6694 1.00000
  5.623E+11 5.623E+11 4.686E+00 2.765E+03 4.919E+04 3.269E+05 3.789E+05 3.789E+05 3.393E+07 35.8997 1.00000
  6.310E+11 6.310E+11 4.708E+00 3.103E+03 5.519E+04 3.747E+05 4.330E+05 4.330E+05 3.410E+07 36.1299 1.00000
  7.079E+11 7.079E+11 4.730E+00 3.482E+03 6.192E+04 4.294E+05 4.949E+05 4.949E+05 3.426E+07 36.3602 1.00000
  7.943E+11 7.943E+11 4.752E+00 3.907E+03 6.948E+04 4.923E+05 5.656E+05 5.656E+05 3.443E+07 36.5905 1.00000
  8.913E+11 8.913E+11 4.774E+00 4.385E+03 7.795E+04 5.643E+05 6.466E+05 6.466E+05 3.459E+07 36.8207 1.00000
  1.000E+12 1.000E+12 4.796E+00 4.920E+03 8.746E+04 6.469E+05 7.393E+05 7.393E+05 3.475E+07 37.0510 1.00000
  1.122E+12 1.122E+12 4.819E+00 5.521E+03 9.813E+04 7.416E+05 8.452E+05 8.452E+05 3.490E+07 37.2812 1.00000
  1.259E+12 1.259E+12 4.842E+00 6.195E+03 1.101E+05 8.502E+05 9.665E+05 9.665E+05 3.505E+07 37.5115 1.00000
  1.413E+12 1.413E+12 4.864E+00 6.951E+03 1.235E+05 9.748E+05 1.105E+06 1.105E+06 3.520E+07 37.7418 1.00000
  1.585E+12 1.585E+12 4.887E+00 7.799E+03 1.386E+05 1.118E+06 1.264E+06 1.264E+06 3.535E+07 37.9720 1.00000
  1.778E+12 1.778E+12 4.910E+00 8.752E+03 1.555E+05 1.282E+06 1.446E+06 1.446E+06 3.549E+07 38.2023 1.00000
  1.995E+12 1.995E+12 4.933E+00 9.820E+03 1.745E+05 1.470E+06 1.654E+06 1.654E+06 3.563E+07 38.4325 1.00000
  2.239E+12 2.239E+12 4.956E+00 1.102E+04 1.957E+05 1.685E+06 1.892E+06 1.892E+06 3.577E+07 38.6628 1.00000
  2.512E+12 2.512E+12 4.980E+00 1.236E+04 2.196E+05 1.933E+06 2.165E+06 2.165E+06 3.591E+07 38.8930 1.00000
  2.818E+12 2.818E+12 5.003E+00 1.387E+04 2.464E+05 2.217E+06 2.477E+06 2.477E+06 3.604E+07 39.1233 1.00000
  3.162E+12 3.162E+12 5.027E+00 1.557E+04 2.765E+05 2.543E+06 2.835E+06 2.835E+06 3.617E+07 39.3536 1.00000
  3.548E+12 3.548E+12 5.051E+00 1.747E+04 3.102E+05 2.916E+06 3.244E+06 3.244E+06 3.630E+07 39.5838 1.00000
  3.981E+12 3.981E+12 5.075E+00 1.960E+04 3.480E+05 3.345E+06 3.713E+06 3.713E+06 3.642E+07 39.8141 1.00000
  4.467E+12 4.467E+12 5.099E+00 2.199E+04 3.905E+05 3.837E+06 4.250E+06 4.250E+06 3.654E+07 40.0443 1.00000
  5.012E+12 5.012E+12 5.123E+00 2.467E+04 4.381E+05 4.402E+06 4.865E+06 4.865E+06 3.666E+07 40.2746 1.00000
  5.623E+12 5.623E+12 5.147E+00 2.768E+04 4.915E+05 5.050E+06 5.570E+06 5.570E+06 3.678E+07 40.5049 1.00000
  6.310E+12 6.310E+12 5.171E+00 3.106E+04 5.515E+05 5.794E+06 6.377E+06 6.377E+06 3.690E+07 40.7351 1.00000
  7.079E+12 7.079E+12 5.196E+00 3.485E+04 6.187E+05 6.648E+06 7.302E+06 7.302E+06 3.701E+07 40.9654 1.00000
  7.943E+12 7.943E+12 5.221E+00 3.910E+04 6.942E+05 7.628E+06 8.361E+06 8.361E+06 3.712E+07 41.1956 1.00000
  8.913E+12 8.913E+12 5.245E+00 4.388E+04 7.789E+05 8.753E+06 9.576E+06 9.576E+06 3.723E+07 41.4259 1.00000
  1.000E+13 1.000E+13 5.270E+00 4.923E+04 8.738E+05 1.004E+07 1.097E+07 1.097E+07 3.734E+07 41.6562 1.00000
  1.122E+13 1.122E+13 5.296E+00 5.524E+04 9.804E+05 1.153E+07 1.256E+07 1.256E+07 3.744E+07 41.8864 1.00000
  1.259E+13 1.259E+13 5.321E+00 6.198E+04 1.100E+06 1.323E+07 1.439E+07 1.439E+07 3.754E+07 42.1167 1.00000
  1.413E+13 1.413E+13 5.346E+00 6.954E+04 1.234E+06 1.518E+07 1.649E+07 1.649E+07 3.764E+07 42.3469 1.00000
  1.585E+13 1.585E+13 5.372E+00 7.803E+04 1.385E+06 1.742E+07 1.889E+07 1.889E+07 3.774E+07 42.5772 1.00000
  1.778E+13 1.778E+13 5.397E+00 8.755E+04 1.554E+06 2.000E+07 2.164E+07 2.164E+07 3.784E+07 42.8074 1.00000
  1.995E+13 1.995E+13 5.423E+00 9.823E+04 1.743E+06 2.296E+07 2.480E+07 2.480E+07 3.793E+07 43.0377 1.00000
  2.239E+13 2.239E+13 5.449E+00 1.102E+05 1.956E+06 2.635E+07 2.842E+07 2.842E+07 3.802E+07 43.2680 1.00000
  2.512E+13 2.512E+13 5.475E+00 1.237E+05 2.194E+06 3.025E+07 3.257E+07 3.257E+07 3.811E+07 43.4982 1.00000
  2.818E+13 2.818E+13 5.501E+00 1.388E+05 2.462E+06 3.473E+07 3.733E+07 3.733E+07 3.820E+07 43.7285 1.00000
  3.162E+13 3.162E+13 5.528E+00 1.557E+05 2.762E+06 3.987E+07 4.279E+07 4.279E+07 3.829E+07 43.9587 1.00000
  3.548E+13 3.548E+13 5.554E+00 1.747E+05 3.099E+06 4.578E+07 4.905E+07 4.905E+07 3.837E+07 44.1890 1.00000
  3.981E+13 3.981E+13 5.581E+00 1.960E+05 3.477E+06 5.256E+07 5.623E+07 5.623E+07 3.845E+07 44.4193 1.00000
  4.467E+13 4.467E+13 5.607E+00 2.199E+05 3.901E+06 6.035E+07 6.447E+07 6.447E+07 3.853E+07 44.6495 1.00000
  5.012E+13 5.012E+13 5.634E+00 2.468E+05 4.376E+06 6.930E+07 7.393E+07 7.393E+07 3.861E+07 44.8798 1.00000
  5.623E+13 5.623E+13 5.661E+00 2.769E+05 4.910E+06 7.958E+07 8.477E+07 8.477E+07 3.869E+07 45.1100 1.00000
  6.310E+13 6.310E+13 5.689E+00 3.106E+05 5.509E+06 9.139E+07 9.721E+07 9.721E+07 3.877E+07 45.3403 1.00000
  7.079E+13 7.079E+13 5.716E+00 3.485E+05 6.181E+06 1.050E+08 1.115E+08 1.115E+08 3.884E+07 45.5705 1.00000
  7.943E+13 7.943E+13 5.743E+00 3.911E+05 6.934E+06 1.205E+08 1.279E+08 1.279E+08 3.891E+07 45.8008 1.00000
  8.913E+13 8.913E+13 5.771E+00 4.388E+05 7.780E+06 1.385E+08 1.467E+08 1.467E+08 3.898E+07 46.0311 1.00000
