 Incident particle is a Tau with M = 1776.82000 MeV
 Index = 0: PolycarbonateLexan
      Absorber with <Z/A> = 0.52693
 Sternheimer coef:  a     k=m_s   x_0    x_1    I[eV]   Cbar  delta0
                 0.1286  3.3288  0.1606  2.6225   73.1  3.3201 0.00

 *** Table generated with PUMAS v1.00 ***

      T         p     Ionization  brems     pair     photonuc  Radloss    dE/dx   CSDA Range  delta   beta
    [MeV]    [MeV/c]  -----------------------[MeV cm^2/g]------------------------  [g/cm^2]
  1.000E+05 1.018E+05 2.311E+00 1.232E-04 1.912E-03 8.390E-03 1.042E-02 2.322E+00 2.153E+04  4.8547 0.99985
  1.122E+05 1.140E+05 2.331E+00 1.422E-04 2.310E-03 9.478E-03 1.193E-02 2.343E+00 2.677E+04  5.0672 0.99988
  1.259E+05 1.277E+05 2.351E+00 1.642E-04 2.782E-03 1.065E-02 1.360E-02 2.365E+00 3.258E+04  5.2819 0.99990
  1.413E+05 1.430E+05 2.371E+00 1.895E-04 3.337E-03 1.197E-02 1.550E-02 2.387E+00 3.905E+04  5.4987 0.99992
  1.585E+05 1.603E+05 2.391E+00 2.185E-04 3.990E-03 1.345E-02 1.766E-02 2.409E+00 4.624E+04  5.7173 0.99994
  1.778E+05 1.796E+05 2.411E+00 2.519E-04 4.757E-03 1.510E-02 2.011E-02 2.431E+00 5.423E+04  5.9376 0.99995
  1.995E+05 2.013E+05 2.430E+00 2.903E-04 5.656E-03 1.699E-02 2.294E-02 2.453E+00 6.312E+04  6.1594 0.99996
  2.239E+05 2.256E+05 2.450E+00 3.344E-04 6.707E-03 1.905E-02 2.609E-02 2.476E+00 7.299E+04  6.3826 0.99997
  2.512E+05 2.530E+05 2.469E+00 3.850E-04 7.934E-03 2.136E-02 2.968E-02 2.499E+00 8.398E+04  6.6071 0.99998
  2.818E+05 2.836E+05 2.489E+00 4.431E-04 9.363E-03 2.397E-02 3.378E-02 2.522E+00 9.618E+04  6.8326 0.99998
  3.162E+05 3.180E+05 2.508E+00 5.097E-04 1.102E-02 2.692E-02 3.845E-02 2.547E+00 1.098E+05  7.0590 0.99998
  3.548E+05 3.566E+05 2.527E+00 5.862E-04 1.295E-02 3.023E-02 4.377E-02 2.571E+00 1.248E+05  7.2863 0.99999
  3.981E+05 3.999E+05 2.547E+00 6.738E-04 1.519E-02 3.392E-02 4.979E-02 2.596E+00 1.416E+05  7.5142 0.99999
  4.467E+05 4.485E+05 2.566E+00 7.743E-04 1.778E-02 3.807E-02 5.662E-02 2.622E+00 1.602E+05  7.7427 0.99999
  5.012E+05 5.030E+05 2.585E+00 8.894E-04 2.078E-02 4.274E-02 6.440E-02 2.649E+00 1.809E+05  7.9716 0.99999
  5.623E+05 5.641E+05 2.604E+00 1.021E-03 2.424E-02 4.779E-02 7.305E-02 2.677E+00 2.038E+05  8.2009 1.00000
  6.310E+05 6.327E+05 2.623E+00 1.172E-03 2.822E-02 5.350E-02 8.289E-02 2.706E+00 2.293E+05  8.4304 1.00000
  7.079E+05 7.097E+05 2.642E+00 1.345E-03 3.281E-02 5.994E-02 9.410E-02 2.736E+00 2.576E+05  8.6600 1.00000
  7.943E+05 7.961E+05 2.661E+00 1.543E-03 3.810E-02 6.721E-02 1.069E-01 2.768E+00 2.890E+05  8.8897 1.00000
  8.913E+05 8.930E+05 2.680E+00 1.770E-03 4.416E-02 7.544E-02 1.214E-01 2.801E+00 3.238E+05  9.1195 1.00000
  1.000E+06 1.002E+06 2.698E+00 2.029E-03 5.113E-02 8.474E-02 1.379E-01 2.836E+00 3.624E+05  9.3493 1.00000
  1.122E+06 1.124E+06 2.717E+00 2.325E-03 5.911E-02 9.527E-02 1.567E-01 2.874E+00 4.052E+05  9.5792 1.00000
  1.259E+06 1.261E+06 2.735E+00 2.665E-03 6.825E-02 1.072E-01 1.781E-01 2.913E+00 4.525E+05  9.8091 1.00000
  1.413E+06 1.414E+06 2.754E+00 3.052E-03 7.870E-02 1.207E-01 2.025E-01 2.956E+00 5.048E+05 10.0390 1.00000
  1.585E+06 1.587E+06 2.772E+00 3.496E-03 9.065E-02 1.361E-01 2.302E-01 3.002E+00 5.627E+05 10.2690 1.00000
  1.778E+06 1.780E+06 2.790E+00 4.002E-03 1.043E-01 1.535E-01 2.617E-01 3.052E+00 6.266E+05 10.4990 1.00000
  1.995E+06 1.997E+06 2.808E+00 4.581E-03 1.198E-01 1.732E-01 2.976E-01 3.106E+00 6.971E+05 10.7291 1.00000
  2.239E+06 2.240E+06 2.826E+00 5.242E-03 1.376E-01 1.957E-01 3.385E-01 3.164E+00 7.747E+05 10.9592 1.00000
  2.512E+06 2.514E+06 2.844E+00 5.998E-03 1.577E-01 2.212E-01 3.849E-01 3.229E+00 8.602E+05 11.1892 1.00000
  2.818E+06 2.820E+06 2.861E+00 6.860E-03 1.807E-01 2.501E-01 4.377E-01 3.299E+00 9.541E+05 11.4193 1.00000
  3.162E+06 3.164E+06 2.879E+00 7.845E-03 2.068E-01 2.831E-01 4.977E-01 3.376E+00 1.057E+06 11.6495 1.00000
  3.548E+06 3.550E+06 2.896E+00 8.968E-03 2.364E-01 3.206E-01 5.659E-01 3.462E+00 1.170E+06 11.8796 1.00000
  3.981E+06 3.983E+06 2.913E+00 1.025E-02 2.700E-01 3.633E-01 6.435E-01 3.557E+00 1.293E+06 12.1098 1.00000
  4.467E+06 4.469E+06 2.930E+00 1.171E-02 3.081E-01 4.118E-01 7.316E-01 3.662E+00 1.428E+06 12.3399 1.00000
  5.012E+06 5.014E+06 2.947E+00 1.338E-02 3.513E-01 4.671E-01 8.317E-01 3.778E+00 1.575E+06 12.5701 1.00000
  5.623E+06 5.625E+06 2.963E+00 1.528E-02 4.002E-01 5.300E-01 9.455E-01 3.909E+00 1.734E+06 12.8003 1.00000
  6.310E+06 6.311E+06 2.980E+00 1.745E-02 4.555E-01 6.017E-01 1.075E+00 4.054E+00 1.906E+06 13.0305 1.00000
  7.079E+06 7.081E+06 2.996E+00 1.992E-02 5.181E-01 6.834E-01 1.221E+00 4.217E+00 2.092E+06 13.2607 1.00000
  7.943E+06 7.945E+06 3.012E+00 2.274E-02 5.889E-01 7.764E-01 1.388E+00 4.400E+00 2.293E+06 13.4909 1.00000
  8.913E+06 8.914E+06 3.028E+00 2.594E-02 6.688E-01 8.825E-01 1.577E+00 4.605E+00 2.508E+06 13.7211 1.00000
  1.000E+07 1.000E+07 3.044E+00 2.959E-02 7.591E-01 1.003E+00 1.792E+00 4.836E+00 2.739E+06 13.9513 1.00000
  1.122E+07 1.122E+07 3.059E+00 3.375E-02 8.609E-01 1.141E+00 2.036E+00 5.095E+00 2.985E+06 14.1815 1.00000
  1.259E+07 1.259E+07 3.075E+00 3.847E-02 9.759E-01 1.298E+00 2.313E+00 5.387E+00 3.246E+06 14.4117 1.00000
  1.413E+07 1.413E+07 3.090E+00 4.385E-02 1.105E+00 1.477E+00 2.627E+00 5.717E+00 3.523E+06 14.6420 1.00000
  1.585E+07 1.585E+07 3.105E+00 4.997E-02 1.252E+00 1.682E+00 2.983E+00 6.089E+00 3.815E+06 14.8722 1.00000
  1.778E+07 1.778E+07 3.120E+00 5.692E-02 1.416E+00 1.915E+00 3.388E+00 6.509E+00 4.123E+06 15.1024 1.00000
  1.995E+07 1.995E+07 3.135E+00 6.483E-02 1.602E+00 2.181E+00 3.847E+00 6.983E+00 4.445E+06 15.3327 1.00000
  2.239E+07 2.239E+07 3.150E+00 7.381E-02 1.811E+00 2.484E+00 4.368E+00 7.519E+00 4.781E+06 15.5629 1.00000
  2.512E+07 2.512E+07 3.165E+00 8.401E-02 2.046E+00 2.830E+00 4.960E+00 8.125E+00 5.131E+06 15.7931 1.00000
  2.818E+07 2.819E+07 3.180E+00 9.559E-02 2.310E+00 3.225E+00 5.631E+00 8.811E+00 5.493E+06 16.0234 1.00000
  3.162E+07 3.162E+07 3.195E+00 1.087E-01 2.608E+00 3.676E+00 6.392E+00 9.587E+00 5.868E+06 16.2536 1.00000
  3.548E+07 3.548E+07 3.210E+00 1.237E-01 2.943E+00 4.190E+00 7.257E+00 1.047E+01 6.253E+06 16.4839 1.00000
  3.981E+07 3.981E+07 3.224E+00 1.406E-01 3.319E+00 4.777E+00 8.237E+00 1.146E+01 6.649E+06 16.7141 1.00000
  4.467E+07 4.467E+07 3.239E+00 1.598E-01 3.743E+00 5.447E+00 9.350E+00 1.259E+01 7.054E+06 16.9444 1.00000
  5.012E+07 5.012E+07 3.254E+00 1.816E-01 4.219E+00 6.212E+00 1.061E+01 1.387E+01 7.467E+06 17.1746 1.00000
  5.623E+07 5.624E+07 3.268E+00 2.063E-01 4.754E+00 7.085E+00 1.205E+01 1.531E+01 7.887E+06 17.4049 1.00000
  6.310E+07 6.310E+07 3.283E+00 2.342E-01 5.355E+00 8.082E+00 1.367E+01 1.695E+01 8.314E+06 17.6351 1.00000
  7.079E+07 7.080E+07 3.297E+00 2.659E-01 6.031E+00 9.220E+00 1.552E+01 1.881E+01 8.745E+06 17.8654 1.00000
  7.943E+07 7.943E+07 3.312E+00 3.018E-01 6.790E+00 1.052E+01 1.761E+01 2.092E+01 9.181E+06 18.0956 1.00000
  8.913E+07 8.913E+07 3.327E+00 3.425E-01 7.642E+00 1.200E+01 1.999E+01 2.331E+01 9.621E+06 18.3259 1.00000
  1.000E+08 1.000E+08 3.341E+00 3.885E-01 8.600E+00 1.370E+01 2.269E+01 2.603E+01 1.006E+07 18.5561 1.00000
  1.122E+08 1.122E+08 3.356E+00 4.405E-01 9.675E+00 1.563E+01 2.575E+01 2.911E+01 1.051E+07 18.7864 1.00000
  1.259E+08 1.259E+08 3.371E+00 4.993E-01 1.088E+01 1.784E+01 2.923E+01 3.260E+01 1.095E+07 19.0166 1.00000
  1.413E+08 1.413E+08 3.386E+00 5.659E-01 1.224E+01 2.037E+01 3.317E+01 3.656E+01 1.140E+07 19.2469 1.00000
  1.585E+08 1.585E+08 3.401E+00 6.412E-01 1.376E+01 2.325E+01 3.765E+01 4.106E+01 1.184E+07 19.4772 1.00000
  1.778E+08 1.778E+08 3.416E+00 7.263E-01 1.547E+01 2.655E+01 4.274E+01 4.616E+01 1.229E+07 19.7074 1.00000
  1.995E+08 1.995E+08 3.431E+00 8.224E-01 1.739E+01 3.031E+01 4.852E+01 5.195E+01 1.273E+07 19.9377 1.00000
  2.239E+08 2.239E+08 3.446E+00 9.310E-01 1.954E+01 3.461E+01 5.508E+01 5.853E+01 1.317E+07 20.1679 1.00000
  2.512E+08 2.512E+08 3.461E+00 1.054E+00 2.196E+01 3.952E+01 6.253E+01 6.600E+01 1.361E+07 20.3982 1.00000
  2.818E+08 2.818E+08 3.476E+00 1.192E+00 2.468E+01 4.513E+01 7.100E+01 7.447E+01 1.405E+07 20.6284 1.00000
  3.162E+08 3.162E+08 3.491E+00 1.348E+00 2.772E+01 5.154E+01 8.061E+01 8.410E+01 1.449E+07 20.8587 1.00000
  3.548E+08 3.548E+08 3.506E+00 1.525E+00 3.114E+01 5.887E+01 9.154E+01 9.504E+01 1.492E+07 21.0890 1.00000
  3.981E+08 3.981E+08 3.522E+00 1.723E+00 3.498E+01 6.724E+01 1.039E+02 1.075E+02 1.535E+07 21.3192 1.00000
  4.467E+08 4.467E+08 3.537E+00 1.948E+00 3.929E+01 7.681E+01 1.180E+02 1.216E+02 1.578E+07 21.5495 1.00000
  5.012E+08 5.012E+08 3.553E+00 2.201E+00 4.412E+01 8.774E+01 1.341E+02 1.376E+02 1.620E+07 21.7797 1.00000
  5.623E+08 5.623E+08 3.568E+00 2.486E+00 4.955E+01 1.002E+02 1.523E+02 1.558E+02 1.662E+07 22.0100 1.00000
  6.310E+08 6.310E+08 3.584E+00 2.807E+00 5.563E+01 1.145E+02 1.730E+02 1.765E+02 1.703E+07 22.2402 1.00000
  7.079E+08 7.079E+08 3.600E+00 3.169E+00 6.247E+01 1.309E+02 1.965E+02 2.001E+02 1.744E+07 22.4705 1.00000
  7.943E+08 7.943E+08 3.615E+00 3.577E+00 7.013E+01 1.495E+02 2.232E+02 2.268E+02 1.785E+07 22.7008 1.00000
  8.913E+08 8.913E+08 3.631E+00 4.036E+00 7.874E+01 1.709E+02 2.536E+02 2.573E+02 1.825E+07 22.9310 1.00000
  1.000E+09 1.000E+09 3.647E+00 4.553E+00 8.839E+01 1.952E+02 2.882E+02 2.918E+02 1.865E+07 23.1613 1.00000
  1.122E+09 1.122E+09 3.663E+00 5.136E+00 9.922E+01 2.231E+02 3.275E+02 3.311E+02 1.904E+07 23.3915 1.00000
  1.259E+09 1.259E+09 3.679E+00 5.792E+00 1.114E+02 2.550E+02 3.722E+02 3.759E+02 1.943E+07 23.6218 1.00000
  1.413E+09 1.413E+09 3.696E+00 6.529E+00 1.250E+02 2.915E+02 4.230E+02 4.267E+02 1.981E+07 23.8520 1.00000
  1.585E+09 1.585E+09 3.712E+00 7.360E+00 1.403E+02 3.331E+02 4.808E+02 4.845E+02 2.019E+07 24.0823 1.00000
  1.778E+09 1.778E+09 3.728E+00 8.294E+00 1.575E+02 3.808E+02 5.466E+02 5.503E+02 2.057E+07 24.3126 1.00000
  1.995E+09 1.995E+09 3.745E+00 9.344E+00 1.768E+02 4.353E+02 6.214E+02 6.252E+02 2.094E+07 24.5428 1.00000
  2.239E+09 2.239E+09 3.761E+00 1.053E+01 1.984E+02 4.977E+02 7.066E+02 7.103E+02 2.131E+07 24.7731 1.00000
  2.512E+09 2.512E+09 3.778E+00 1.185E+01 2.227E+02 5.690E+02 8.035E+02 8.072E+02 2.167E+07 25.0033 1.00000
  2.818E+09 2.818E+09 3.795E+00 1.335E+01 2.499E+02 6.505E+02 9.137E+02 9.175E+02 2.202E+07 25.2336 1.00000
  3.162E+09 3.162E+09 3.812E+00 1.503E+01 2.804E+02 7.438E+02 1.039E+03 1.043E+03 2.238E+07 25.4639 1.00000
  3.548E+09 3.548E+09 3.829E+00 1.692E+01 3.147E+02 8.505E+02 1.182E+03 1.186E+03 2.272E+07 25.6941 1.00000
  3.981E+09 3.981E+09 3.846E+00 1.904E+01 3.532E+02 9.725E+02 1.345E+03 1.349E+03 2.307E+07 25.9244 1.00000
  4.467E+09 4.467E+09 3.863E+00 2.142E+01 3.963E+02 1.112E+03 1.530E+03 1.534E+03 2.340E+07 26.1546 1.00000
  5.012E+09 5.012E+09 3.880E+00 2.410E+01 4.447E+02 1.272E+03 1.741E+03 1.745E+03 2.374E+07 26.3849 1.00000
  5.623E+09 5.623E+09 3.898E+00 2.711E+01 4.990E+02 1.455E+03 1.981E+03 1.985E+03 2.407E+07 26.6151 1.00000
  6.310E+09 6.310E+09 3.915E+00 3.049E+01 5.600E+02 1.664E+03 2.254E+03 2.258E+03 2.439E+07 26.8454 1.00000
  7.079E+09 7.079E+09 3.933E+00 3.429E+01 6.284E+02 1.903E+03 2.566E+03 2.570E+03 2.471E+07 27.0757 1.00000
  7.943E+09 7.943E+09 3.950E+00 3.856E+01 7.051E+02 2.177E+03 2.920E+03 2.924E+03 2.503E+07 27.3059 1.00000
  8.913E+09 8.913E+09 3.968E+00 4.335E+01 7.912E+02 2.490E+03 3.325E+03 3.329E+03 2.534E+07 27.5362 1.00000
  1.000E+10 1.000E+10 3.986E+00 4.874E+01 8.878E+02 2.849E+03 3.785E+03 3.789E+03 2.565E+07 27.7664 1.00000
  1.122E+10 1.122E+10 4.004E+00 5.478E+01 9.962E+02 3.259E+03 4.310E+03 4.314E+03 2.595E+07 27.9967 1.00000
  1.259E+10 1.259E+10 4.022E+00 6.157E+01 1.118E+03 3.729E+03 4.908E+03 4.912E+03 2.625E+07 28.2270 1.00000
  1.413E+10 1.413E+10 4.040E+00 6.919E+01 1.254E+03 4.266E+03 5.590E+03 5.594E+03 2.654E+07 28.4572 1.00000
  1.585E+10 1.585E+10 4.058E+00 7.775E+01 1.407E+03 4.881E+03 6.367E+03 6.371E+03 2.683E+07 28.6875 1.00000
  1.778E+10 1.778E+10 4.076E+00 8.735E+01 1.579E+03 5.586E+03 7.252E+03 7.256E+03 2.712E+07 28.9177 1.00000
  1.995E+10 1.995E+10 4.095E+00 9.814E+01 1.772E+03 6.392E+03 8.262E+03 8.266E+03 2.740E+07 29.1480 1.00000
  2.239E+10 2.239E+10 4.113E+00 1.102E+02 1.988E+03 7.315E+03 9.413E+03 9.418E+03 2.767E+07 29.3783 1.00000
  2.512E+10 2.512E+10 4.132E+00 1.238E+02 2.231E+03 8.372E+03 1.073E+04 1.073E+04 2.795E+07 29.6085 1.00000
  2.818E+10 2.818E+10 4.151E+00 1.391E+02 2.503E+03 9.582E+03 1.222E+04 1.223E+04 2.821E+07 29.8388 1.00000
  3.162E+10 3.162E+10 4.170E+00 1.562E+02 2.808E+03 1.097E+04 1.393E+04 1.394E+04 2.848E+07 30.0690 1.00000
  3.548E+10 3.548E+10 4.189E+00 1.754E+02 3.151E+03 1.255E+04 1.588E+04 1.588E+04 2.874E+07 30.2993 1.00000
  3.981E+10 3.981E+10 4.208E+00 1.970E+02 3.536E+03 1.437E+04 1.810E+04 1.811E+04 2.899E+07 30.5295 1.00000
  4.467E+10 4.467E+10 4.227E+00 2.212E+02 3.967E+03 1.645E+04 2.064E+04 2.064E+04 2.924E+07 30.7598 1.00000
  5.012E+10 5.012E+10 4.246E+00 2.484E+02 4.451E+03 1.883E+04 2.353E+04 2.354E+04 2.949E+07 30.9901 1.00000
  5.623E+10 5.623E+10 4.266E+00 2.789E+02 4.994E+03 2.156E+04 2.683E+04 2.684E+04 2.974E+07 31.2203 1.00000
  6.310E+10 6.310E+10 4.285E+00 3.131E+02 5.603E+03 2.469E+04 3.060E+04 3.061E+04 2.998E+07 31.4506 1.00000
  7.079E+10 7.079E+10 4.305E+00 3.515E+02 6.287E+03 2.827E+04 3.491E+04 3.491E+04 3.021E+07 31.6808 1.00000
  7.943E+10 7.943E+10 4.325E+00 3.946E+02 7.054E+03 3.237E+04 3.982E+04 3.982E+04 3.044E+07 31.9111 1.00000
  8.913E+10 8.913E+10 4.344E+00 4.430E+02 7.915E+03 3.706E+04 4.542E+04 4.543E+04 3.067E+07 32.1414 1.00000
  1.000E+11 1.000E+11 4.364E+00 4.973E+02 8.880E+03 4.245E+04 5.182E+04 5.183E+04 3.090E+07 32.3716 1.00000
  1.122E+11 1.122E+11 4.385E+00 5.582E+02 9.964E+03 4.861E+04 5.913E+04 5.914E+04 3.112E+07 32.6019 1.00000
  1.259E+11 1.259E+11 4.405E+00 6.265E+02 1.118E+04 5.567E+04 6.748E+04 6.748E+04 3.134E+07 32.8321 1.00000
  1.413E+11 1.413E+11 4.425E+00 7.032E+02 1.254E+04 6.377E+04 7.701E+04 7.702E+04 3.155E+07 33.0624 1.00000
  1.585E+11 1.585E+11 4.445E+00 7.893E+02 1.407E+04 7.304E+04 8.790E+04 8.791E+04 3.176E+07 33.2926 1.00000
  1.778E+11 1.778E+11 4.466E+00 8.859E+02 1.579E+04 8.367E+04 1.003E+05 1.003E+05 3.197E+07 33.5229 1.00000
  1.995E+11 1.995E+11 4.487E+00 9.943E+02 1.772E+04 9.584E+04 1.146E+05 1.146E+05 3.217E+07 33.7532 1.00000
  2.239E+11 2.239E+11 4.507E+00 1.116E+03 1.988E+04 1.098E+05 1.308E+05 1.308E+05 3.237E+07 33.9834 1.00000
  2.512E+11 2.512E+11 4.528E+00 1.252E+03 2.230E+04 1.258E+05 1.493E+05 1.494E+05 3.256E+07 34.2137 1.00000
  2.818E+11 2.818E+11 4.549E+00 1.405E+03 2.502E+04 1.441E+05 1.706E+05 1.706E+05 3.276E+07 34.4439 1.00000
  3.162E+11 3.162E+11 4.570E+00 1.577E+03 2.808E+04 1.651E+05 1.948E+05 1.948E+05 3.295E+07 34.6742 1.00000
  3.548E+11 3.548E+11 4.592E+00 1.770E+03 3.150E+04 1.892E+05 2.225E+05 2.225E+05 3.313E+07 34.9045 1.00000
  3.981E+11 3.981E+11 4.613E+00 1.986E+03 3.534E+04 2.168E+05 2.542E+05 2.542E+05 3.331E+07 35.1347 1.00000
  4.467E+11 4.467E+11 4.634E+00 2.229E+03 3.965E+04 2.485E+05 2.904E+05 2.904E+05 3.349E+07 35.3650 1.00000
  5.012E+11 5.012E+11 4.656E+00 2.501E+03 4.449E+04 2.847E+05 3.317E+05 3.317E+05 3.367E+07 35.5952 1.00000
  5.623E+11 5.623E+11 4.678E+00 2.807E+03 4.992E+04 3.263E+05 3.791E+05 3.791E+05 3.384E+07 35.8255 1.00000
  6.310E+11 6.310E+11 4.700E+00 3.150E+03 5.601E+04 3.740E+05 4.332E+05 4.332E+05 3.401E+07 36.0557 1.00000
  7.079E+11 7.079E+11 4.722E+00 3.534E+03 6.284E+04 4.287E+05 4.951E+05 4.951E+05 3.418E+07 36.2860 1.00000
  7.943E+11 7.943E+11 4.744E+00 3.966E+03 7.050E+04 4.914E+05 5.659E+05 5.659E+05 3.434E+07 36.5163 1.00000
  8.913E+11 8.913E+11 4.766E+00 4.450E+03 7.910E+04 5.633E+05 6.469E+05 6.469E+05 3.450E+07 36.7465 1.00000
  1.000E+12 1.000E+12 4.788E+00 4.994E+03 8.875E+04 6.458E+05 7.395E+05 7.395E+05 3.466E+07 36.9768 1.00000
  1.122E+12 1.122E+12 4.811E+00 5.603E+03 9.958E+04 7.403E+05 8.455E+05 8.455E+05 3.481E+07 37.2070 1.00000
  1.259E+12 1.259E+12 4.833E+00 6.287E+03 1.117E+05 8.488E+05 9.668E+05 9.668E+05 3.497E+07 37.4373 1.00000
  1.413E+12 1.413E+12 4.856E+00 7.055E+03 1.254E+05 9.732E+05 1.106E+06 1.106E+06 3.511E+07 37.6676 1.00000
  1.585E+12 1.585E+12 4.879E+00 7.916E+03 1.406E+05 1.116E+06 1.264E+06 1.264E+06 3.526E+07 37.8978 1.00000
  1.778E+12 1.778E+12 4.902E+00 8.883E+03 1.578E+05 1.279E+06 1.446E+06 1.446E+06 3.540E+07 38.1281 1.00000
  1.995E+12 1.995E+12 4.925E+00 9.967E+03 1.770E+05 1.467E+06 1.654E+06 1.654E+06 3.554E+07 38.3583 1.00000
  2.239E+12 2.239E+12 4.948E+00 1.118E+04 1.986E+05 1.683E+06 1.892E+06 1.892E+06 3.568E+07 38.5886 1.00000
  2.512E+12 2.512E+12 4.971E+00 1.255E+04 2.229E+05 1.930E+06 2.165E+06 2.165E+06 3.582E+07 38.8188 1.00000
  2.818E+12 2.818E+12 4.995E+00 1.408E+04 2.500E+05 2.213E+06 2.477E+06 2.477E+06 3.595E+07 39.0491 1.00000
  3.162E+12 3.162E+12 5.018E+00 1.580E+04 2.805E+05 2.538E+06 2.835E+06 2.835E+06 3.608E+07 39.2794 1.00000
  3.548E+12 3.548E+12 5.042E+00 1.773E+04 3.148E+05 2.911E+06 3.244E+06 3.244E+06 3.621E+07 39.5096 1.00000
  3.981E+12 3.981E+12 5.066E+00 1.989E+04 3.532E+05 3.340E+06 3.713E+06 3.713E+06 3.633E+07 39.7399 1.00000
  4.467E+12 4.467E+12 5.090E+00 2.232E+04 3.962E+05 3.831E+06 4.249E+06 4.249E+06 3.646E+07 39.9701 1.00000
  5.012E+12 5.012E+12 5.114E+00 2.504E+04 4.446E+05 4.395E+06 4.864E+06 4.864E+06 3.658E+07 40.2004 1.00000
  5.623E+12 5.623E+12 5.138E+00 2.810E+04 4.988E+05 5.042E+06 5.569E+06 5.569E+06 3.669E+07 40.4307 1.00000
  6.310E+12 6.310E+12 5.163E+00 3.153E+04 5.596E+05 5.784E+06 6.376E+06 6.376E+06 3.681E+07 40.6609 1.00000
  7.079E+12 7.079E+12 5.187E+00 3.537E+04 6.279E+05 6.637E+06 7.300E+06 7.300E+06 3.692E+07 40.8912 1.00000
  7.943E+12 7.943E+12 5.212E+00 3.969E+04 7.044E+05 7.615E+06 8.359E+06 8.359E+06 3.703E+07 41.1214 1.00000
  8.913E+12 8.913E+12 5.237E+00 4.453E+04 7.904E+05 8.738E+06 9.573E+06 9.573E+06 3.714E+07 41.3517 1.00000
  1.000E+13 1.000E+13 5.262E+00 4.997E+04 8.868E+05 1.003E+07 1.096E+07 1.096E+07 3.725E+07 41.5820 1.00000
  1.122E+13 1.122E+13 5.287E+00 5.607E+04 9.949E+05 1.151E+07 1.256E+07 1.256E+07 3.735E+07 41.8122 1.00000
  1.259E+13 1.259E+13 5.312E+00 6.291E+04 1.116E+06 1.321E+07 1.438E+07 1.438E+07 3.745E+07 42.0425 1.00000
  1.413E+13 1.413E+13 5.337E+00 7.058E+04 1.252E+06 1.516E+07 1.648E+07 1.648E+07 3.755E+07 42.2727 1.00000
  1.585E+13 1.585E+13 5.363E+00 7.920E+04 1.405E+06 1.739E+07 1.888E+07 1.888E+07 3.765E+07 42.5030 1.00000
  1.778E+13 1.778E+13 5.388E+00 8.886E+04 1.576E+06 1.997E+07 2.163E+07 2.163E+07 3.775E+07 42.7332 1.00000
  1.995E+13 1.995E+13 5.414E+00 9.970E+04 1.769E+06 2.292E+07 2.479E+07 2.479E+07 3.784E+07 42.9635 1.00000
  2.239E+13 2.239E+13 5.440E+00 1.119E+05 1.984E+06 2.631E+07 2.840E+07 2.840E+07 3.793E+07 43.1938 1.00000
  2.512E+13 2.512E+13 5.466E+00 1.255E+05 2.227E+06 3.020E+07 3.255E+07 3.255E+07 3.802E+07 43.4240 1.00000
  2.818E+13 2.818E+13 5.492E+00 1.408E+05 2.498E+06 3.467E+07 3.731E+07 3.731E+07 3.811E+07 43.6543 1.00000
  3.162E+13 3.162E+13 5.518E+00 1.580E+05 2.803E+06 3.980E+07 4.276E+07 4.276E+07 3.820E+07 43.8845 1.00000
  3.548E+13 3.548E+13 5.545E+00 1.773E+05 3.145E+06 4.570E+07 4.902E+07 4.902E+07 3.828E+07 44.1148 1.00000
  3.981E+13 3.981E+13 5.571E+00 1.989E+05 3.528E+06 5.247E+07 5.620E+07 5.620E+07 3.837E+07 44.3451 1.00000
  4.467E+13 4.467E+13 5.598E+00 2.232E+05 3.958E+06 6.025E+07 6.443E+07 6.443E+07 3.845E+07 44.5753 1.00000
  5.012E+13 5.012E+13 5.625E+00 2.504E+05 4.441E+06 6.918E+07 7.388E+07 7.388E+07 3.853E+07 44.8056 1.00000
  5.623E+13 5.623E+13 5.652E+00 2.810E+05 4.983E+06 7.945E+07 8.471E+07 8.471E+07 3.860E+07 45.0358 1.00000
  6.310E+13 6.310E+13 5.679E+00 3.153E+05 5.590E+06 9.124E+07 9.714E+07 9.714E+07 3.868E+07 45.2661 1.00000
  7.079E+13 7.079E+13 5.706E+00 3.538E+05 6.272E+06 1.048E+08 1.114E+08 1.114E+08 3.875E+07 45.4963 1.00000
  7.943E+13 7.943E+13 5.734E+00 3.969E+05 7.037E+06 1.203E+08 1.278E+08 1.278E+08 3.883E+07 45.7266 1.00000
  8.913E+13 8.913E+13 5.761E+00 4.454E+05 7.895E+06 1.382E+08 1.466E+08 1.466E+08 3.890E+07 45.9569 1.00000
