 Incident particle is a Tau with M = 1776.82000 MeV
 Index = 0: PolyvinylideneFluoride
      Absorber with <Z/A> = 0.49971
 Sternheimer coef:  a     k=m_s   x_0    x_1    I[eV]   Cbar  delta0
                 0.1032  3.4200  0.1717  2.7375   88.8  3.3793 0.00

 *** Table generated with PUMAS v1.00 ***

      T         p     Ionization  brems     pair     photonuc  Radloss    dE/dx   CSDA Range  delta   beta
    [MeV]    [MeV/c]  -----------------------[MeV cm^2/g]------------------------  [g/cm^2]
  1.000E+05 1.018E+05 2.165E+00 1.447E-04 2.259E-03 8.302E-03 1.071E-02 2.176E+00 2.298E+04  4.8125 0.99985
  1.122E+05 1.140E+05 2.184E+00 1.672E-04 2.725E-03 9.373E-03 1.227E-02 2.197E+00 2.856E+04  5.0235 0.99988
  1.259E+05 1.277E+05 2.203E+00 1.930E-04 3.275E-03 1.053E-02 1.400E-02 2.217E+00 3.476E+04  5.2367 0.99990
  1.413E+05 1.430E+05 2.222E+00 2.228E-04 3.924E-03 1.183E-02 1.597E-02 2.238E+00 4.166E+04  5.4520 0.99992
  1.585E+05 1.603E+05 2.241E+00 2.570E-04 4.686E-03 1.328E-02 1.822E-02 2.259E+00 4.932E+04  5.6692 0.99994
  1.778E+05 1.796E+05 2.260E+00 2.964E-04 5.580E-03 1.490E-02 2.078E-02 2.281E+00 5.784E+04  5.8881 0.99995
  1.995E+05 2.013E+05 2.279E+00 3.416E-04 6.627E-03 1.675E-02 2.372E-02 2.302E+00 6.731E+04  6.1087 0.99996
  2.239E+05 2.256E+05 2.297E+00 3.936E-04 7.851E-03 1.877E-02 2.701E-02 2.324E+00 7.783E+04  6.3306 0.99997
  2.512E+05 2.530E+05 2.316E+00 4.533E-04 9.278E-03 2.104E-02 3.077E-02 2.347E+00 8.953E+04  6.5539 0.99998
  2.818E+05 2.836E+05 2.334E+00 5.218E-04 1.094E-02 2.359E-02 3.505E-02 2.369E+00 1.025E+05  6.7784 0.99998
  3.162E+05 3.180E+05 2.353E+00 6.003E-04 1.287E-02 2.647E-02 3.994E-02 2.393E+00 1.170E+05  7.0038 0.99998
  3.548E+05 3.566E+05 2.371E+00 6.905E-04 1.511E-02 2.971E-02 4.551E-02 2.417E+00 1.330E+05  7.2302 0.99999
  3.981E+05 3.999E+05 2.390E+00 7.938E-04 1.771E-02 3.332E-02 5.182E-02 2.441E+00 1.508E+05  7.4573 0.99999
  4.467E+05 4.485E+05 2.408E+00 9.122E-04 2.072E-02 3.737E-02 5.900E-02 2.467E+00 1.706E+05  7.6851 0.99999
  5.012E+05 5.030E+05 2.426E+00 1.048E-03 2.419E-02 4.193E-02 6.717E-02 2.493E+00 1.926E+05  7.9135 0.99999
  5.623E+05 5.641E+05 2.444E+00 1.203E-03 2.820E-02 4.687E-02 7.627E-02 2.520E+00 2.170E+05  8.1423 1.00000
  6.310E+05 6.327E+05 2.462E+00 1.381E-03 3.282E-02 5.243E-02 8.663E-02 2.549E+00 2.441E+05  8.3715 1.00000
  7.079E+05 7.097E+05 2.480E+00 1.585E-03 3.814E-02 5.871E-02 9.843E-02 2.579E+00 2.741E+05  8.6009 1.00000
  7.943E+05 7.961E+05 2.498E+00 1.818E-03 4.425E-02 6.581E-02 1.119E-01 2.610E+00 3.074E+05  8.8305 1.00000
  8.913E+05 8.930E+05 2.516E+00 2.085E-03 5.127E-02 7.382E-02 1.272E-01 2.643E+00 3.443E+05  9.0603 1.00000
  1.000E+06 1.002E+06 2.534E+00 2.390E-03 5.931E-02 8.289E-02 1.446E-01 2.678E+00 3.852E+05  9.2901 1.00000
  1.122E+06 1.124E+06 2.551E+00 2.739E-03 6.854E-02 9.315E-02 1.644E-01 2.716E+00 4.304E+05  9.5200 1.00000
  1.259E+06 1.261E+06 2.569E+00 3.138E-03 7.909E-02 1.048E-01 1.870E-01 2.756E+00 4.805E+05  9.7499 1.00000
  1.413E+06 1.414E+06 2.586E+00 3.594E-03 9.116E-02 1.179E-01 2.127E-01 2.799E+00 5.358E+05  9.9798 1.00000
  1.585E+06 1.587E+06 2.603E+00 4.116E-03 1.049E-01 1.329E-01 2.419E-01 2.845E+00 5.969E+05 10.2098 1.00000
  1.778E+06 1.780E+06 2.621E+00 4.711E-03 1.207E-01 1.498E-01 2.752E-01 2.896E+00 6.642E+05 10.4398 1.00000
  1.995E+06 1.997E+06 2.638E+00 5.391E-03 1.386E-01 1.691E-01 3.130E-01 2.951E+00 7.385E+05 10.6699 1.00000
  2.239E+06 2.240E+06 2.655E+00 6.168E-03 1.590E-01 1.909E-01 3.561E-01 3.011E+00 8.202E+05 10.9000 1.00000
  2.512E+06 2.514E+06 2.671E+00 7.055E-03 1.822E-01 2.157E-01 4.050E-01 3.076E+00 9.099E+05 11.1300 1.00000
  2.818E+06 2.820E+06 2.688E+00 8.067E-03 2.086E-01 2.439E-01 4.606E-01 3.149E+00 1.008E+06 11.3601 1.00000
  3.162E+06 3.164E+06 2.705E+00 9.222E-03 2.386E-01 2.760E-01 5.238E-01 3.228E+00 1.116E+06 11.5903 1.00000
  3.548E+06 3.550E+06 2.721E+00 1.054E-02 2.727E-01 3.125E-01 5.957E-01 3.317E+00 1.234E+06 11.8204 1.00000
  3.981E+06 3.983E+06 2.737E+00 1.204E-02 3.113E-01 3.540E-01 6.773E-01 3.414E+00 1.363E+06 12.0506 1.00000
  4.467E+06 4.469E+06 2.753E+00 1.376E-02 3.550E-01 4.012E-01 7.700E-01 3.523E+00 1.503E+06 12.2807 1.00000
  5.012E+06 5.014E+06 2.769E+00 1.571E-02 4.046E-01 4.550E-01 8.753E-01 3.644E+00 1.655E+06 12.5109 1.00000
  5.623E+06 5.625E+06 2.785E+00 1.793E-02 4.607E-01 5.162E-01 9.948E-01 3.780E+00 1.820E+06 12.7411 1.00000
  6.310E+06 6.311E+06 2.800E+00 2.047E-02 5.242E-01 5.859E-01 1.131E+00 3.931E+00 1.998E+06 12.9713 1.00000
  7.079E+06 7.081E+06 2.816E+00 2.336E-02 5.959E-01 6.653E-01 1.285E+00 4.100E+00 2.190E+06 13.2015 1.00000
  7.943E+06 7.945E+06 2.831E+00 2.665E-02 6.770E-01 7.559E-01 1.460E+00 4.291E+00 2.396E+06 13.4317 1.00000
  8.913E+06 8.914E+06 2.846E+00 3.039E-02 7.686E-01 8.590E-01 1.658E+00 4.504E+00 2.616E+06 13.6619 1.00000
  1.000E+07 1.000E+07 2.861E+00 3.465E-02 8.719E-01 9.766E-01 1.883E+00 4.744E+00 2.852E+06 13.8921 1.00000
  1.122E+07 1.122E+07 2.876E+00 3.950E-02 9.885E-01 1.111E+00 2.139E+00 5.014E+00 3.102E+06 14.1223 1.00000
  1.259E+07 1.259E+07 2.891E+00 4.501E-02 1.120E+00 1.263E+00 2.428E+00 5.319E+00 3.367E+06 14.3525 1.00000
  1.413E+07 1.413E+07 2.905E+00 5.128E-02 1.268E+00 1.438E+00 2.757E+00 5.662E+00 3.647E+06 14.5828 1.00000
  1.585E+07 1.585E+07 2.920E+00 5.840E-02 1.435E+00 1.636E+00 3.130E+00 6.050E+00 3.942E+06 14.8130 1.00000
  1.778E+07 1.778E+07 2.934E+00 6.650E-02 1.624E+00 1.863E+00 3.553E+00 6.487E+00 4.251E+06 15.0432 1.00000
  1.995E+07 1.995E+07 2.948E+00 7.570E-02 1.836E+00 2.121E+00 4.033E+00 6.981E+00 4.573E+06 15.2735 1.00000
  2.239E+07 2.239E+07 2.962E+00 8.615E-02 2.074E+00 2.416E+00 4.577E+00 7.539E+00 4.909E+06 15.5037 1.00000
  2.512E+07 2.512E+07 2.976E+00 9.801E-02 2.343E+00 2.753E+00 5.194E+00 8.170E+00 5.257E+06 15.7339 1.00000
  2.818E+07 2.819E+07 2.990E+00 1.115E-01 2.645E+00 3.137E+00 5.893E+00 8.884E+00 5.618E+06 15.9642 1.00000
  3.162E+07 3.162E+07 3.004E+00 1.267E-01 2.985E+00 3.575E+00 6.687E+00 9.691E+00 5.989E+06 16.1944 1.00000
  3.548E+07 3.548E+07 3.018E+00 1.441E-01 3.367E+00 4.075E+00 7.586E+00 1.060E+01 6.370E+06 16.4247 1.00000
  3.981E+07 3.981E+07 3.032E+00 1.637E-01 3.797E+00 4.646E+00 8.607E+00 1.164E+01 6.760E+06 16.6549 1.00000
  4.467E+07 4.467E+07 3.046E+00 1.860E-01 4.280E+00 5.297E+00 9.764E+00 1.281E+01 7.158E+06 16.8852 1.00000
  5.012E+07 5.012E+07 3.060E+00 2.113E-01 4.823E+00 6.041E+00 1.108E+01 1.414E+01 7.563E+06 17.1154 1.00000
  5.623E+07 5.624E+07 3.074E+00 2.399E-01 5.434E+00 6.890E+00 1.256E+01 1.564E+01 7.975E+06 17.3457 1.00000
  6.310E+07 6.310E+07 3.088E+00 2.723E-01 6.120E+00 7.859E+00 1.425E+01 1.734E+01 8.393E+06 17.5759 1.00000
  7.079E+07 7.080E+07 3.102E+00 3.090E-01 6.890E+00 8.966E+00 1.617E+01 1.927E+01 8.814E+06 17.8062 1.00000
  7.943E+07 7.943E+07 3.116E+00 3.505E-01 7.756E+00 1.023E+01 1.834E+01 2.145E+01 9.240E+06 18.0364 1.00000
  8.913E+07 8.913E+07 3.130E+00 3.975E-01 8.728E+00 1.167E+01 2.080E+01 2.393E+01 9.668E+06 18.2667 1.00000
  1.000E+08 1.000E+08 3.144E+00 4.507E-01 9.820E+00 1.332E+01 2.359E+01 2.673E+01 1.010E+07 18.4969 1.00000
  1.122E+08 1.122E+08 3.158E+00 5.108E-01 1.105E+01 1.520E+01 2.676E+01 2.992E+01 1.053E+07 18.7272 1.00000
  1.259E+08 1.259E+08 3.172E+00 5.788E-01 1.242E+01 1.735E+01 3.035E+01 3.352E+01 1.096E+07 18.9574 1.00000
  1.413E+08 1.413E+08 3.186E+00 6.557E-01 1.397E+01 1.981E+01 3.443E+01 3.762E+01 1.140E+07 19.1877 1.00000
  1.585E+08 1.585E+08 3.200E+00 7.426E-01 1.571E+01 2.261E+01 3.906E+01 4.226E+01 1.183E+07 19.4180 1.00000
  1.778E+08 1.778E+08 3.214E+00 8.407E-01 1.765E+01 2.581E+01 4.431E+01 4.752E+01 1.226E+07 19.6482 1.00000
  1.995E+08 1.995E+08 3.228E+00 9.516E-01 1.984E+01 2.947E+01 5.026E+01 5.349E+01 1.269E+07 19.8785 1.00000
  2.239E+08 2.239E+08 3.242E+00 1.077E+00 2.230E+01 3.365E+01 5.702E+01 6.027E+01 1.312E+07 20.1087 1.00000
  2.512E+08 2.512E+08 3.257E+00 1.218E+00 2.505E+01 3.842E+01 6.470E+01 6.795E+01 1.355E+07 20.3390 1.00000
  2.818E+08 2.818E+08 3.271E+00 1.377E+00 2.815E+01 4.388E+01 7.341E+01 7.668E+01 1.398E+07 20.5692 1.00000
  3.162E+08 3.162E+08 3.285E+00 1.557E+00 3.162E+01 5.011E+01 8.329E+01 8.658E+01 1.440E+07 20.7995 1.00000
  3.548E+08 3.548E+08 3.300E+00 1.760E+00 3.552E+01 5.724E+01 9.452E+01 9.782E+01 1.482E+07 21.0298 1.00000
  3.981E+08 3.981E+08 3.314E+00 1.989E+00 3.989E+01 6.538E+01 1.073E+02 1.106E+02 1.524E+07 21.2600 1.00000
  4.467E+08 4.467E+08 3.329E+00 2.247E+00 4.480E+01 7.468E+01 1.217E+02 1.251E+02 1.565E+07 21.4903 1.00000
  5.012E+08 5.012E+08 3.344E+00 2.538E+00 5.031E+01 8.531E+01 1.382E+02 1.415E+02 1.606E+07 21.7205 1.00000
  5.623E+08 5.623E+08 3.358E+00 2.865E+00 5.649E+01 9.746E+01 1.568E+02 1.602E+02 1.647E+07 21.9508 1.00000
  6.310E+08 6.310E+08 3.373E+00 3.234E+00 6.343E+01 1.114E+02 1.780E+02 1.814E+02 1.687E+07 22.1810 1.00000
  7.079E+08 7.079E+08 3.388E+00 3.650E+00 7.122E+01 1.272E+02 2.021E+02 2.055E+02 1.727E+07 22.4113 1.00000
  7.943E+08 7.943E+08 3.403E+00 4.118E+00 7.996E+01 1.454E+02 2.294E+02 2.329E+02 1.767E+07 22.6416 1.00000
  8.913E+08 8.913E+08 3.418E+00 4.646E+00 8.976E+01 1.661E+02 2.605E+02 2.639E+02 1.806E+07 22.8718 1.00000
  1.000E+09 1.000E+09 3.433E+00 5.239E+00 1.008E+02 1.898E+02 2.958E+02 2.993E+02 1.845E+07 23.1021 1.00000
  1.122E+09 1.122E+09 3.449E+00 5.907E+00 1.131E+02 2.169E+02 3.360E+02 3.394E+02 1.883E+07 23.3323 1.00000
  1.259E+09 1.259E+09 3.464E+00 6.659E+00 1.270E+02 2.479E+02 3.816E+02 3.850E+02 1.921E+07 23.5626 1.00000
  1.413E+09 1.413E+09 3.479E+00 7.505E+00 1.425E+02 2.834E+02 4.334E+02 4.369E+02 1.958E+07 23.7928 1.00000
  1.585E+09 1.585E+09 3.495E+00 8.456E+00 1.600E+02 3.239E+02 4.923E+02 4.958E+02 1.996E+07 24.0231 1.00000
  1.778E+09 1.778E+09 3.510E+00 9.527E+00 1.795E+02 3.703E+02 5.593E+02 5.628E+02 2.032E+07 24.2534 1.00000
  1.995E+09 1.995E+09 3.526E+00 1.073E+01 2.015E+02 4.233E+02 6.355E+02 6.390E+02 2.068E+07 24.4836 1.00000
  2.239E+09 2.239E+09 3.542E+00 1.208E+01 2.261E+02 4.839E+02 7.221E+02 7.256E+02 2.104E+07 24.7139 1.00000
  2.512E+09 2.512E+09 3.558E+00 1.360E+01 2.538E+02 5.532E+02 8.206E+02 8.241E+02 2.140E+07 24.9441 1.00000
  2.818E+09 2.818E+09 3.574E+00 1.532E+01 2.848E+02 6.325E+02 9.326E+02 9.362E+02 2.175E+07 25.1744 1.00000
  3.162E+09 3.162E+09 3.590E+00 1.724E+01 3.196E+02 7.232E+02 1.060E+03 1.064E+03 2.209E+07 25.4047 1.00000
  3.548E+09 3.548E+09 3.606E+00 1.940E+01 3.587E+02 8.269E+02 1.205E+03 1.209E+03 2.243E+07 25.6349 1.00000
  3.981E+09 3.981E+09 3.622E+00 2.183E+01 4.025E+02 9.456E+02 1.370E+03 1.374E+03 2.277E+07 25.8652 1.00000
  4.467E+09 4.467E+09 3.638E+00 2.455E+01 4.517E+02 1.081E+03 1.558E+03 1.561E+03 2.310E+07 26.0954 1.00000
  5.012E+09 5.012E+09 3.654E+00 2.762E+01 5.069E+02 1.237E+03 1.771E+03 1.775E+03 2.343E+07 26.3257 1.00000
  5.623E+09 5.623E+09 3.671E+00 3.106E+01 5.688E+02 1.414E+03 2.014E+03 2.018E+03 2.375E+07 26.5559 1.00000
  6.310E+09 6.310E+09 3.687E+00 3.493E+01 6.382E+02 1.618E+03 2.291E+03 2.294E+03 2.407E+07 26.7862 1.00000
  7.079E+09 7.079E+09 3.704E+00 3.927E+01 7.162E+02 1.850E+03 2.606E+03 2.609E+03 2.439E+07 27.0165 1.00000
  7.943E+09 7.943E+09 3.721E+00 4.415E+01 8.036E+02 2.116E+03 2.964E+03 2.968E+03 2.470E+07 27.2467 1.00000
  8.913E+09 8.913E+09 3.738E+00 4.962E+01 9.017E+02 2.421E+03 3.372E+03 3.376E+03 2.501E+07 27.4770 1.00000
  1.000E+10 1.000E+10 3.755E+00 5.578E+01 1.012E+03 2.770E+03 3.837E+03 3.841E+03 2.531E+07 27.7072 1.00000
  1.122E+10 1.122E+10 3.772E+00 6.268E+01 1.135E+03 3.169E+03 4.367E+03 4.370E+03 2.561E+07 27.9375 1.00000
  1.259E+10 1.259E+10 3.789E+00 7.044E+01 1.274E+03 3.625E+03 4.970E+03 4.973E+03 2.590E+07 28.1678 1.00000
  1.413E+10 1.413E+10 3.806E+00 7.914E+01 1.429E+03 4.148E+03 5.656E+03 5.660E+03 2.619E+07 28.3980 1.00000
  1.585E+10 1.585E+10 3.823E+00 8.892E+01 1.604E+03 4.746E+03 6.439E+03 6.443E+03 2.648E+07 28.6283 1.00000
  1.778E+10 1.778E+10 3.841E+00 9.989E+01 1.800E+03 5.431E+03 7.330E+03 7.334E+03 2.676E+07 28.8585 1.00000
  1.995E+10 1.995E+10 3.858E+00 1.122E+02 2.019E+03 6.215E+03 8.346E+03 8.350E+03 2.704E+07 29.0888 1.00000
  2.239E+10 2.239E+10 3.876E+00 1.260E+02 2.266E+03 7.112E+03 9.504E+03 9.508E+03 2.731E+07 29.3191 1.00000
  2.512E+10 2.512E+10 3.893E+00 1.416E+02 2.542E+03 8.140E+03 1.082E+04 1.083E+04 2.758E+07 29.5493 1.00000
  2.818E+10 2.818E+10 3.911E+00 1.590E+02 2.852E+03 9.316E+03 1.233E+04 1.233E+04 2.785E+07 29.7796 1.00000
  3.162E+10 3.162E+10 3.929E+00 1.785E+02 3.200E+03 1.066E+04 1.404E+04 1.405E+04 2.811E+07 30.0098 1.00000
  3.548E+10 3.548E+10 3.947E+00 2.005E+02 3.591E+03 1.221E+04 1.600E+04 1.600E+04 2.837E+07 30.2401 1.00000
  3.981E+10 3.981E+10 3.965E+00 2.251E+02 4.029E+03 1.397E+04 1.823E+04 1.823E+04 2.862E+07 30.4703 1.00000
  4.467E+10 4.467E+10 3.983E+00 2.527E+02 4.521E+03 1.599E+04 2.077E+04 2.077E+04 2.887E+07 30.7006 1.00000
  5.012E+10 5.012E+10 4.002E+00 2.838E+02 5.072E+03 1.831E+04 2.367E+04 2.367E+04 2.912E+07 30.9309 1.00000
  5.623E+10 5.623E+10 4.020E+00 3.186E+02 5.691E+03 2.096E+04 2.697E+04 2.698E+04 2.936E+07 31.1611 1.00000
  6.310E+10 6.310E+10 4.039E+00 3.577E+02 6.386E+03 2.400E+04 3.075E+04 3.075E+04 2.960E+07 31.3914 1.00000
  7.079E+10 7.079E+10 4.057E+00 4.015E+02 7.165E+03 2.748E+04 3.505E+04 3.505E+04 2.983E+07 31.6216 1.00000
  7.943E+10 7.943E+10 4.076E+00 4.507E+02 8.039E+03 3.147E+04 3.996E+04 3.996E+04 3.007E+07 31.8519 1.00000
  8.913E+10 8.913E+10 4.095E+00 5.059E+02 9.020E+03 3.604E+04 4.556E+04 4.557E+04 3.029E+07 32.0822 1.00000
  1.000E+11 1.000E+11 4.114E+00 5.679E+02 1.012E+04 4.127E+04 5.196E+04 5.196E+04 3.052E+07 32.3124 1.00000
  1.122E+11 1.122E+11 4.133E+00 6.374E+02 1.135E+04 4.726E+04 5.926E+04 5.926E+04 3.074E+07 32.5427 1.00000
  1.259E+11 1.259E+11 4.152E+00 7.154E+02 1.274E+04 5.413E+04 6.759E+04 6.759E+04 3.095E+07 32.7729 1.00000
  1.413E+11 1.413E+11 4.171E+00 8.030E+02 1.429E+04 6.200E+04 7.710E+04 7.710E+04 3.117E+07 33.0032 1.00000
  1.585E+11 1.585E+11 4.190E+00 9.012E+02 1.604E+04 7.102E+04 8.795E+04 8.796E+04 3.138E+07 33.2334 1.00000
  1.778E+11 1.778E+11 4.210E+00 1.011E+03 1.799E+04 8.135E+04 1.004E+05 1.004E+05 3.158E+07 33.4637 1.00000
  1.995E+11 1.995E+11 4.230E+00 1.135E+03 2.019E+04 9.319E+04 1.145E+05 1.145E+05 3.179E+07 33.6940 1.00000
  2.239E+11 2.239E+11 4.249E+00 1.274E+03 2.265E+04 1.068E+05 1.307E+05 1.307E+05 3.199E+07 33.9242 1.00000
  2.512E+11 2.512E+11 4.269E+00 1.430E+03 2.542E+04 1.223E+05 1.492E+05 1.492E+05 3.218E+07 34.1545 1.00000
  2.818E+11 2.818E+11 4.289E+00 1.604E+03 2.852E+04 1.401E+05 1.702E+05 1.703E+05 3.237E+07 34.3847 1.00000
  3.162E+11 3.162E+11 4.309E+00 1.800E+03 3.199E+04 1.606E+05 1.943E+05 1.944E+05 3.256E+07 34.6150 1.00000
  3.548E+11 3.548E+11 4.329E+00 2.020E+03 3.590E+04 1.840E+05 2.219E+05 2.219E+05 3.275E+07 34.8453 1.00000
  3.981E+11 3.981E+11 4.349E+00 2.267E+03 4.028E+04 2.108E+05 2.534E+05 2.534E+05 3.293E+07 35.0755 1.00000
  4.467E+11 4.467E+11 4.370E+00 2.544E+03 4.519E+04 2.416E+05 2.893E+05 2.893E+05 3.311E+07 35.3058 1.00000
  5.012E+11 5.012E+11 4.390E+00 2.855E+03 5.070E+04 2.769E+05 3.304E+05 3.304E+05 3.329E+07 35.5360 1.00000
  5.623E+11 5.623E+11 4.411E+00 3.204E+03 5.689E+04 3.173E+05 3.774E+05 3.774E+05 3.346E+07 35.7663 1.00000
  6.310E+11 6.310E+11 4.431E+00 3.595E+03 6.383E+04 3.637E+05 4.311E+05 4.311E+05 3.363E+07 35.9965 1.00000
  7.079E+11 7.079E+11 4.452E+00 4.034E+03 7.161E+04 4.168E+05 4.925E+05 4.925E+05 3.380E+07 36.2268 1.00000
  7.943E+11 7.943E+11 4.473E+00 4.527E+03 8.035E+04 4.778E+05 5.627E+05 5.627E+05 3.397E+07 36.4571 1.00000
  8.913E+11 8.913E+11 4.494E+00 5.079E+03 9.015E+04 5.477E+05 6.429E+05 6.429E+05 3.413E+07 36.6873 1.00000
  1.000E+12 1.000E+12 4.515E+00 5.699E+03 1.011E+05 6.279E+05 7.347E+05 7.347E+05 3.429E+07 36.9176 1.00000
  1.122E+12 1.122E+12 4.537E+00 6.395E+03 1.135E+05 7.198E+05 8.397E+05 8.397E+05 3.444E+07 37.1478 1.00000
  1.259E+12 1.259E+12 4.558E+00 7.176E+03 1.273E+05 8.252E+05 9.597E+05 9.597E+05 3.459E+07 37.3781 1.00000
  1.413E+12 1.413E+12 4.580E+00 8.052E+03 1.429E+05 9.462E+05 1.097E+06 1.097E+06 3.474E+07 37.6084 1.00000
  1.585E+12 1.585E+12 4.601E+00 9.035E+03 1.603E+05 1.085E+06 1.254E+06 1.254E+06 3.489E+07 37.8386 1.00000
  1.778E+12 1.778E+12 4.623E+00 1.014E+04 1.798E+05 1.244E+06 1.434E+06 1.434E+06 3.504E+07 38.0689 1.00000
  1.995E+12 1.995E+12 4.645E+00 1.138E+04 2.018E+05 1.427E+06 1.640E+06 1.640E+06 3.518E+07 38.2991 1.00000
  2.239E+12 2.239E+12 4.667E+00 1.276E+04 2.264E+05 1.636E+06 1.875E+06 1.875E+06 3.532E+07 38.5294 1.00000
  2.512E+12 2.512E+12 4.689E+00 1.432E+04 2.540E+05 1.876E+06 2.144E+06 2.144E+06 3.545E+07 38.7596 1.00000
  2.818E+12 2.818E+12 4.711E+00 1.607E+04 2.850E+05 2.152E+06 2.453E+06 2.453E+06 3.559E+07 38.9899 1.00000
  3.162E+12 3.162E+12 4.734E+00 1.803E+04 3.197E+05 2.468E+06 2.806E+06 2.806E+06 3.572E+07 39.2202 1.00000
  3.548E+12 3.548E+12 4.756E+00 2.023E+04 3.587E+05 2.831E+06 3.210E+06 3.210E+06 3.585E+07 39.4504 1.00000
  3.981E+12 3.981E+12 4.779E+00 2.270E+04 4.025E+05 3.247E+06 3.672E+06 3.672E+06 3.597E+07 39.6807 1.00000
  4.467E+12 4.467E+12 4.802E+00 2.547E+04 4.515E+05 3.725E+06 4.202E+06 4.202E+06 3.610E+07 39.9109 1.00000
  5.012E+12 5.012E+12 4.825E+00 2.858E+04 5.066E+05 4.273E+06 4.808E+06 4.808E+06 3.622E+07 40.1412 1.00000
  5.623E+12 5.623E+12 4.848E+00 3.207E+04 5.684E+05 4.902E+06 5.502E+06 5.502E+06 3.634E+07 40.3715 1.00000
  6.310E+12 6.310E+12 4.871E+00 3.598E+04 6.377E+05 5.624E+06 6.298E+06 6.298E+06 3.646E+07 40.6017 1.00000
  7.079E+12 7.079E+12 4.894E+00 4.037E+04 7.155E+05 6.453E+06 7.209E+06 7.209E+06 3.657E+07 40.8320 1.00000
  7.943E+12 7.943E+12 4.917E+00 4.530E+04 8.028E+05 7.404E+06 8.252E+06 8.252E+06 3.668E+07 41.0622 1.00000
  8.913E+12 8.913E+12 4.941E+00 5.082E+04 9.007E+05 8.496E+06 9.447E+06 9.447E+06 3.679E+07 41.2925 1.00000
  1.000E+13 1.000E+13 4.964E+00 5.703E+04 1.011E+06 9.749E+06 1.082E+07 1.082E+07 3.690E+07 41.5228 1.00000
  1.122E+13 1.122E+13 4.988E+00 6.398E+04 1.134E+06 1.119E+07 1.239E+07 1.239E+07 3.701E+07 41.7530 1.00000
  1.259E+13 1.259E+13 5.012E+00 7.179E+04 1.272E+06 1.284E+07 1.418E+07 1.418E+07 3.711E+07 41.9833 1.00000
  1.413E+13 1.413E+13 5.036E+00 8.055E+04 1.427E+06 1.474E+07 1.624E+07 1.624E+07 3.721E+07 42.2135 1.00000
  1.585E+13 1.585E+13 5.060E+00 9.038E+04 1.601E+06 1.691E+07 1.860E+07 1.860E+07 3.731E+07 42.4438 1.00000
  1.778E+13 1.778E+13 5.084E+00 1.014E+05 1.797E+06 1.941E+07 2.131E+07 2.131E+07 3.741E+07 42.6740 1.00000
  1.995E+13 1.995E+13 5.109E+00 1.138E+05 2.016E+06 2.228E+07 2.441E+07 2.441E+07 3.750E+07 42.9043 1.00000
  2.239E+13 2.239E+13 5.133E+00 1.277E+05 2.262E+06 2.558E+07 2.797E+07 2.797E+07 3.760E+07 43.1346 1.00000
  2.512E+13 2.512E+13 5.158E+00 1.432E+05 2.537E+06 2.936E+07 3.204E+07 3.204E+07 3.769E+07 43.3648 1.00000
  2.818E+13 2.818E+13 5.183E+00 1.607E+05 2.847E+06 3.371E+07 3.672E+07 3.672E+07 3.778E+07 43.5951 1.00000
  3.162E+13 3.162E+13 5.208E+00 1.803E+05 3.194E+06 3.870E+07 4.207E+07 4.207E+07 3.786E+07 43.8253 1.00000
  3.548E+13 3.548E+13 5.233E+00 2.023E+05 3.584E+06 4.443E+07 4.822E+07 4.822E+07 3.795E+07 44.0556 1.00000
  3.981E+13 3.981E+13 5.258E+00 2.270E+05 4.021E+06 5.102E+07 5.526E+07 5.526E+07 3.803E+07 44.2859 1.00000
  4.467E+13 4.467E+13 5.284E+00 2.547E+05 4.511E+06 5.858E+07 6.334E+07 6.334E+07 3.812E+07 44.5161 1.00000
  5.012E+13 5.012E+13 5.309E+00 2.858E+05 5.061E+06 6.727E+07 7.261E+07 7.261E+07 3.820E+07 44.7464 1.00000
  5.623E+13 5.623E+13 5.335E+00 3.207E+05 5.678E+06 7.724E+07 8.324E+07 8.324E+07 3.828E+07 44.9766 1.00000
  6.310E+13 6.310E+13 5.360E+00 3.598E+05 6.371E+06 8.871E+07 9.544E+07 9.544E+07 3.835E+07 45.2069 1.00000
  7.079E+13 7.079E+13 5.386E+00 4.037E+05 7.148E+06 1.019E+08 1.094E+08 1.094E+08 3.843E+07 45.4371 1.00000
  7.943E+13 7.943E+13 5.412E+00 4.530E+05 8.019E+06 1.170E+08 1.255E+08 1.255E+08 3.850E+07 45.6674 1.00000
  8.913E+13 8.913E+13 5.438E+00 5.083E+05 8.997E+06 1.344E+08 1.439E+08 1.439E+08 3.858E+07 45.8977 1.00000
