 Incident particle is a Tau with M = 1776.82000 MeV
 Index = 0: PolyvinylideneChloride
      Absorber with <Z/A> = 0.49512
 Sternheimer coef:  a     k=m_s   x_0    x_1    I[eV]   Cbar  delta0
                 0.1547  3.1020  0.1314  2.9009  134.3  4.2506 0.00

 *** Table generated with PUMAS v1.00 ***

      T         p     Ionization  brems     pair     photonuc  Radloss    dE/dx   CSDA Range  delta   beta
    [MeV]    [MeV/c]  -----------------------[MeV cm^2/g]------------------------  [g/cm^2]
  1.000E+05 1.018E+05 2.138E+00 2.513E-04 4.012E-03 8.138E-03 1.240E-02 2.151E+00 2.325E+04  4.0792 0.99985
  1.122E+05 1.140E+05 2.158E+00 2.905E-04 4.823E-03 9.177E-03 1.429E-02 2.173E+00 2.889E+04  4.2758 0.99988
  1.259E+05 1.277E+05 2.178E+00 3.358E-04 5.779E-03 1.029E-02 1.641E-02 2.195E+00 3.516E+04  4.4755 0.99990
  1.413E+05 1.430E+05 2.198E+00 3.879E-04 6.904E-03 1.155E-02 1.884E-02 2.217E+00 4.213E+04  4.6781 0.99992
  1.585E+05 1.603E+05 2.217E+00 4.478E-04 8.224E-03 1.295E-02 2.162E-02 2.239E+00 4.986E+04  4.8834 0.99994
  1.778E+05 1.796E+05 2.237E+00 5.168E-04 9.771E-03 1.452E-02 2.480E-02 2.262E+00 5.846E+04  5.0913 0.99995
  1.995E+05 2.013E+05 2.256E+00 5.961E-04 1.158E-02 1.630E-02 2.847E-02 2.285E+00 6.800E+04  5.3016 0.99996
  2.239E+05 2.256E+05 2.275E+00 6.872E-04 1.369E-02 1.824E-02 3.262E-02 2.308E+00 7.861E+04  5.5142 0.99997
  2.512E+05 2.530E+05 2.294E+00 7.919E-04 1.615E-02 2.042E-02 3.736E-02 2.332E+00 9.038E+04  5.7289 0.99998
  2.818E+05 2.836E+05 2.313E+00 9.120E-04 1.901E-02 2.287E-02 4.280E-02 2.356E+00 1.035E+05  5.9456 0.99998
  3.162E+05 3.180E+05 2.332E+00 1.050E-03 2.233E-02 2.564E-02 4.902E-02 2.381E+00 1.180E+05  6.1641 0.99998
  3.548E+05 3.566E+05 2.351E+00 1.208E-03 2.618E-02 2.874E-02 5.613E-02 2.407E+00 1.341E+05  6.3844 0.99999
  3.981E+05 3.999E+05 2.369E+00 1.389E-03 3.064E-02 3.220E-02 6.422E-02 2.434E+00 1.520E+05  6.6061 0.99999
  4.467E+05 4.485E+05 2.388E+00 1.597E-03 3.578E-02 3.607E-02 7.345E-02 2.461E+00 1.718E+05  6.8293 0.99999
  5.012E+05 5.030E+05 2.406E+00 1.836E-03 4.172E-02 4.043E-02 8.399E-02 2.490E+00 1.938E+05  7.0537 0.99999
  5.623E+05 5.641E+05 2.424E+00 2.108E-03 4.857E-02 4.514E-02 9.582E-02 2.520E+00 2.183E+05  7.2792 1.00000
  6.310E+05 6.327E+05 2.442E+00 2.421E-03 5.645E-02 5.045E-02 1.093E-01 2.552E+00 2.453E+05  7.5058 1.00000
  7.079E+05 7.097E+05 2.460E+00 2.778E-03 6.550E-02 5.644E-02 1.247E-01 2.585E+00 2.753E+05  7.7332 1.00000
  7.943E+05 7.961E+05 2.478E+00 3.187E-03 7.590E-02 6.320E-02 1.423E-01 2.621E+00 3.085E+05  7.9613 1.00000
  8.913E+05 8.930E+05 2.496E+00 3.655E-03 8.782E-02 7.084E-02 1.623E-01 2.658E+00 3.452E+05  8.1900 1.00000
  1.000E+06 1.002E+06 2.514E+00 4.191E-03 1.015E-01 7.947E-02 1.851E-01 2.699E+00 3.858E+05  8.4192 1.00000
  1.122E+06 1.124E+06 2.531E+00 4.802E-03 1.171E-01 8.923E-02 2.111E-01 2.742E+00 4.307E+05  8.6488 1.00000
  1.259E+06 1.261E+06 2.548E+00 5.501E-03 1.349E-01 1.003E-01 2.407E-01 2.789E+00 4.802E+05  8.8786 1.00000
  1.413E+06 1.414E+06 2.566E+00 6.300E-03 1.553E-01 1.128E-01 2.744E-01 2.840E+00 5.347E+05  9.1085 1.00000
  1.585E+06 1.587E+06 2.583E+00 7.212E-03 1.786E-01 1.270E-01 3.128E-01 2.896E+00 5.949E+05  9.3385 1.00000
  1.778E+06 1.780E+06 2.600E+00 8.254E-03 2.051E-01 1.431E-01 3.564E-01 2.956E+00 6.610E+05  9.5685 1.00000
  1.995E+06 1.997E+06 2.617E+00 9.443E-03 2.352E-01 1.614E-01 4.060E-01 3.023E+00 7.335E+05  9.7986 1.00000
  2.239E+06 2.240E+06 2.634E+00 1.080E-02 2.695E-01 1.821E-01 4.624E-01 3.096E+00 8.131E+05 10.0287 1.00000
  2.512E+06 2.514E+06 2.650E+00 1.235E-02 3.085E-01 2.057E-01 5.265E-01 3.177E+00 9.002E+05 10.2587 1.00000
  2.818E+06 2.820E+06 2.667E+00 1.411E-02 3.527E-01 2.324E-01 5.993E-01 3.266E+00 9.954E+05 10.4888 1.00000
  3.162E+06 3.164E+06 2.683E+00 1.613E-02 4.029E-01 2.629E-01 6.819E-01 3.365E+00 1.099E+06 10.7190 1.00000
  3.548E+06 3.550E+06 2.699E+00 1.842E-02 4.599E-01 2.975E-01 7.758E-01 3.475E+00 1.212E+06 10.9491 1.00000
  3.981E+06 3.983E+06 2.715E+00 2.103E-02 5.243E-01 3.369E-01 8.822E-01 3.598E+00 1.334E+06 11.1793 1.00000
  4.467E+06 4.469E+06 2.731E+00 2.401E-02 5.973E-01 3.817E-01 1.003E+00 3.734E+00 1.467E+06 11.4094 1.00000
  5.012E+06 5.014E+06 2.747E+00 2.741E-02 6.799E-01 4.327E-01 1.140E+00 3.887E+00 1.610E+06 11.6396 1.00000
  5.623E+06 5.625E+06 2.763E+00 3.127E-02 7.733E-01 4.907E-01 1.295E+00 4.058E+00 1.764E+06 11.8698 1.00000
  6.310E+06 6.311E+06 2.778E+00 3.566E-02 8.789E-01 5.568E-01 1.471E+00 4.249E+00 1.929E+06 12.1000 1.00000
  7.079E+06 7.081E+06 2.793E+00 4.067E-02 9.981E-01 6.322E-01 1.671E+00 4.464E+00 2.106E+06 12.3302 1.00000
  7.943E+06 7.945E+06 2.808E+00 4.636E-02 1.133E+00 7.180E-01 1.897E+00 4.705E+00 2.295E+06 12.5604 1.00000
  8.913E+06 8.914E+06 2.823E+00 5.283E-02 1.284E+00 8.158E-01 2.153E+00 4.976E+00 2.495E+06 12.7906 1.00000
  1.000E+07 1.000E+07 2.838E+00 6.019E-02 1.456E+00 9.272E-01 2.443E+00 5.281E+00 2.707E+06 13.0208 1.00000
  1.122E+07 1.122E+07 2.853E+00 6.856E-02 1.649E+00 1.054E+00 2.772E+00 5.624E+00 2.931E+06 13.2510 1.00000
  1.259E+07 1.259E+07 2.867E+00 7.806E-02 1.866E+00 1.199E+00 3.143E+00 6.011E+00 3.167E+06 13.4812 1.00000
  1.413E+07 1.413E+07 2.882E+00 8.886E-02 2.111E+00 1.364E+00 3.565E+00 6.446E+00 3.414E+06 13.7115 1.00000
  1.585E+07 1.585E+07 2.896E+00 1.011E-01 2.387E+00 1.553E+00 4.041E+00 6.937E+00 3.672E+06 13.9417 1.00000
  1.778E+07 1.778E+07 2.910E+00 1.150E-01 2.698E+00 1.767E+00 4.581E+00 7.491E+00 3.940E+06 14.1719 1.00000
  1.995E+07 1.995E+07 2.924E+00 1.308E-01 3.048E+00 2.012E+00 5.191E+00 8.116E+00 4.219E+06 14.4022 1.00000
  2.239E+07 2.239E+07 2.938E+00 1.488E-01 3.441E+00 2.292E+00 5.882E+00 8.821E+00 4.507E+06 14.6324 1.00000
  2.512E+07 2.512E+07 2.952E+00 1.691E-01 3.884E+00 2.611E+00 6.664E+00 9.617E+00 4.804E+06 14.8626 1.00000
  2.818E+07 2.819E+07 2.966E+00 1.922E-01 4.382E+00 2.975E+00 7.549E+00 1.052E+01 5.109E+06 15.0929 1.00000
  3.162E+07 3.162E+07 2.980E+00 2.183E-01 4.942E+00 3.390E+00 8.550E+00 1.153E+01 5.421E+06 15.3231 1.00000
  3.548E+07 3.548E+07 2.994E+00 2.479E-01 5.571E+00 3.864E+00 9.683E+00 1.268E+01 5.741E+06 15.5534 1.00000
  3.981E+07 3.981E+07 3.008E+00 2.815E-01 6.278E+00 4.405E+00 1.096E+01 1.397E+01 6.067E+06 15.7836 1.00000
  4.467E+07 4.467E+07 3.022E+00 3.195E-01 7.073E+00 5.022E+00 1.242E+01 1.544E+01 6.398E+06 16.0139 1.00000
  5.012E+07 5.012E+07 3.035E+00 3.625E-01 7.967E+00 5.727E+00 1.406E+01 1.709E+01 6.734E+06 16.2441 1.00000
  5.623E+07 5.624E+07 3.049E+00 4.112E-01 8.970E+00 6.532E+00 1.591E+01 1.896E+01 7.074E+06 16.4744 1.00000
  6.310E+07 6.310E+07 3.063E+00 4.663E-01 1.010E+01 7.450E+00 1.801E+01 2.108E+01 7.418E+06 16.7046 1.00000
  7.079E+07 7.080E+07 3.077E+00 5.287E-01 1.136E+01 8.499E+00 2.039E+01 2.347E+01 7.764E+06 16.9349 1.00000
  7.943E+07 7.943E+07 3.090E+00 5.992E-01 1.279E+01 9.696E+00 2.308E+01 2.617E+01 8.113E+06 17.1651 1.00000
  8.913E+07 8.913E+07 3.104E+00 6.790E-01 1.438E+01 1.106E+01 2.613E+01 2.923E+01 8.464E+06 17.3954 1.00000
  1.000E+08 1.000E+08 3.118E+00 7.691E-01 1.618E+01 1.263E+01 2.957E+01 3.269E+01 8.817E+06 17.6256 1.00000
  1.122E+08 1.122E+08 3.132E+00 8.709E-01 1.819E+01 1.441E+01 3.347E+01 3.660E+01 9.170E+06 17.8559 1.00000
  1.259E+08 1.259E+08 3.146E+00 9.859E-01 2.045E+01 1.644E+01 3.788E+01 4.103E+01 9.524E+06 18.0861 1.00000
  1.413E+08 1.413E+08 3.160E+00 1.116E+00 2.299E+01 1.877E+01 4.288E+01 4.604E+01 9.878E+06 18.3164 1.00000
  1.585E+08 1.585E+08 3.174E+00 1.262E+00 2.584E+01 2.143E+01 4.853E+01 5.170E+01 1.023E+07 18.5467 1.00000
  1.778E+08 1.778E+08 3.188E+00 1.428E+00 2.904E+01 2.446E+01 5.493E+01 5.812E+01 1.059E+07 18.7769 1.00000
  1.995E+08 1.995E+08 3.202E+00 1.615E+00 3.263E+01 2.793E+01 6.217E+01 6.538E+01 1.094E+07 19.0072 1.00000
  2.239E+08 2.239E+08 3.216E+00 1.826E+00 3.666E+01 3.189E+01 7.038E+01 7.359E+01 1.129E+07 19.2374 1.00000
  2.512E+08 2.512E+08 3.230E+00 2.063E+00 4.118E+01 3.642E+01 7.966E+01 8.289E+01 1.164E+07 19.4677 1.00000
  2.818E+08 2.818E+08 3.244E+00 2.331E+00 4.626E+01 4.159E+01 9.018E+01 9.342E+01 1.199E+07 19.6979 1.00000
  3.162E+08 3.162E+08 3.258E+00 2.633E+00 5.196E+01 4.749E+01 1.021E+02 1.053E+02 1.234E+07 19.9282 1.00000
  3.548E+08 3.548E+08 3.273E+00 2.974E+00 5.835E+01 5.424E+01 1.156E+02 1.188E+02 1.268E+07 20.1585 1.00000
  3.981E+08 3.981E+08 3.287E+00 3.358E+00 6.553E+01 6.196E+01 1.308E+02 1.341E+02 1.302E+07 20.3887 1.00000
  4.467E+08 4.467E+08 3.302E+00 3.790E+00 7.359E+01 7.077E+01 1.482E+02 1.515E+02 1.337E+07 20.6190 1.00000
  5.012E+08 5.012E+08 3.316E+00 4.276E+00 8.263E+01 8.085E+01 1.678E+02 1.711E+02 1.371E+07 20.8492 1.00000
  5.623E+08 5.623E+08 3.331E+00 4.824E+00 9.277E+01 9.236E+01 1.900E+02 1.933E+02 1.404E+07 21.0795 1.00000
  6.310E+08 6.310E+08 3.346E+00 5.441E+00 1.042E+02 1.055E+02 2.151E+02 2.185E+02 1.438E+07 21.3097 1.00000
  7.079E+08 7.079E+08 3.360E+00 6.136E+00 1.169E+02 1.206E+02 2.436E+02 2.470E+02 1.471E+07 21.5400 1.00000
  7.943E+08 7.943E+08 3.375E+00 6.918E+00 1.313E+02 1.378E+02 2.759E+02 2.793E+02 1.504E+07 21.7703 1.00000
  8.913E+08 8.913E+08 3.390E+00 7.797E+00 1.473E+02 1.574E+02 3.126E+02 3.160E+02 1.537E+07 22.0005 1.00000
  1.000E+09 1.000E+09 3.405E+00 8.787E+00 1.654E+02 1.799E+02 3.541E+02 3.575E+02 1.569E+07 22.2308 1.00000
  1.122E+09 1.122E+09 3.420E+00 9.899E+00 1.856E+02 2.056E+02 4.011E+02 4.046E+02 1.601E+07 22.4610 1.00000
  1.259E+09 1.259E+09 3.436E+00 1.115E+01 2.084E+02 2.350E+02 4.545E+02 4.579E+02 1.633E+07 22.6913 1.00000
  1.413E+09 1.413E+09 3.451E+00 1.256E+01 2.339E+02 2.685E+02 5.150E+02 5.184E+02 1.665E+07 22.9215 1.00000
  1.585E+09 1.585E+09 3.466E+00 1.414E+01 2.625E+02 3.070E+02 5.836E+02 5.871E+02 1.696E+07 23.1518 1.00000
  1.778E+09 1.778E+09 3.482E+00 1.592E+01 2.946E+02 3.509E+02 6.614E+02 6.649E+02 1.727E+07 23.3821 1.00000
  1.995E+09 1.995E+09 3.497E+00 1.792E+01 3.306E+02 4.011E+02 7.496E+02 7.531E+02 1.758E+07 23.6123 1.00000
  2.239E+09 2.239E+09 3.513E+00 2.017E+01 3.710E+02 4.585E+02 8.497E+02 8.533E+02 1.788E+07 23.8426 1.00000
  2.512E+09 2.512E+09 3.528E+00 2.269E+01 4.164E+02 5.242E+02 9.633E+02 9.668E+02 1.818E+07 24.0728 1.00000
  2.818E+09 2.818E+09 3.544E+00 2.553E+01 4.673E+02 5.994E+02 1.092E+03 1.096E+03 1.848E+07 24.3031 1.00000
  3.162E+09 3.162E+09 3.560E+00 2.871E+01 5.244E+02 6.853E+02 1.238E+03 1.242E+03 1.878E+07 24.5334 1.00000
  3.548E+09 3.548E+09 3.576E+00 3.230E+01 5.885E+02 7.836E+02 1.404E+03 1.408E+03 1.907E+07 24.7636 1.00000
  3.981E+09 3.981E+09 3.592E+00 3.632E+01 6.603E+02 8.960E+02 1.593E+03 1.596E+03 1.936E+07 24.9939 1.00000
  4.467E+09 4.467E+09 3.608E+00 4.083E+01 7.410E+02 1.025E+03 1.807E+03 1.810E+03 1.964E+07 25.2241 1.00000
  5.012E+09 5.012E+09 3.624E+00 4.591E+01 8.315E+02 1.172E+03 2.049E+03 2.053E+03 1.993E+07 25.4544 1.00000
  5.623E+09 5.623E+09 3.640E+00 5.161E+01 9.331E+02 1.340E+03 2.325E+03 2.329E+03 2.021E+07 25.6846 1.00000
  6.310E+09 6.310E+09 3.657E+00 5.800E+01 1.047E+03 1.533E+03 2.638E+03 2.642E+03 2.048E+07 25.9149 1.00000
  7.079E+09 7.079E+09 3.673E+00 6.519E+01 1.175E+03 1.753E+03 2.993E+03 2.997E+03 2.076E+07 26.1452 1.00000
  7.943E+09 7.943E+09 3.690E+00 7.325E+01 1.318E+03 2.006E+03 3.397E+03 3.401E+03 2.103E+07 26.3754 1.00000
  8.913E+09 8.913E+09 3.707E+00 8.231E+01 1.479E+03 2.294E+03 3.856E+03 3.859E+03 2.130E+07 26.6057 1.00000
  1.000E+10 1.000E+10 3.723E+00 9.248E+01 1.660E+03 2.625E+03 4.377E+03 4.381E+03 2.156E+07 26.8359 1.00000
  1.122E+10 1.122E+10 3.740E+00 1.039E+02 1.862E+03 3.003E+03 4.969E+03 4.973E+03 2.182E+07 27.0662 1.00000
  1.259E+10 1.259E+10 3.757E+00 1.167E+02 2.090E+03 3.435E+03 5.642E+03 5.646E+03 2.208E+07 27.2965 1.00000
  1.413E+10 1.413E+10 3.774E+00 1.311E+02 2.345E+03 3.931E+03 6.406E+03 6.410E+03 2.234E+07 27.5267 1.00000
  1.585E+10 1.585E+10 3.791E+00 1.472E+02 2.631E+03 4.498E+03 7.276E+03 7.279E+03 2.259E+07 27.7570 1.00000
  1.778E+10 1.778E+10 3.809E+00 1.654E+02 2.952E+03 5.146E+03 8.264E+03 8.268E+03 2.284E+07 27.9872 1.00000
  1.995E+10 1.995E+10 3.826E+00 1.857E+02 3.312E+03 5.889E+03 9.387E+03 9.391E+03 2.309E+07 28.2175 1.00000
  2.239E+10 2.239E+10 3.843E+00 2.085E+02 3.716E+03 6.740E+03 1.066E+04 1.067E+04 2.333E+07 28.4478 1.00000
  2.512E+10 2.512E+10 3.861E+00 2.341E+02 4.170E+03 7.714E+03 1.212E+04 1.212E+04 2.357E+07 28.6780 1.00000
  2.818E+10 2.818E+10 3.879E+00 2.629E+02 4.679E+03 8.828E+03 1.377E+04 1.377E+04 2.381E+07 28.9083 1.00000
  3.162E+10 3.162E+10 3.896E+00 2.952E+02 5.250E+03 1.010E+04 1.565E+04 1.565E+04 2.405E+07 29.1385 1.00000
  3.548E+10 3.548E+10 3.914E+00 3.314E+02 5.890E+03 1.157E+04 1.779E+04 1.779E+04 2.428E+07 29.3688 1.00000
  3.981E+10 3.981E+10 3.932E+00 3.720E+02 6.609E+03 1.324E+04 2.022E+04 2.023E+04 2.451E+07 29.5990 1.00000
  4.467E+10 4.467E+10 3.950E+00 4.176E+02 7.415E+03 1.516E+04 2.299E+04 2.299E+04 2.473E+07 29.8293 1.00000
  5.012E+10 5.012E+10 3.968E+00 4.688E+02 8.320E+03 1.735E+04 2.614E+04 2.614E+04 2.495E+07 30.0596 1.00000
  5.623E+10 5.623E+10 3.986E+00 5.263E+02 9.335E+03 1.987E+04 2.973E+04 2.973E+04 2.517E+07 30.2898 1.00000
  6.310E+10 6.310E+10 4.005E+00 5.907E+02 1.047E+04 2.275E+04 3.381E+04 3.381E+04 2.539E+07 30.5201 1.00000
  7.079E+10 7.079E+10 4.023E+00 6.630E+02 1.175E+04 2.604E+04 3.846E+04 3.846E+04 2.561E+07 30.7503 1.00000
  7.943E+10 7.943E+10 4.042E+00 7.442E+02 1.319E+04 2.982E+04 4.375E+04 4.376E+04 2.582E+07 30.9806 1.00000
  8.913E+10 8.913E+10 4.060E+00 8.353E+02 1.479E+04 3.415E+04 4.978E+04 4.978E+04 2.602E+07 31.2109 1.00000
  1.000E+11 1.000E+11 4.079E+00 9.375E+02 1.660E+04 3.911E+04 5.664E+04 5.665E+04 2.623E+07 31.4411 1.00000
  1.122E+11 1.122E+11 4.098E+00 1.052E+03 1.862E+04 4.479E+04 6.446E+04 6.447E+04 2.643E+07 31.6714 1.00000
  1.259E+11 1.259E+11 4.117E+00 1.181E+03 2.090E+04 5.130E+04 7.337E+04 7.338E+04 2.663E+07 31.9016 1.00000
  1.413E+11 1.413E+11 4.136E+00 1.325E+03 2.345E+04 5.875E+04 8.352E+04 8.353E+04 2.683E+07 32.1319 1.00000
  1.585E+11 1.585E+11 4.155E+00 1.487E+03 2.631E+04 6.730E+04 9.509E+04 9.509E+04 2.702E+07 32.3621 1.00000
  1.778E+11 1.778E+11 4.175E+00 1.669E+03 2.951E+04 7.709E+04 1.083E+05 1.083E+05 2.721E+07 32.5924 1.00000
  1.995E+11 1.995E+11 4.194E+00 1.873E+03 3.312E+04 8.831E+04 1.233E+05 1.233E+05 2.740E+07 32.8227 1.00000
  2.239E+11 2.239E+11 4.213E+00 2.102E+03 3.716E+04 1.012E+05 1.404E+05 1.404E+05 2.759E+07 33.0529 1.00000
  2.512E+11 2.512E+11 4.233E+00 2.359E+03 4.169E+04 1.159E+05 1.599E+05 1.599E+05 2.777E+07 33.2832 1.00000
  2.818E+11 2.818E+11 4.253E+00 2.647E+03 4.677E+04 1.328E+05 1.822E+05 1.822E+05 2.795E+07 33.5134 1.00000
  3.162E+11 3.162E+11 4.273E+00 2.970E+03 5.248E+04 1.521E+05 2.076E+05 2.076E+05 2.813E+07 33.7437 1.00000
  3.548E+11 3.548E+11 4.293E+00 3.333E+03 5.888E+04 1.743E+05 2.365E+05 2.366E+05 2.830E+07 33.9740 1.00000
  3.981E+11 3.981E+11 4.313E+00 3.740E+03 6.606E+04 1.998E+05 2.696E+05 2.696E+05 2.847E+07 34.2042 1.00000
  4.467E+11 4.467E+11 4.333E+00 4.196E+03 7.412E+04 2.289E+05 3.072E+05 3.072E+05 2.864E+07 34.4345 1.00000
  5.012E+11 5.012E+11 4.353E+00 4.709E+03 8.316E+04 2.624E+05 3.502E+05 3.502E+05 2.881E+07 34.6647 1.00000
  5.623E+11 5.623E+11 4.374E+00 5.284E+03 9.331E+04 3.007E+05 3.993E+05 3.993E+05 2.897E+07 34.8950 1.00000
  6.310E+11 6.310E+11 4.394E+00 5.929E+03 1.047E+05 3.446E+05 4.552E+05 4.552E+05 2.913E+07 35.1252 1.00000
  7.079E+11 7.079E+11 4.415E+00 6.653E+03 1.175E+05 3.950E+05 5.191E+05 5.191E+05 2.929E+07 35.3555 1.00000
  7.943E+11 7.943E+11 4.435E+00 7.465E+03 1.318E+05 4.528E+05 5.920E+05 5.920E+05 2.945E+07 35.5858 1.00000
  8.913E+11 8.913E+11 4.456E+00 8.376E+03 1.479E+05 5.190E+05 6.753E+05 6.753E+05 2.960E+07 35.8160 1.00000
  1.000E+12 1.000E+12 4.477E+00 9.399E+03 1.659E+05 5.950E+05 7.703E+05 7.703E+05 2.975E+07 36.0463 1.00000
  1.122E+12 1.122E+12 4.498E+00 1.055E+04 1.861E+05 6.821E+05 8.788E+05 8.788E+05 2.990E+07 36.2765 1.00000
  1.259E+12 1.259E+12 4.520E+00 1.183E+04 2.088E+05 7.820E+05 1.003E+06 1.003E+06 3.005E+07 36.5068 1.00000
  1.413E+12 1.413E+12 4.541E+00 1.328E+04 2.343E+05 8.966E+05 1.144E+06 1.144E+06 3.019E+07 36.7371 1.00000
  1.585E+12 1.585E+12 4.562E+00 1.490E+04 2.629E+05 1.028E+06 1.306E+06 1.306E+06 3.033E+07 36.9673 1.00000
  1.778E+12 1.778E+12 4.584E+00 1.672E+04 2.950E+05 1.179E+06 1.491E+06 1.491E+06 3.047E+07 37.1976 1.00000
  1.995E+12 1.995E+12 4.606E+00 1.876E+04 3.309E+05 1.352E+06 1.701E+06 1.702E+06 3.061E+07 37.4278 1.00000
  2.239E+12 2.239E+12 4.627E+00 2.105E+04 3.713E+05 1.550E+06 1.943E+06 1.943E+06 3.074E+07 37.6581 1.00000
  2.512E+12 2.512E+12 4.649E+00 2.361E+04 4.166E+05 1.778E+06 2.218E+06 2.218E+06 3.087E+07 37.8883 1.00000
  2.818E+12 2.818E+12 4.671E+00 2.650E+04 4.674E+05 2.039E+06 2.533E+06 2.533E+06 3.100E+07 38.1186 1.00000
  3.162E+12 3.162E+12 4.694E+00 2.973E+04 5.244E+05 2.339E+06 2.893E+06 2.893E+06 3.113E+07 38.3489 1.00000
  3.548E+12 3.548E+12 4.716E+00 3.336E+04 5.884E+05 2.682E+06 3.304E+06 3.304E+06 3.126E+07 38.5791 1.00000
  3.981E+12 3.981E+12 4.738E+00 3.743E+04 6.601E+05 3.077E+06 3.774E+06 3.774E+06 3.138E+07 38.8094 1.00000
  4.467E+12 4.467E+12 4.761E+00 4.200E+04 7.406E+05 3.530E+06 4.312E+06 4.312E+06 3.150E+07 39.0396 1.00000
  5.012E+12 5.012E+12 4.784E+00 4.712E+04 8.310E+05 4.049E+06 4.927E+06 4.927E+06 3.162E+07 39.2699 1.00000
  5.623E+12 5.623E+12 4.806E+00 5.287E+04 9.323E+05 4.645E+06 5.630E+06 5.630E+06 3.173E+07 39.5002 1.00000
  6.310E+12 6.310E+12 4.829E+00 5.932E+04 1.046E+06 5.329E+06 6.435E+06 6.435E+06 3.185E+07 39.7304 1.00000
  7.079E+12 7.079E+12 4.852E+00 6.656E+04 1.174E+06 6.115E+06 7.355E+06 7.355E+06 3.196E+07 39.9607 1.00000
  7.943E+12 7.943E+12 4.875E+00 7.468E+04 1.317E+06 7.016E+06 8.408E+06 8.408E+06 3.207E+07 40.1909 1.00000
  8.913E+12 8.913E+12 4.899E+00 8.380E+04 1.477E+06 8.051E+06 9.612E+06 9.612E+06 3.218E+07 40.4212 1.00000
  1.000E+13 1.000E+13 4.922E+00 9.402E+04 1.658E+06 9.238E+06 1.099E+07 1.099E+07 3.229E+07 40.6515 1.00000
  1.122E+13 1.122E+13 4.946E+00 1.055E+05 1.860E+06 1.060E+07 1.257E+07 1.257E+07 3.239E+07 40.8817 1.00000
  1.259E+13 1.259E+13 4.969E+00 1.184E+05 2.087E+06 1.217E+07 1.437E+07 1.437E+07 3.249E+07 41.1120 1.00000
  1.413E+13 1.413E+13 4.993E+00 1.328E+05 2.341E+06 1.396E+07 1.644E+07 1.644E+07 3.259E+07 41.3422 1.00000
  1.585E+13 1.585E+13 5.017E+00 1.490E+05 2.626E+06 1.603E+07 1.880E+07 1.880E+07 3.269E+07 41.5725 1.00000
  1.778E+13 1.778E+13 5.041E+00 1.672E+05 2.947E+06 1.840E+07 2.151E+07 2.151E+07 3.279E+07 41.8027 1.00000
  1.995E+13 1.995E+13 5.065E+00 1.876E+05 3.306E+06 2.112E+07 2.461E+07 2.461E+07 3.288E+07 42.0330 1.00000
  2.239E+13 2.239E+13 5.090E+00 2.105E+05 3.709E+06 2.424E+07 2.816E+07 2.816E+07 3.297E+07 42.2633 1.00000
  2.512E+13 2.512E+13 5.114E+00 2.362E+05 4.162E+06 2.782E+07 3.222E+07 3.222E+07 3.306E+07 42.4935 1.00000
  2.818E+13 2.818E+13 5.139E+00 2.650E+05 4.669E+06 3.194E+07 3.688E+07 3.688E+07 3.315E+07 42.7238 1.00000
  3.162E+13 3.162E+13 5.163E+00 2.973E+05 5.239E+06 3.667E+07 4.221E+07 4.221E+07 3.324E+07 42.9540 1.00000
  3.548E+13 3.548E+13 5.188E+00 3.336E+05 5.878E+06 4.211E+07 4.832E+07 4.832E+07 3.333E+07 43.1843 1.00000
  3.981E+13 3.981E+13 5.213E+00 3.743E+05 6.595E+06 4.834E+07 5.531E+07 5.531E+07 3.341E+07 43.4146 1.00000
  4.467E+13 4.467E+13 5.238E+00 4.200E+05 7.399E+06 5.551E+07 6.333E+07 6.333E+07 3.349E+07 43.6448 1.00000
  5.012E+13 5.012E+13 5.264E+00 4.712E+05 8.301E+06 6.374E+07 7.252E+07 7.252E+07 3.357E+07 43.8751 1.00000
  5.623E+13 5.623E+13 5.289E+00 5.287E+05 9.314E+06 7.320E+07 8.304E+07 8.304E+07 3.365E+07 44.1053 1.00000
  6.310E+13 6.310E+13 5.314E+00 5.933E+05 1.045E+07 8.406E+07 9.510E+07 9.510E+07 3.373E+07 44.3356 1.00000
  7.079E+13 7.079E+13 5.340E+00 6.656E+05 1.172E+07 9.654E+07 1.089E+08 1.089E+08 3.381E+07 44.5658 1.00000
  7.943E+13 7.943E+13 5.366E+00 7.469E+05 1.315E+07 1.109E+08 1.248E+08 1.248E+08 3.388E+07 44.7961 1.00000
  8.913E+13 8.913E+13 5.392E+00 8.380E+05 1.476E+07 1.273E+08 1.429E+08 1.429E+08 3.395E+07 45.0264 1.00000
