 Incident particle is a Tau with M = 1776.82000 MeV
 Index = 0: Polyvinylacetate
      Absorber with <Z/A> = 0.53427
 Sternheimer coef:  a     k=m_s   x_0    x_1    I[eV]   Cbar  delta0
                 0.1144  3.3762  0.1769  2.6747   73.7  3.3309 0.00

 *** Table generated with PUMAS v1.00 ***

      T         p     Ionization  brems     pair     photonuc  Radloss    dE/dx   CSDA Range  delta   beta
    [MeV]    [MeV/c]  -----------------------[MeV cm^2/g]------------------------  [g/cm^2]
  1.000E+05 1.018E+05 2.343E+00 1.288E-04 2.002E-03 8.386E-03 1.052E-02 2.353E+00 2.125E+04  4.8500 0.99985
  1.122E+05 1.140E+05 2.363E+00 1.488E-04 2.419E-03 9.474E-03 1.204E-02 2.375E+00 2.641E+04  5.0620 0.99988
  1.259E+05 1.277E+05 2.383E+00 1.718E-04 2.912E-03 1.065E-02 1.373E-02 2.397E+00 3.215E+04  5.2763 0.99990
  1.413E+05 1.430E+05 2.403E+00 1.982E-04 3.493E-03 1.197E-02 1.566E-02 2.419E+00 3.853E+04  5.4925 0.99992
  1.585E+05 1.603E+05 2.423E+00 2.286E-04 4.175E-03 1.344E-02 1.785E-02 2.441E+00 4.562E+04  5.7107 0.99994
  1.778E+05 1.796E+05 2.443E+00 2.636E-04 4.977E-03 1.510E-02 2.034E-02 2.464E+00 5.351E+04  5.9305 0.99995
  1.995E+05 2.013E+05 2.463E+00 3.038E-04 5.916E-03 1.698E-02 2.320E-02 2.487E+00 6.227E+04  6.1518 0.99996
  2.239E+05 2.256E+05 2.483E+00 3.499E-04 7.015E-03 1.904E-02 2.641E-02 2.510E+00 7.202E+04  6.3746 0.99997
  2.512E+05 2.530E+05 2.503E+00 4.029E-04 8.296E-03 2.135E-02 3.005E-02 2.533E+00 8.285E+04  6.5986 0.99998
  2.818E+05 2.836E+05 2.523E+00 4.637E-04 9.789E-03 2.396E-02 3.421E-02 2.557E+00 9.490E+04  6.8237 0.99998
  3.162E+05 3.180E+05 2.542E+00 5.335E-04 1.153E-02 2.690E-02 3.896E-02 2.581E+00 1.083E+05  7.0498 0.99998
  3.548E+05 3.566E+05 2.562E+00 6.135E-04 1.354E-02 3.021E-02 4.436E-02 2.606E+00 1.232E+05  7.2767 0.99999
  3.981E+05 3.999E+05 2.582E+00 7.052E-04 1.588E-02 3.390E-02 5.048E-02 2.632E+00 1.397E+05  7.5043 0.99999
  4.467E+05 4.485E+05 2.601E+00 8.104E-04 1.858E-02 3.804E-02 5.743E-02 2.658E+00 1.581E+05  7.7325 0.99999
  5.012E+05 5.030E+05 2.620E+00 9.309E-04 2.171E-02 4.270E-02 6.534E-02 2.686E+00 1.784E+05  7.9612 0.99999
  5.623E+05 5.641E+05 2.640E+00 1.069E-03 2.532E-02 4.776E-02 7.415E-02 2.714E+00 2.011E+05  8.1903 1.00000
  6.310E+05 6.327E+05 2.659E+00 1.227E-03 2.948E-02 5.346E-02 8.417E-02 2.743E+00 2.262E+05  8.4196 1.00000
  7.079E+05 7.097E+05 2.678E+00 1.408E-03 3.428E-02 5.989E-02 9.557E-02 2.774E+00 2.542E+05  8.6492 1.00000
  7.943E+05 7.961E+05 2.697E+00 1.615E-03 3.979E-02 6.716E-02 1.086E-01 2.806E+00 2.851E+05  8.8789 1.00000
  8.913E+05 8.930E+05 2.716E+00 1.852E-03 4.612E-02 7.537E-02 1.233E-01 2.840E+00 3.195E+05  9.1087 1.00000
  1.000E+06 1.002E+06 2.735E+00 2.124E-03 5.339E-02 8.467E-02 1.402E-01 2.876E+00 3.575E+05  9.3385 1.00000
  1.122E+06 1.124E+06 2.754E+00 2.434E-03 6.171E-02 9.519E-02 1.593E-01 2.914E+00 3.997E+05  9.5684 1.00000
  1.259E+06 1.261E+06 2.773E+00 2.789E-03 7.125E-02 1.071E-01 1.811E-01 2.954E+00 4.463E+05  9.7983 1.00000
  1.413E+06 1.414E+06 2.792E+00 3.195E-03 8.216E-02 1.206E-01 2.060E-01 2.998E+00 4.980E+05 10.0282 1.00000
  1.585E+06 1.587E+06 2.810E+00 3.658E-03 9.462E-02 1.359E-01 2.342E-01 3.044E+00 5.550E+05 10.2582 1.00000
  1.778E+06 1.780E+06 2.829E+00 4.189E-03 1.088E-01 1.533E-01 2.664E-01 3.095E+00 6.180E+05 10.4882 1.00000
  1.995E+06 1.997E+06 2.847E+00 4.794E-03 1.251E-01 1.731E-01 3.029E-01 3.150E+00 6.875E+05 10.7183 1.00000
  2.239E+06 2.240E+06 2.865E+00 5.486E-03 1.435E-01 1.955E-01 3.445E-01 3.209E+00 7.641E+05 10.9484 1.00000
  2.512E+06 2.514E+06 2.883E+00 6.276E-03 1.646E-01 2.210E-01 3.918E-01 3.275E+00 8.484E+05 11.1784 1.00000
  2.818E+06 2.820E+06 2.901E+00 7.178E-03 1.885E-01 2.499E-01 4.456E-01 3.346E+00 9.409E+05 11.4085 1.00000
  3.162E+06 3.164E+06 2.918E+00 8.208E-03 2.157E-01 2.828E-01 5.067E-01 3.425E+00 1.043E+06 11.6387 1.00000
  3.548E+06 3.550E+06 2.936E+00 9.384E-03 2.466E-01 3.203E-01 5.762E-01 3.512E+00 1.154E+06 11.8688 1.00000
  3.981E+06 3.983E+06 2.953E+00 1.072E-02 2.816E-01 3.629E-01 6.552E-01 3.608E+00 1.275E+06 12.0990 1.00000
  4.467E+06 4.469E+06 2.970E+00 1.225E-02 3.213E-01 4.114E-01 7.450E-01 3.715E+00 1.408E+06 12.3291 1.00000
  5.012E+06 5.014E+06 2.987E+00 1.400E-02 3.663E-01 4.666E-01 8.469E-01 3.834E+00 1.553E+06 12.5593 1.00000
  5.623E+06 5.625E+06 3.004E+00 1.599E-02 4.173E-01 5.295E-01 9.628E-01 3.967E+00 1.709E+06 12.7895 1.00000
  6.310E+06 6.311E+06 3.021E+00 1.825E-02 4.749E-01 6.011E-01 1.094E+00 4.115E+00 1.879E+06 13.0197 1.00000
  7.079E+06 7.081E+06 3.037E+00 2.084E-02 5.401E-01 6.827E-01 1.244E+00 4.281E+00 2.063E+06 13.2499 1.00000
  7.943E+06 7.945E+06 3.053E+00 2.378E-02 6.138E-01 7.757E-01 1.413E+00 4.467E+00 2.260E+06 13.4801 1.00000
  8.913E+06 8.914E+06 3.070E+00 2.713E-02 6.971E-01 8.816E-01 1.606E+00 4.675E+00 2.472E+06 13.7103 1.00000
  1.000E+07 1.000E+07 3.086E+00 3.094E-02 7.911E-01 1.002E+00 1.824E+00 4.910E+00 2.699E+06 13.9405 1.00000
  1.122E+07 1.122E+07 3.101E+00 3.529E-02 8.972E-01 1.140E+00 2.073E+00 5.174E+00 2.942E+06 14.1707 1.00000
  1.259E+07 1.259E+07 3.117E+00 4.023E-02 1.017E+00 1.297E+00 2.354E+00 5.471E+00 3.199E+06 14.4009 1.00000
  1.413E+07 1.413E+07 3.133E+00 4.585E-02 1.152E+00 1.476E+00 2.674E+00 5.806E+00 3.472E+06 14.6312 1.00000
  1.585E+07 1.585E+07 3.148E+00 5.224E-02 1.304E+00 1.680E+00 3.036E+00 6.185E+00 3.759E+06 14.8614 1.00000
  1.778E+07 1.778E+07 3.163E+00 5.950E-02 1.476E+00 1.913E+00 3.448E+00 6.611E+00 4.062E+06 15.0916 1.00000
  1.995E+07 1.995E+07 3.179E+00 6.776E-02 1.669E+00 2.179E+00 3.915E+00 7.094E+00 4.379E+06 15.3219 1.00000
  2.239E+07 2.239E+07 3.194E+00 7.714E-02 1.886E+00 2.482E+00 4.445E+00 7.639E+00 4.710E+06 15.5521 1.00000
  2.512E+07 2.512E+07 3.209E+00 8.780E-02 2.131E+00 2.827E+00 5.046E+00 8.255E+00 5.054E+06 15.7823 1.00000
  2.818E+07 2.819E+07 3.224E+00 9.990E-02 2.406E+00 3.222E+00 5.728E+00 8.952E+00 5.411E+06 16.0126 1.00000
  3.162E+07 3.162E+07 3.239E+00 1.136E-01 2.716E+00 3.672E+00 6.502E+00 9.741E+00 5.780E+06 16.2428 1.00000
  3.548E+07 3.548E+07 3.254E+00 1.292E-01 3.065E+00 4.186E+00 7.380E+00 1.063E+01 6.159E+06 16.4731 1.00000
  3.981E+07 3.981E+07 3.269E+00 1.469E-01 3.457E+00 4.772E+00 8.376E+00 1.164E+01 6.549E+06 16.7033 1.00000
  4.467E+07 4.467E+07 3.284E+00 1.670E-01 3.898E+00 5.442E+00 9.506E+00 1.279E+01 6.947E+06 16.9336 1.00000
  5.012E+07 5.012E+07 3.298E+00 1.897E-01 4.393E+00 6.206E+00 1.079E+01 1.409E+01 7.354E+06 17.1638 1.00000
  5.623E+07 5.624E+07 3.313E+00 2.154E-01 4.950E+00 7.078E+00 1.224E+01 1.556E+01 7.767E+06 17.3941 1.00000
  6.310E+07 6.310E+07 3.328E+00 2.447E-01 5.576E+00 8.074E+00 1.389E+01 1.722E+01 8.187E+06 17.6243 1.00000
  7.079E+07 7.080E+07 3.343E+00 2.777E-01 6.279E+00 9.211E+00 1.577E+01 1.911E+01 8.612E+06 17.8546 1.00000
  7.943E+07 7.943E+07 3.358E+00 3.152E-01 7.069E+00 1.051E+01 1.789E+01 2.125E+01 9.041E+06 18.0848 1.00000
  8.913E+07 8.913E+07 3.373E+00 3.576E-01 7.956E+00 1.199E+01 2.030E+01 2.368E+01 9.474E+06 18.3151 1.00000
  1.000E+08 1.000E+08 3.388E+00 4.056E-01 8.952E+00 1.368E+01 2.304E+01 2.643E+01 9.909E+06 18.5453 1.00000
  1.122E+08 1.122E+08 3.403E+00 4.599E-01 1.007E+01 1.562E+01 2.615E+01 2.955E+01 1.035E+07 18.7756 1.00000
  1.259E+08 1.259E+08 3.418E+00 5.213E-01 1.133E+01 1.783E+01 2.968E+01 3.309E+01 1.079E+07 19.0058 1.00000
  1.413E+08 1.413E+08 3.433E+00 5.907E-01 1.274E+01 2.035E+01 3.368E+01 3.711E+01 1.122E+07 19.2361 1.00000
  1.585E+08 1.585E+08 3.448E+00 6.693E-01 1.432E+01 2.323E+01 3.822E+01 4.167E+01 1.166E+07 19.4664 1.00000
  1.778E+08 1.778E+08 3.463E+00 7.580E-01 1.610E+01 2.652E+01 4.338E+01 4.684E+01 1.210E+07 19.6966 1.00000
  1.995E+08 1.995E+08 3.478E+00 8.583E-01 1.810E+01 3.028E+01 4.924E+01 5.271E+01 1.254E+07 19.9269 1.00000
  2.239E+08 2.239E+08 3.493E+00 9.715E-01 2.034E+01 3.457E+01 5.589E+01 5.938E+01 1.298E+07 20.1571 1.00000
  2.512E+08 2.512E+08 3.508E+00 1.099E+00 2.286E+01 3.948E+01 6.344E+01 6.694E+01 1.341E+07 20.3874 1.00000
  2.818E+08 2.818E+08 3.524E+00 1.244E+00 2.568E+01 4.508E+01 7.201E+01 7.553E+01 1.384E+07 20.6176 1.00000
  3.162E+08 3.162E+08 3.539E+00 1.407E+00 2.885E+01 5.149E+01 8.175E+01 8.529E+01 1.427E+07 20.8479 1.00000
  3.548E+08 3.548E+08 3.555E+00 1.590E+00 3.241E+01 5.881E+01 9.281E+01 9.637E+01 1.470E+07 21.0782 1.00000
  3.981E+08 3.981E+08 3.570E+00 1.798E+00 3.641E+01 6.717E+01 1.054E+02 1.089E+02 1.512E+07 21.3084 1.00000
  4.467E+08 4.467E+08 3.586E+00 2.032E+00 4.089E+01 7.673E+01 1.196E+02 1.232E+02 1.554E+07 21.5387 1.00000
  5.012E+08 5.012E+08 3.602E+00 2.295E+00 4.592E+01 8.765E+01 1.359E+02 1.395E+02 1.596E+07 21.7689 1.00000
  5.623E+08 5.623E+08 3.617E+00 2.592E+00 5.156E+01 1.001E+02 1.543E+02 1.579E+02 1.637E+07 21.9992 1.00000
  6.310E+08 6.310E+08 3.633E+00 2.927E+00 5.790E+01 1.144E+02 1.752E+02 1.789E+02 1.678E+07 22.2294 1.00000
  7.079E+08 7.079E+08 3.649E+00 3.304E+00 6.501E+01 1.307E+02 1.990E+02 2.027E+02 1.718E+07 22.4597 1.00000
  7.943E+08 7.943E+08 3.665E+00 3.729E+00 7.298E+01 1.494E+02 2.261E+02 2.297E+02 1.758E+07 22.6900 1.00000
  8.913E+08 8.913E+08 3.681E+00 4.208E+00 8.194E+01 1.707E+02 2.568E+02 2.605E+02 1.798E+07 22.9202 1.00000
  1.000E+09 1.000E+09 3.698E+00 4.747E+00 9.198E+01 1.950E+02 2.918E+02 2.955E+02 1.837E+07 23.1505 1.00000
  1.122E+09 1.122E+09 3.714E+00 5.354E+00 1.033E+02 2.229E+02 3.315E+02 3.352E+02 1.876E+07 23.3807 1.00000
  1.259E+09 1.259E+09 3.730E+00 6.037E+00 1.159E+02 2.548E+02 3.767E+02 3.804E+02 1.915E+07 23.6110 1.00000
  1.413E+09 1.413E+09 3.747E+00 6.806E+00 1.301E+02 2.912E+02 4.281E+02 4.318E+02 1.953E+07 23.8412 1.00000
  1.585E+09 1.585E+09 3.763E+00 7.671E+00 1.460E+02 3.328E+02 4.865E+02 4.903E+02 1.990E+07 24.0715 1.00000
  1.778E+09 1.778E+09 3.780E+00 8.644E+00 1.639E+02 3.804E+02 5.530E+02 5.568E+02 2.027E+07 24.3018 1.00000
  1.995E+09 1.995E+09 3.797E+00 9.738E+00 1.839E+02 4.349E+02 6.286E+02 6.324E+02 2.064E+07 24.5320 1.00000
  2.239E+09 2.239E+09 3.813E+00 1.097E+01 2.065E+02 4.972E+02 7.146E+02 7.184E+02 2.100E+07 24.7623 1.00000
  2.512E+09 2.512E+09 3.830E+00 1.235E+01 2.317E+02 5.684E+02 8.124E+02 8.163E+02 2.136E+07 24.9925 1.00000
  2.818E+09 2.818E+09 3.847E+00 1.391E+01 2.600E+02 6.498E+02 9.238E+02 9.276E+02 2.171E+07 25.2228 1.00000
  3.162E+09 3.162E+09 3.864E+00 1.566E+01 2.918E+02 7.430E+02 1.050E+03 1.054E+03 2.206E+07 25.4531 1.00000
  3.548E+09 3.548E+09 3.882E+00 1.763E+01 3.275E+02 8.496E+02 1.195E+03 1.199E+03 2.240E+07 25.6833 1.00000
  3.981E+09 3.981E+09 3.899E+00 1.983E+01 3.675E+02 9.715E+02 1.359E+03 1.363E+03 2.274E+07 25.9136 1.00000
  4.467E+09 4.467E+09 3.916E+00 2.232E+01 4.124E+02 1.111E+03 1.546E+03 1.550E+03 2.308E+07 26.1438 1.00000
  5.012E+09 5.012E+09 3.934E+00 2.511E+01 4.628E+02 1.271E+03 1.758E+03 1.762E+03 2.341E+07 26.3741 1.00000
  5.623E+09 5.623E+09 3.951E+00 2.824E+01 5.193E+02 1.453E+03 2.001E+03 2.005E+03 2.374E+07 26.6043 1.00000
  6.310E+09 6.310E+09 3.969E+00 3.177E+01 5.827E+02 1.662E+03 2.277E+03 2.281E+03 2.406E+07 26.8346 1.00000
  7.079E+09 7.079E+09 3.987E+00 3.572E+01 6.539E+02 1.901E+03 2.591E+03 2.595E+03 2.437E+07 27.0649 1.00000
  7.943E+09 7.943E+09 4.005E+00 4.017E+01 7.337E+02 2.175E+03 2.948E+03 2.952E+03 2.469E+07 27.2951 1.00000
  8.913E+09 8.913E+09 4.023E+00 4.516E+01 8.233E+02 2.488E+03 3.356E+03 3.360E+03 2.499E+07 27.5254 1.00000
  1.000E+10 1.000E+10 4.041E+00 5.076E+01 9.239E+02 2.846E+03 3.820E+03 3.824E+03 2.530E+07 27.7556 1.00000
  1.122E+10 1.122E+10 4.059E+00 5.705E+01 1.037E+03 3.256E+03 4.349E+03 4.353E+03 2.560E+07 27.9859 1.00000
  1.259E+10 1.259E+10 4.077E+00 6.412E+01 1.163E+03 3.725E+03 4.952E+03 4.956E+03 2.589E+07 28.2162 1.00000
  1.413E+10 1.413E+10 4.096E+00 7.206E+01 1.305E+03 4.262E+03 5.639E+03 5.643E+03 2.619E+07 28.4464 1.00000
  1.585E+10 1.585E+10 4.114E+00 8.097E+01 1.464E+03 4.876E+03 6.422E+03 6.426E+03 2.647E+07 28.6767 1.00000
  1.778E+10 1.778E+10 4.133E+00 9.097E+01 1.643E+03 5.580E+03 7.314E+03 7.318E+03 2.675E+07 28.9069 1.00000
  1.995E+10 1.995E+10 4.152E+00 1.022E+02 1.844E+03 6.386E+03 8.332E+03 8.336E+03 2.703E+07 29.1372 1.00000
  2.239E+10 2.239E+10 4.170E+00 1.148E+02 2.069E+03 7.308E+03 9.491E+03 9.495E+03 2.731E+07 29.3675 1.00000
  2.512E+10 2.512E+10 4.189E+00 1.290E+02 2.321E+03 8.363E+03 1.081E+04 1.082E+04 2.758E+07 29.5977 1.00000
  2.818E+10 2.818E+10 4.208E+00 1.448E+02 2.605E+03 9.572E+03 1.232E+04 1.233E+04 2.784E+07 29.8280 1.00000
  3.162E+10 3.162E+10 4.227E+00 1.627E+02 2.922E+03 1.096E+04 1.404E+04 1.405E+04 2.811E+07 30.0582 1.00000
  3.548E+10 3.548E+10 4.247E+00 1.827E+02 3.279E+03 1.254E+04 1.600E+04 1.601E+04 2.836E+07 30.2885 1.00000
  3.981E+10 3.981E+10 4.266E+00 2.051E+02 3.679E+03 1.436E+04 1.824E+04 1.824E+04 2.862E+07 30.5187 1.00000
  4.467E+10 4.467E+10 4.285E+00 2.303E+02 4.128E+03 1.643E+04 2.079E+04 2.080E+04 2.887E+07 30.7490 1.00000
  5.012E+10 5.012E+10 4.305E+00 2.586E+02 4.632E+03 1.881E+04 2.370E+04 2.371E+04 2.911E+07 30.9793 1.00000
  5.623E+10 5.623E+10 4.325E+00 2.904E+02 5.197E+03 2.154E+04 2.703E+04 2.703E+04 2.935E+07 31.2095 1.00000
  6.310E+10 6.310E+10 4.345E+00 3.260E+02 5.831E+03 2.466E+04 3.082E+04 3.082E+04 2.959E+07 31.4398 1.00000
  7.079E+10 7.079E+10 4.364E+00 3.660E+02 6.542E+03 2.824E+04 3.515E+04 3.515E+04 2.983E+07 31.6700 1.00000
  7.943E+10 7.943E+10 4.384E+00 4.109E+02 7.340E+03 3.233E+04 4.009E+04 4.009E+04 3.006E+07 31.9003 1.00000
  8.913E+10 8.913E+10 4.405E+00 4.612E+02 8.236E+03 3.703E+04 4.572E+04 4.573E+04 3.028E+07 32.1306 1.00000
  1.000E+11 1.000E+11 4.425E+00 5.177E+02 9.241E+03 4.240E+04 5.216E+04 5.217E+04 3.051E+07 32.3608 1.00000
  1.122E+11 1.122E+11 4.445E+00 5.811E+02 1.037E+04 4.856E+04 5.951E+04 5.952E+04 3.073E+07 32.5911 1.00000
  1.259E+11 1.259E+11 4.466E+00 6.523E+02 1.163E+04 5.562E+04 6.790E+04 6.791E+04 3.094E+07 32.8213 1.00000
  1.413E+11 1.413E+11 4.486E+00 7.321E+02 1.305E+04 6.370E+04 7.749E+04 7.749E+04 3.116E+07 33.0516 1.00000
  1.585E+11 1.585E+11 4.507E+00 8.217E+02 1.464E+04 7.297E+04 8.843E+04 8.844E+04 3.136E+07 33.2818 1.00000
  1.778E+11 1.778E+11 4.528E+00 9.223E+02 1.643E+04 8.358E+04 1.009E+05 1.009E+05 3.157E+07 33.5121 1.00000
  1.995E+11 1.995E+11 4.549E+00 1.035E+03 1.844E+04 9.575E+04 1.152E+05 1.152E+05 3.177E+07 33.7424 1.00000
  2.239E+11 2.239E+11 4.570E+00 1.162E+03 2.068E+04 1.097E+05 1.315E+05 1.315E+05 3.197E+07 33.9726 1.00000
  2.512E+11 2.512E+11 4.591E+00 1.304E+03 2.321E+04 1.257E+05 1.502E+05 1.502E+05 3.216E+07 34.2029 1.00000
  2.818E+11 2.818E+11 4.612E+00 1.463E+03 2.604E+04 1.440E+05 1.715E+05 1.715E+05 3.236E+07 34.4331 1.00000
  3.162E+11 3.162E+11 4.634E+00 1.642E+03 2.921E+04 1.650E+05 1.958E+05 1.958E+05 3.254E+07 34.6634 1.00000
  3.548E+11 3.548E+11 4.655E+00 1.843E+03 3.278E+04 1.890E+05 2.236E+05 2.236E+05 3.273E+07 34.8937 1.00000
  3.981E+11 3.981E+11 4.677E+00 2.068E+03 3.678E+04 2.166E+05 2.554E+05 2.555E+05 3.291E+07 35.1239 1.00000
  4.467E+11 4.467E+11 4.699E+00 2.320E+03 4.126E+04 2.482E+05 2.918E+05 2.918E+05 3.309E+07 35.3542 1.00000
  5.012E+11 5.012E+11 4.720E+00 2.604E+03 4.630E+04 2.845E+05 3.334E+05 3.334E+05 3.326E+07 35.5844 1.00000
  5.623E+11 5.623E+11 4.742E+00 2.922E+03 5.194E+04 3.260E+05 3.809E+05 3.809E+05 3.344E+07 35.8147 1.00000
  6.310E+11 6.310E+11 4.765E+00 3.279E+03 5.828E+04 3.737E+05 4.352E+05 4.352E+05 3.360E+07 36.0449 1.00000
  7.079E+11 7.079E+11 4.787E+00 3.679E+03 6.539E+04 4.283E+05 4.974E+05 4.974E+05 3.377E+07 36.2752 1.00000
  7.943E+11 7.943E+11 4.809E+00 4.129E+03 7.336E+04 4.909E+05 5.684E+05 5.684E+05 3.393E+07 36.5055 1.00000
  8.913E+11 8.913E+11 4.832E+00 4.633E+03 8.231E+04 5.627E+05 6.497E+05 6.497E+05 3.409E+07 36.7357 1.00000
  1.000E+12 1.000E+12 4.854E+00 5.199E+03 9.235E+04 6.451E+05 7.427E+05 7.427E+05 3.425E+07 36.9660 1.00000
  1.122E+12 1.122E+12 4.877E+00 5.833E+03 1.036E+05 7.396E+05 8.490E+05 8.490E+05 3.440E+07 37.1962 1.00000
  1.259E+12 1.259E+12 4.900E+00 6.545E+03 1.163E+05 8.479E+05 9.707E+05 9.707E+05 3.455E+07 37.4265 1.00000
  1.413E+12 1.413E+12 4.923E+00 7.344E+03 1.304E+05 9.722E+05 1.110E+06 1.110E+06 3.470E+07 37.6568 1.00000
  1.585E+12 1.585E+12 4.946E+00 8.241E+03 1.463E+05 1.115E+06 1.269E+06 1.269E+06 3.485E+07 37.8870 1.00000
  1.778E+12 1.778E+12 4.970E+00 9.247E+03 1.642E+05 1.278E+06 1.452E+06 1.452E+06 3.499E+07 38.1173 1.00000
  1.995E+12 1.995E+12 4.993E+00 1.038E+04 1.842E+05 1.466E+06 1.660E+06 1.660E+06 3.513E+07 38.3475 1.00000
  2.239E+12 2.239E+12 5.016E+00 1.164E+04 2.067E+05 1.681E+06 1.899E+06 1.899E+06 3.527E+07 38.5778 1.00000
  2.512E+12 2.512E+12 5.040E+00 1.306E+04 2.319E+05 1.928E+06 2.173E+06 2.173E+06 3.540E+07 38.8080 1.00000
  2.818E+12 2.818E+12 5.064E+00 1.466E+04 2.602E+05 2.211E+06 2.486E+06 2.486E+06 3.554E+07 39.0383 1.00000
  3.162E+12 3.162E+12 5.088E+00 1.645E+04 2.919E+05 2.536E+06 2.844E+06 2.844E+06 3.567E+07 39.2686 1.00000
  3.548E+12 3.548E+12 5.112E+00 1.845E+04 3.275E+05 2.908E+06 3.254E+06 3.254E+06 3.579E+07 39.4988 1.00000
  3.981E+12 3.981E+12 5.136E+00 2.071E+04 3.675E+05 3.336E+06 3.724E+06 3.724E+06 3.592E+07 39.7291 1.00000
  4.467E+12 4.467E+12 5.160E+00 2.323E+04 4.123E+05 3.827E+06 4.263E+06 4.263E+06 3.604E+07 39.9593 1.00000
  5.012E+12 5.012E+12 5.185E+00 2.607E+04 4.626E+05 4.390E+06 4.879E+06 4.879E+06 3.616E+07 40.1896 1.00000
  5.623E+12 5.623E+12 5.209E+00 2.925E+04 5.190E+05 5.037E+06 5.585E+06 5.585E+06 3.628E+07 40.4199 1.00000
  6.310E+12 6.310E+12 5.234E+00 3.282E+04 5.823E+05 5.779E+06 6.394E+06 6.394E+06 3.639E+07 40.6501 1.00000
  7.079E+12 7.079E+12 5.259E+00 3.682E+04 6.533E+05 6.630E+06 7.320E+06 7.320E+06 3.650E+07 40.8804 1.00000
  7.943E+12 7.943E+12 5.284E+00 4.132E+04 7.330E+05 7.607E+06 8.382E+06 8.382E+06 3.662E+07 41.1106 1.00000
  8.913E+12 8.913E+12 5.309E+00 4.636E+04 8.224E+05 8.729E+06 9.598E+06 9.598E+06 3.672E+07 41.3409 1.00000
  1.000E+13 1.000E+13 5.334E+00 5.202E+04 9.227E+05 1.002E+07 1.099E+07 1.099E+07 3.683E+07 41.5712 1.00000
  1.122E+13 1.122E+13 5.360E+00 5.836E+04 1.035E+06 1.150E+07 1.259E+07 1.259E+07 3.693E+07 41.8014 1.00000
  1.259E+13 1.259E+13 5.385E+00 6.549E+04 1.162E+06 1.319E+07 1.442E+07 1.442E+07 3.704E+07 42.0317 1.00000
  1.413E+13 1.413E+13 5.411E+00 7.348E+04 1.303E+06 1.514E+07 1.652E+07 1.652E+07 3.714E+07 42.2619 1.00000
  1.585E+13 1.585E+13 5.437E+00 8.244E+04 1.462E+06 1.738E+07 1.892E+07 1.892E+07 3.723E+07 42.4922 1.00000
  1.778E+13 1.778E+13 5.463E+00 9.250E+04 1.640E+06 1.995E+07 2.168E+07 2.168E+07 3.733E+07 42.7224 1.00000
  1.995E+13 1.995E+13 5.489E+00 1.038E+05 1.841E+06 2.289E+07 2.484E+07 2.484E+07 3.742E+07 42.9527 1.00000
  2.239E+13 2.239E+13 5.515E+00 1.165E+05 2.065E+06 2.628E+07 2.846E+07 2.846E+07 3.751E+07 43.1830 1.00000
  2.512E+13 2.512E+13 5.542E+00 1.307E+05 2.317E+06 3.017E+07 3.262E+07 3.262E+07 3.760E+07 43.4132 1.00000
  2.818E+13 2.818E+13 5.568E+00 1.466E+05 2.599E+06 3.463E+07 3.738E+07 3.738E+07 3.769E+07 43.6435 1.00000
  3.162E+13 3.162E+13 5.595E+00 1.645E+05 2.916E+06 3.976E+07 4.284E+07 4.284E+07 3.778E+07 43.8737 1.00000
  3.548E+13 3.548E+13 5.622E+00 1.846E+05 3.272E+06 4.565E+07 4.911E+07 4.911E+07 3.786E+07 44.1040 1.00000
  3.981E+13 3.981E+13 5.648E+00 2.071E+05 3.671E+06 5.242E+07 5.630E+07 5.630E+07 3.794E+07 44.3343 1.00000
  4.467E+13 4.467E+13 5.676E+00 2.324E+05 4.119E+06 6.019E+07 6.454E+07 6.454E+07 3.803E+07 44.5645 1.00000
  5.012E+13 5.012E+13 5.703E+00 2.607E+05 4.621E+06 6.911E+07 7.400E+07 7.400E+07 3.810E+07 44.7948 1.00000
  5.623E+13 5.623E+13 5.730E+00 2.925E+05 5.185E+06 7.937E+07 8.484E+07 8.484E+07 3.818E+07 45.0250 1.00000
  6.310E+13 6.310E+13 5.758E+00 3.282E+05 5.817E+06 9.114E+07 9.729E+07 9.729E+07 3.826E+07 45.2553 1.00000
  7.079E+13 7.079E+13 5.785E+00 3.683E+05 6.527E+06 1.047E+08 1.116E+08 1.116E+08 3.833E+07 45.4855 1.00000
  7.943E+13 7.943E+13 5.813E+00 4.132E+05 7.322E+06 1.202E+08 1.280E+08 1.280E+08 3.840E+07 45.7158 1.00000
  8.913E+13 8.913E+13 5.841E+00 4.636E+05 8.215E+06 1.381E+08 1.468E+08 1.468E+08 3.848E+07 45.9461 1.00000
