 Incident particle is a Tau with M = 1776.82000 MeV
 Index = 0: Potassium
      Absorber with <Z/A> = 0.48595
 Sternheimer coef:  a     k=m_s   x_0    x_1    I[eV]   Cbar  delta0
                 0.1983  2.9233  0.3851  3.1724  190.0  5.6423 0.10

 *** Table generated with PUMAS v1.00 ***

      T         p     Ionization  brems     pair     photonuc  Radloss    dE/dx   CSDA Range  delta   beta
    [MeV]    [MeV/c]  -----------------------[MeV cm^2/g]------------------------  [g/cm^2]
  1.000E+05 1.018E+05 2.127E+00 3.389E-04 5.456E-03 8.005E-03 1.380E-02 2.141E+00 2.335E+04  2.9998 0.99985
  1.122E+05 1.140E+05 2.149E+00 3.920E-04 6.551E-03 9.017E-03 1.596E-02 2.165E+00 2.902E+04  3.1726 0.99988
  1.259E+05 1.277E+05 2.170E+00 4.532E-04 7.841E-03 1.010E-02 1.840E-02 2.188E+00 3.531E+04  3.3493 0.99990
  1.413E+05 1.430E+05 2.191E+00 5.236E-04 9.357E-03 1.132E-02 2.120E-02 2.212E+00 4.229E+04  3.5298 0.99992
  1.585E+05 1.603E+05 2.212E+00 6.048E-04 1.114E-02 1.269E-02 2.443E-02 2.236E+00 5.004E+04  3.7139 0.99994
  1.778E+05 1.796E+05 2.233E+00 6.981E-04 1.322E-02 1.420E-02 2.812E-02 2.261E+00 5.864E+04  3.9015 0.99995
  1.995E+05 2.013E+05 2.253E+00 8.054E-04 1.566E-02 1.593E-02 3.239E-02 2.285E+00 6.819E+04  4.0925 0.99996
  2.239E+05 2.256E+05 2.273E+00 9.287E-04 1.850E-02 1.781E-02 3.724E-02 2.310E+00 7.878E+04  4.2867 0.99997
  2.512E+05 2.530E+05 2.293E+00 1.070E-03 2.181E-02 1.992E-02 4.280E-02 2.336E+00 9.054E+04  4.4840 0.99998
  2.818E+05 2.836E+05 2.313E+00 1.233E-03 2.565E-02 2.229E-02 4.917E-02 2.362E+00 1.036E+05  4.6843 0.99998
  3.162E+05 3.180E+05 2.333E+00 1.420E-03 3.012E-02 2.496E-02 5.649E-02 2.389E+00 1.181E+05  4.8874 0.99998
  3.548E+05 3.566E+05 2.352E+00 1.634E-03 3.529E-02 2.795E-02 6.487E-02 2.417E+00 1.341E+05  5.0931 0.99999
  3.981E+05 3.999E+05 2.371E+00 1.879E-03 4.127E-02 3.128E-02 7.443E-02 2.446E+00 1.519E+05  5.3014 0.99999
  4.467E+05 4.485E+05 2.390E+00 2.161E-03 4.817E-02 3.501E-02 8.535E-02 2.476E+00 1.717E+05  5.5122 0.99999
  5.012E+05 5.030E+05 2.409E+00 2.483E-03 5.614E-02 3.921E-02 9.783E-02 2.507E+00 1.936E+05  5.7251 0.99999
  5.623E+05 5.641E+05 2.428E+00 2.853E-03 6.531E-02 4.374E-02 1.119E-01 2.540E+00 2.178E+05  5.9403 1.00000
  6.310E+05 6.327E+05 2.446E+00 3.276E-03 7.586E-02 4.884E-02 1.280E-01 2.574E+00 2.446E+05  6.1574 1.00000
  7.079E+05 7.097E+05 2.464E+00 3.760E-03 8.799E-02 5.459E-02 1.463E-01 2.611E+00 2.743E+05  6.3763 1.00000
  7.943E+05 7.961E+05 2.482E+00 4.314E-03 1.019E-01 6.107E-02 1.673E-01 2.650E+00 3.072E+05  6.5970 1.00000
  8.913E+05 8.930E+05 2.500E+00 4.947E-03 1.178E-01 6.840E-02 1.912E-01 2.691E+00 3.435E+05  6.8193 1.00000
  1.000E+06 1.002E+06 2.518E+00 5.672E-03 1.361E-01 7.667E-02 2.184E-01 2.736E+00 3.835E+05  7.0429 1.00000
  1.122E+06 1.124E+06 2.535E+00 6.500E-03 1.570E-01 8.602E-02 2.495E-01 2.785E+00 4.277E+05  7.2679 1.00000
  1.259E+06 1.261E+06 2.553E+00 7.446E-03 1.808E-01 9.661E-02 2.849E-01 2.838E+00 4.764E+05  7.4941 1.00000
  1.413E+06 1.414E+06 2.570E+00 8.526E-03 2.080E-01 1.086E-01 3.251E-01 2.895E+00 5.300E+05  7.7212 1.00000
  1.585E+06 1.587E+06 2.587E+00 9.760E-03 2.390E-01 1.222E-01 3.710E-01 2.958E+00 5.889E+05  7.9493 1.00000
  1.778E+06 1.780E+06 2.604E+00 1.117E-02 2.743E-01 1.376E-01 4.231E-01 3.027E+00 6.536E+05  8.1780 1.00000
  1.995E+06 1.997E+06 2.620E+00 1.278E-02 3.145E-01 1.551E-01 4.824E-01 3.103E+00 7.244E+05  8.4073 1.00000
  2.239E+06 2.240E+06 2.637E+00 1.461E-02 3.602E-01 1.749E-01 5.497E-01 3.187E+00 8.018E+05  8.6370 1.00000
  2.512E+06 2.514E+06 2.653E+00 1.670E-02 4.121E-01 1.974E-01 6.262E-01 3.280E+00 8.863E+05  8.8670 1.00000
  2.818E+06 2.820E+06 2.670E+00 1.909E-02 4.710E-01 2.230E-01 7.131E-01 3.383E+00 9.784E+05  9.0971 1.00000
  3.162E+06 3.164E+06 2.686E+00 2.180E-02 5.378E-01 2.521E-01 8.117E-01 3.497E+00 1.078E+06  9.3273 1.00000
  3.548E+06 3.550E+06 2.701E+00 2.490E-02 6.134E-01 2.852E-01 9.235E-01 3.625E+00 1.187E+06  9.5574 1.00000
  3.981E+06 3.983E+06 2.717E+00 2.843E-02 6.991E-01 3.229E-01 1.050E+00 3.768E+00 1.304E+06  9.7876 1.00000
  4.467E+06 4.469E+06 2.733E+00 3.245E-02 7.961E-01 3.657E-01 1.194E+00 3.927E+00 1.430E+06 10.0177 1.00000
  5.012E+06 5.014E+06 2.748E+00 3.703E-02 9.057E-01 4.144E-01 1.357E+00 4.105E+00 1.566E+06 10.2479 1.00000
  5.623E+06 5.625E+06 2.764E+00 4.224E-02 1.030E+00 4.699E-01 1.542E+00 4.305E+00 1.712E+06 10.4781 1.00000
  6.310E+06 6.311E+06 2.779E+00 4.816E-02 1.170E+00 5.330E-01 1.751E+00 4.530E+00 1.867E+06 10.7083 1.00000
  7.079E+06 7.081E+06 2.794E+00 5.491E-02 1.328E+00 6.050E-01 1.988E+00 4.781E+00 2.032E+06 10.9385 1.00000
  7.943E+06 7.945E+06 2.808E+00 6.257E-02 1.506E+00 6.870E-01 2.256E+00 5.064E+00 2.208E+06 11.1687 1.00000
  8.913E+06 8.914E+06 2.823E+00 7.129E-02 1.707E+00 7.804E-01 2.559E+00 5.382E+00 2.394E+06 11.3989 1.00000
  1.000E+07 1.000E+07 2.838E+00 8.120E-02 1.934E+00 8.868E-01 2.902E+00 5.740E+00 2.590E+06 11.6291 1.00000
  1.122E+07 1.122E+07 2.852E+00 9.246E-02 2.190E+00 1.008E+00 3.290E+00 6.142E+00 2.795E+06 11.8593 1.00000
  1.259E+07 1.259E+07 2.866E+00 1.052E-01 2.478E+00 1.146E+00 3.730E+00 6.596E+00 3.010E+06 12.0895 1.00000
  1.413E+07 1.413E+07 2.880E+00 1.198E-01 2.802E+00 1.304E+00 4.226E+00 7.107E+00 3.235E+06 12.3198 1.00000
  1.585E+07 1.585E+07 2.895E+00 1.362E-01 3.167E+00 1.484E+00 4.788E+00 7.682E+00 3.468E+06 12.5500 1.00000
  1.778E+07 1.778E+07 2.908E+00 1.550E-01 3.578E+00 1.689E+00 5.423E+00 8.331E+00 3.710E+06 12.7802 1.00000
  1.995E+07 1.995E+07 2.922E+00 1.762E-01 4.041E+00 1.923E+00 6.140E+00 9.063E+00 3.960E+06 13.0105 1.00000
  2.239E+07 2.239E+07 2.936E+00 2.003E-01 4.561E+00 2.190E+00 6.952E+00 9.888E+00 4.218E+06 13.2407 1.00000
  2.512E+07 2.512E+07 2.950E+00 2.275E-01 5.147E+00 2.495E+00 7.869E+00 1.082E+01 4.482E+06 13.4709 1.00000
  2.818E+07 2.819E+07 2.964E+00 2.585E-01 5.805E+00 2.842E+00 8.905E+00 1.187E+01 4.753E+06 13.7012 1.00000
  3.162E+07 3.162E+07 2.977E+00 2.936E-01 6.544E+00 3.239E+00 1.008E+01 1.305E+01 5.029E+06 13.9314 1.00000
  3.548E+07 3.548E+07 2.991E+00 3.333E-01 7.376E+00 3.691E+00 1.140E+01 1.439E+01 5.311E+06 14.1617 1.00000
  3.981E+07 3.981E+07 3.004E+00 3.783E-01 8.311E+00 4.208E+00 1.290E+01 1.590E+01 5.598E+06 14.3919 1.00000
  4.467E+07 4.467E+07 3.018E+00 4.292E-01 9.361E+00 4.797E+00 1.459E+01 1.760E+01 5.889E+06 14.6222 1.00000
  5.012E+07 5.012E+07 3.031E+00 4.868E-01 1.054E+01 5.470E+00 1.650E+01 1.953E+01 6.183E+06 14.8524 1.00000
  5.623E+07 5.624E+07 3.045E+00 5.521E-01 1.187E+01 6.238E+00 1.866E+01 2.170E+01 6.480E+06 15.0827 1.00000
  6.310E+07 6.310E+07 3.058E+00 6.258E-01 1.335E+01 7.115E+00 2.110E+01 2.415E+01 6.780E+06 15.3129 1.00000
  7.079E+07 7.080E+07 3.072E+00 7.093E-01 1.503E+01 8.117E+00 2.385E+01 2.692E+01 7.083E+06 15.5432 1.00000
  7.943E+07 7.943E+07 3.085E+00 8.036E-01 1.690E+01 9.260E+00 2.697E+01 3.005E+01 7.387E+06 15.7734 1.00000
  8.913E+07 8.913E+07 3.099E+00 9.102E-01 1.901E+01 1.057E+01 3.049E+01 3.359E+01 7.692E+06 16.0037 1.00000
  1.000E+08 1.000E+08 3.112E+00 1.031E+00 2.138E+01 1.206E+01 3.447E+01 3.758E+01 7.999E+06 16.2339 1.00000
  1.122E+08 1.122E+08 3.126E+00 1.167E+00 2.404E+01 1.376E+01 3.896E+01 4.209E+01 8.306E+06 16.4642 1.00000
  1.259E+08 1.259E+08 3.140E+00 1.320E+00 2.702E+01 1.570E+01 4.405E+01 4.719E+01 8.614E+06 16.6944 1.00000
  1.413E+08 1.413E+08 3.153E+00 1.494E+00 3.038E+01 1.792E+01 4.979E+01 5.295E+01 8.922E+06 16.9247 1.00000
  1.585E+08 1.585E+08 3.167E+00 1.690E+00 3.414E+01 2.046E+01 5.629E+01 5.945E+01 9.230E+06 17.1550 1.00000
  1.778E+08 1.778E+08 3.181E+00 1.910E+00 3.836E+01 2.336E+01 6.363E+01 6.681E+01 9.537E+06 17.3852 1.00000
  1.995E+08 1.995E+08 3.194E+00 2.160E+00 4.310E+01 2.667E+01 7.193E+01 7.512E+01 9.844E+06 17.6155 1.00000
  2.239E+08 2.239E+08 3.208E+00 2.441E+00 4.842E+01 3.045E+01 8.131E+01 8.452E+01 1.015E+07 17.8457 1.00000
  2.512E+08 2.512E+08 3.222E+00 2.757E+00 5.439E+01 3.477E+01 9.192E+01 9.514E+01 1.046E+07 18.0760 1.00000
  2.818E+08 2.818E+08 3.236E+00 3.115E+00 6.109E+01 3.971E+01 1.039E+02 1.071E+02 1.076E+07 18.3062 1.00000
  3.162E+08 3.162E+08 3.250E+00 3.517E+00 6.861E+01 4.535E+01 1.175E+02 1.207E+02 1.106E+07 18.5365 1.00000
  3.548E+08 3.548E+08 3.264E+00 3.970E+00 7.705E+01 5.179E+01 1.328E+02 1.361E+02 1.136E+07 18.7668 1.00000
  3.981E+08 3.981E+08 3.279E+00 4.481E+00 8.652E+01 5.916E+01 1.502E+02 1.534E+02 1.166E+07 18.9970 1.00000
  4.467E+08 4.467E+08 3.293E+00 5.056E+00 9.715E+01 6.757E+01 1.698E+02 1.731E+02 1.196E+07 19.2273 1.00000
  5.012E+08 5.012E+08 3.307E+00 5.704E+00 1.091E+02 7.719E+01 1.920E+02 1.953E+02 1.226E+07 19.4575 1.00000
  5.623E+08 5.623E+08 3.321E+00 6.433E+00 1.225E+02 8.818E+01 2.171E+02 2.204E+02 1.255E+07 19.6878 1.00000
  6.310E+08 6.310E+08 3.336E+00 7.253E+00 1.375E+02 1.008E+02 2.455E+02 2.488E+02 1.285E+07 19.9180 1.00000
  7.079E+08 7.079E+08 3.350E+00 8.176E+00 1.543E+02 1.151E+02 2.776E+02 2.810E+02 1.314E+07 20.1483 1.00000
  7.943E+08 7.943E+08 3.365E+00 9.215E+00 1.733E+02 1.315E+02 3.140E+02 3.174E+02 1.343E+07 20.3786 1.00000
  8.913E+08 8.913E+08 3.380E+00 1.038E+01 1.945E+02 1.503E+02 3.552E+02 3.585E+02 1.372E+07 20.6088 1.00000
  1.000E+09 1.000E+09 3.394E+00 1.170E+01 2.183E+02 1.718E+02 4.018E+02 4.051E+02 1.400E+07 20.8391 1.00000
  1.122E+09 1.122E+09 3.409E+00 1.318E+01 2.450E+02 1.963E+02 4.545E+02 4.579E+02 1.429E+07 21.0693 1.00000
  1.259E+09 1.259E+09 3.424E+00 1.484E+01 2.750E+02 2.243E+02 5.142E+02 5.176E+02 1.457E+07 21.2996 1.00000
  1.413E+09 1.413E+09 3.439E+00 1.671E+01 3.087E+02 2.564E+02 5.818E+02 5.852E+02 1.485E+07 21.5298 1.00000
  1.585E+09 1.585E+09 3.454E+00 1.881E+01 3.464E+02 2.931E+02 6.583E+02 6.617E+02 1.513E+07 21.7601 1.00000
  1.778E+09 1.778E+09 3.469E+00 2.116E+01 3.888E+02 3.350E+02 7.449E+02 7.484E+02 1.540E+07 21.9904 1.00000
  1.995E+09 1.995E+09 3.484E+00 2.382E+01 4.363E+02 3.829E+02 8.431E+02 8.466E+02 1.567E+07 22.2206 1.00000
  2.239E+09 2.239E+09 3.500E+00 2.680E+01 4.897E+02 4.378E+02 9.542E+02 9.577E+02 1.595E+07 22.4509 1.00000
  2.512E+09 2.512E+09 3.515E+00 3.014E+01 5.495E+02 5.005E+02 1.080E+03 1.084E+03 1.621E+07 22.6811 1.00000
  2.818E+09 2.818E+09 3.531E+00 3.391E+01 6.167E+02 5.722E+02 1.223E+03 1.226E+03 1.648E+07 22.9114 1.00000
  3.162E+09 3.162E+09 3.546E+00 3.813E+01 6.920E+02 6.543E+02 1.384E+03 1.388E+03 1.674E+07 23.1417 1.00000
  3.548E+09 3.548E+09 3.562E+00 4.288E+01 7.765E+02 7.481E+02 1.568E+03 1.571E+03 1.701E+07 23.3719 1.00000
  3.981E+09 3.981E+09 3.577E+00 4.821E+01 8.714E+02 8.555E+02 1.775E+03 1.779E+03 1.727E+07 23.6022 1.00000
  4.467E+09 4.467E+09 3.593E+00 5.419E+01 9.778E+02 9.783E+02 2.010E+03 2.014E+03 1.752E+07 23.8324 1.00000
  5.012E+09 5.012E+09 3.609E+00 6.091E+01 1.097E+03 1.119E+03 2.277E+03 2.281E+03 1.778E+07 24.0627 1.00000
  5.623E+09 5.623E+09 3.625E+00 6.846E+01 1.231E+03 1.280E+03 2.579E+03 2.583E+03 1.803E+07 24.2929 1.00000
  6.310E+09 6.310E+09 3.641E+00 7.693E+01 1.382E+03 1.464E+03 2.922E+03 2.926E+03 1.828E+07 24.5232 1.00000
  7.079E+09 7.079E+09 3.657E+00 8.645E+01 1.550E+03 1.674E+03 3.311E+03 3.314E+03 1.853E+07 24.7535 1.00000
  7.943E+09 7.943E+09 3.674E+00 9.713E+01 1.740E+03 1.915E+03 3.751E+03 3.755E+03 1.877E+07 24.9837 1.00000
  8.913E+09 8.913E+09 3.690E+00 1.091E+02 1.952E+03 2.190E+03 4.251E+03 4.255E+03 1.902E+07 25.2140 1.00000
  1.000E+10 1.000E+10 3.707E+00 1.226E+02 2.190E+03 2.506E+03 4.819E+03 4.822E+03 1.926E+07 25.4442 1.00000
  1.122E+10 1.122E+10 3.723E+00 1.377E+02 2.457E+03 2.867E+03 5.462E+03 5.466E+03 1.950E+07 25.6745 1.00000
  1.259E+10 1.259E+10 3.740E+00 1.547E+02 2.757E+03 3.280E+03 6.192E+03 6.196E+03 1.973E+07 25.9048 1.00000
  1.413E+10 1.413E+10 3.756E+00 1.737E+02 3.094E+03 3.753E+03 7.020E+03 7.024E+03 1.996E+07 26.1350 1.00000
  1.585E+10 1.585E+10 3.773E+00 1.951E+02 3.472E+03 4.294E+03 7.961E+03 7.964E+03 2.020E+07 26.3653 1.00000
  1.778E+10 1.778E+10 3.790E+00 2.190E+02 3.895E+03 4.914E+03 9.028E+03 9.032E+03 2.042E+07 26.5955 1.00000
  1.995E+10 1.995E+10 3.807E+00 2.460E+02 4.371E+03 5.623E+03 1.024E+04 1.024E+04 2.065E+07 26.8258 1.00000
  2.239E+10 2.239E+10 3.824E+00 2.762E+02 4.904E+03 6.435E+03 1.161E+04 1.162E+04 2.087E+07 27.0561 1.00000
  2.512E+10 2.512E+10 3.842E+00 3.101E+02 5.502E+03 7.364E+03 1.318E+04 1.318E+04 2.109E+07 27.2863 1.00000
  2.818E+10 2.818E+10 3.859E+00 3.481E+02 6.174E+03 8.429E+03 1.495E+04 1.495E+04 2.131E+07 27.5166 1.00000
  3.162E+10 3.162E+10 3.876E+00 3.908E+02 6.927E+03 9.647E+03 1.697E+04 1.697E+04 2.153E+07 27.7468 1.00000
  3.548E+10 3.548E+10 3.894E+00 4.387E+02 7.772E+03 1.104E+04 1.925E+04 1.926E+04 2.174E+07 27.9771 1.00000
  3.981E+10 3.981E+10 3.911E+00 4.925E+02 8.721E+03 1.264E+04 2.185E+04 2.186E+04 2.195E+07 28.2073 1.00000
  4.467E+10 4.467E+10 3.929E+00 5.528E+02 9.785E+03 1.447E+04 2.481E+04 2.481E+04 2.216E+07 28.4376 1.00000
  5.012E+10 5.012E+10 3.947E+00 6.206E+02 1.098E+04 1.657E+04 2.817E+04 2.817E+04 2.237E+07 28.6679 1.00000
  5.623E+10 5.623E+10 3.965E+00 6.965E+02 1.232E+04 1.897E+04 3.198E+04 3.198E+04 2.257E+07 28.8981 1.00000
  6.310E+10 6.310E+10 3.983E+00 7.818E+02 1.382E+04 2.172E+04 3.632E+04 3.632E+04 2.278E+07 29.1284 1.00000
  7.079E+10 7.079E+10 4.001E+00 8.775E+02 1.551E+04 2.486E+04 4.125E+04 4.125E+04 2.298E+07 29.3586 1.00000
  7.943E+10 7.943E+10 4.019E+00 9.849E+02 1.740E+04 2.847E+04 4.686E+04 4.686E+04 2.317E+07 29.5889 1.00000
  8.913E+10 8.913E+10 4.037E+00 1.105E+03 1.952E+04 3.260E+04 5.323E+04 5.323E+04 2.337E+07 29.8192 1.00000
  1.000E+11 1.000E+11 4.056E+00 1.240E+03 2.190E+04 3.734E+04 6.048E+04 6.048E+04 2.356E+07 30.0494 1.00000
  1.122E+11 1.122E+11 4.074E+00 1.392E+03 2.457E+04 4.276E+04 6.873E+04 6.873E+04 2.375E+07 30.2797 1.00000
  1.259E+11 1.259E+11 4.093E+00 1.562E+03 2.757E+04 4.897E+04 7.811E+04 7.811E+04 2.394E+07 30.5099 1.00000
  1.413E+11 1.413E+11 4.112E+00 1.753E+03 3.094E+04 5.609E+04 8.878E+04 8.879E+04 2.412E+07 30.7402 1.00000
  1.585E+11 1.585E+11 4.130E+00 1.968E+03 3.471E+04 6.425E+04 1.009E+05 1.009E+05 2.430E+07 30.9704 1.00000
  1.778E+11 1.778E+11 4.149E+00 2.208E+03 3.894E+04 7.360E+04 1.147E+05 1.148E+05 2.448E+07 31.2007 1.00000
  1.995E+11 1.995E+11 4.168E+00 2.478E+03 4.370E+04 8.431E+04 1.305E+05 1.305E+05 2.466E+07 31.4310 1.00000
  2.239E+11 2.239E+11 4.188E+00 2.781E+03 4.903E+04 9.658E+04 1.484E+05 1.484E+05 2.484E+07 31.6612 1.00000
  2.512E+11 2.512E+11 4.207E+00 3.120E+03 5.501E+04 1.107E+05 1.688E+05 1.688E+05 2.501E+07 31.8915 1.00000
  2.818E+11 2.818E+11 4.226E+00 3.501E+03 6.172E+04 1.268E+05 1.920E+05 1.920E+05 2.518E+07 32.1217 1.00000
  3.162E+11 3.162E+11 4.246E+00 3.929E+03 6.924E+04 1.453E+05 2.184E+05 2.184E+05 2.535E+07 32.3520 1.00000
  3.548E+11 3.548E+11 4.265E+00 4.409E+03 7.769E+04 1.664E+05 2.485E+05 2.485E+05 2.551E+07 32.5823 1.00000
  3.981E+11 3.981E+11 4.285E+00 4.947E+03 8.717E+04 1.907E+05 2.828E+05 2.828E+05 2.568E+07 32.8125 1.00000
  4.467E+11 4.467E+11 4.305E+00 5.551E+03 9.780E+04 2.186E+05 3.219E+05 3.219E+05 2.584E+07 33.0428 1.00000
  5.012E+11 5.012E+11 4.325E+00 6.229E+03 1.097E+05 2.505E+05 3.664E+05 3.664E+05 2.600E+07 33.2730 1.00000
  5.623E+11 5.623E+11 4.345E+00 6.989E+03 1.231E+05 2.871E+05 4.172E+05 4.172E+05 2.615E+07 33.5033 1.00000
  6.310E+11 6.310E+11 4.365E+00 7.843E+03 1.381E+05 3.290E+05 4.750E+05 4.750E+05 2.631E+07 33.7335 1.00000
  7.079E+11 7.079E+11 4.385E+00 8.800E+03 1.550E+05 3.771E+05 5.409E+05 5.409E+05 2.646E+07 33.9638 1.00000
  7.943E+11 7.943E+11 4.405E+00 9.874E+03 1.739E+05 4.323E+05 6.160E+05 6.160E+05 2.661E+07 34.1941 1.00000
  8.913E+11 8.913E+11 4.426E+00 1.108E+04 1.951E+05 4.955E+05 7.017E+05 7.017E+05 2.676E+07 34.4243 1.00000
  1.000E+12 1.000E+12 4.447E+00 1.243E+04 2.189E+05 5.680E+05 7.994E+05 7.994E+05 2.690E+07 34.6546 1.00000
  1.122E+12 1.122E+12 4.467E+00 1.395E+04 2.456E+05 6.512E+05 9.108E+05 9.108E+05 2.705E+07 34.8848 1.00000
  1.259E+12 1.259E+12 4.488E+00 1.565E+04 2.756E+05 7.466E+05 1.038E+06 1.038E+06 2.719E+07 35.1151 1.00000
  1.413E+12 1.413E+12 4.509E+00 1.756E+04 3.092E+05 8.560E+05 1.183E+06 1.183E+06 2.733E+07 35.3454 1.00000
  1.585E+12 1.585E+12 4.530E+00 1.971E+04 3.469E+05 9.815E+05 1.348E+06 1.348E+06 2.746E+07 35.5756 1.00000
  1.778E+12 1.778E+12 4.551E+00 2.211E+04 3.892E+05 1.125E+06 1.537E+06 1.537E+06 2.760E+07 35.8059 1.00000
  1.995E+12 1.995E+12 4.573E+00 2.481E+04 4.367E+05 1.291E+06 1.752E+06 1.752E+06 2.773E+07 36.0361 1.00000
  2.239E+12 2.239E+12 4.594E+00 2.784E+04 4.899E+05 1.480E+06 1.998E+06 1.998E+06 2.786E+07 36.2664 1.00000
  2.512E+12 2.512E+12 4.615E+00 3.123E+04 5.497E+05 1.697E+06 2.278E+06 2.278E+06 2.799E+07 36.4966 1.00000
  2.818E+12 2.818E+12 4.637E+00 3.505E+04 6.167E+05 1.947E+06 2.598E+06 2.598E+06 2.812E+07 36.7269 1.00000
  3.162E+12 3.162E+12 4.659E+00 3.932E+04 6.919E+05 2.233E+06 2.964E+06 2.964E+06 2.824E+07 36.9572 1.00000
  3.548E+12 3.548E+12 4.681E+00 4.412E+04 7.763E+05 2.561E+06 3.381E+06 3.381E+06 2.836E+07 37.1874 1.00000
  3.981E+12 3.981E+12 4.703E+00 4.950E+04 8.710E+05 2.938E+06 3.858E+06 3.858E+06 2.848E+07 37.4177 1.00000
  4.467E+12 4.467E+12 4.725E+00 5.555E+04 9.773E+05 3.370E+06 4.403E+06 4.403E+06 2.860E+07 37.6479 1.00000
  5.012E+12 5.012E+12 4.747E+00 6.232E+04 1.096E+06 3.866E+06 5.025E+06 5.025E+06 2.872E+07 37.8782 1.00000
  5.623E+12 5.623E+12 4.769E+00 6.993E+04 1.230E+06 4.435E+06 5.735E+06 5.735E+06 2.883E+07 38.1085 1.00000
  6.310E+12 6.310E+12 4.792E+00 7.846E+04 1.380E+06 5.088E+06 6.547E+06 6.547E+06 2.894E+07 38.3387 1.00000
  7.079E+12 7.079E+12 4.815E+00 8.804E+04 1.549E+06 5.838E+06 7.475E+06 7.475E+06 2.905E+07 38.5690 1.00000
  7.943E+12 7.943E+12 4.837E+00 9.878E+04 1.737E+06 6.699E+06 8.535E+06 8.535E+06 2.916E+07 38.7992 1.00000
  8.913E+12 8.913E+12 4.860E+00 1.108E+05 1.949E+06 7.686E+06 9.746E+06 9.746E+06 2.927E+07 39.0295 1.00000
  1.000E+13 1.000E+13 4.883E+00 1.244E+05 2.187E+06 8.820E+06 1.113E+07 1.113E+07 2.937E+07 39.2598 1.00000
  1.122E+13 1.122E+13 4.906E+00 1.395E+05 2.454E+06 1.012E+07 1.272E+07 1.272E+07 2.948E+07 39.4900 1.00000
  1.259E+13 1.259E+13 4.929E+00 1.566E+05 2.753E+06 1.162E+07 1.453E+07 1.453E+07 2.958E+07 39.7203 1.00000
  1.413E+13 1.413E+13 4.953E+00 1.757E+05 3.089E+06 1.333E+07 1.660E+07 1.660E+07 2.968E+07 39.9505 1.00000
  1.585E+13 1.585E+13 4.976E+00 1.971E+05 3.466E+06 1.530E+07 1.896E+07 1.896E+07 2.977E+07 40.1808 1.00000
  1.778E+13 1.778E+13 5.000E+00 2.211E+05 3.888E+06 1.756E+07 2.167E+07 2.167E+07 2.987E+07 40.4110 1.00000
  1.995E+13 1.995E+13 5.024E+00 2.481E+05 4.362E+06 2.016E+07 2.477E+07 2.477E+07 2.996E+07 40.6413 1.00000
  2.239E+13 2.239E+13 5.047E+00 2.784E+05 4.895E+06 2.314E+07 2.831E+07 2.831E+07 3.006E+07 40.8716 1.00000
  2.512E+13 2.512E+13 5.071E+00 3.124E+05 5.491E+06 2.657E+07 3.237E+07 3.237E+07 3.015E+07 41.1018 1.00000
  2.818E+13 2.818E+13 5.096E+00 3.505E+05 6.161E+06 3.050E+07 3.701E+07 3.701E+07 3.023E+07 41.3321 1.00000
  3.162E+13 3.162E+13 5.120E+00 3.933E+05 6.913E+06 3.501E+07 4.232E+07 4.232E+07 3.032E+07 41.5623 1.00000
  3.548E+13 3.548E+13 5.144E+00 4.412E+05 7.756E+06 4.020E+07 4.840E+07 4.840E+07 3.041E+07 41.7926 1.00000
  3.981E+13 3.981E+13 5.169E+00 4.951E+05 8.701E+06 4.616E+07 5.535E+07 5.535E+07 3.049E+07 42.0229 1.00000
  4.467E+13 4.467E+13 5.193E+00 5.555E+05 9.763E+06 5.300E+07 6.332E+07 6.332E+07 3.057E+07 42.2531 1.00000
  5.012E+13 5.012E+13 5.218E+00 6.233E+05 1.095E+07 6.086E+07 7.243E+07 7.243E+07 3.065E+07 42.4834 1.00000
  5.623E+13 5.623E+13 5.243E+00 6.993E+05 1.229E+07 6.988E+07 8.287E+07 8.287E+07 3.073E+07 42.7136 1.00000
  6.310E+13 6.310E+13 5.268E+00 7.847E+05 1.379E+07 8.026E+07 9.483E+07 9.483E+07 3.081E+07 42.9439 1.00000
  7.079E+13 7.079E+13 5.293E+00 8.804E+05 1.547E+07 9.217E+07 1.085E+08 1.085E+08 3.089E+07 43.1741 1.00000
  7.943E+13 7.943E+13 5.319E+00 9.878E+05 1.736E+07 1.059E+08 1.242E+08 1.242E+08 3.096E+07 43.4044 1.00000
  8.913E+13 8.913E+13 5.344E+00 1.108E+06 1.947E+07 1.216E+08 1.422E+08 1.422E+08 3.103E+07 43.6347 1.00000
