 Incident particle is a Tau with M = 1776.82000 MeV
 Index = 0: PotassiumOxide
      Absorber with <Z/A> = 0.48834
 Sternheimer coef:  a     k=m_s   x_0    x_1    I[eV]   Cbar  delta0
                 0.1679  3.0121  0.0480  3.0110  189.9  4.6463 0.00

 *** Table generated with PUMAS v1.00 ***

      T         p     Ionization  brems     pair     photonuc  Radloss    dE/dx   CSDA Range  delta   beta
    [MeV]    [MeV/c]  -----------------------[MeV cm^2/g]------------------------  [g/cm^2]
  1.000E+05 1.018E+05 2.079E+00 3.080E-04 4.944E-03 8.050E-03 1.330E-02 2.093E+00 2.389E+04  3.7806 0.99985
  1.122E+05 1.140E+05 2.100E+00 3.562E-04 5.938E-03 9.071E-03 1.537E-02 2.115E+00 2.969E+04  3.9694 0.99988
  1.259E+05 1.277E+05 2.120E+00 4.118E-04 7.110E-03 1.017E-02 1.769E-02 2.138E+00 3.613E+04  4.1616 0.99990
  1.413E+05 1.430E+05 2.140E+00 4.758E-04 8.487E-03 1.140E-02 2.036E-02 2.160E+00 4.328E+04  4.3570 0.99992
  1.585E+05 1.603E+05 2.160E+00 5.494E-04 1.010E-02 1.278E-02 2.343E-02 2.183E+00 5.121E+04  4.5553 0.99994
  1.778E+05 1.796E+05 2.179E+00 6.341E-04 1.200E-02 1.431E-02 2.694E-02 2.206E+00 6.003E+04  4.7566 0.99995
  1.995E+05 2.013E+05 2.199E+00 7.316E-04 1.421E-02 1.605E-02 3.100E-02 2.230E+00 6.981E+04  4.9606 0.99996
  2.239E+05 2.256E+05 2.218E+00 8.435E-04 1.679E-02 1.796E-02 3.560E-02 2.254E+00 8.067E+04  5.1672 0.99997
  2.512E+05 2.530E+05 2.238E+00 9.721E-04 1.980E-02 2.009E-02 4.086E-02 2.278E+00 9.272E+04  5.3762 0.99998
  2.818E+05 2.836E+05 2.257E+00 1.120E-03 2.330E-02 2.248E-02 4.690E-02 2.304E+00 1.061E+05  5.5876 0.99998
  3.162E+05 3.180E+05 2.276E+00 1.289E-03 2.736E-02 2.519E-02 5.383E-02 2.329E+00 1.209E+05  5.8011 0.99998
  3.548E+05 3.566E+05 2.294E+00 1.484E-03 3.206E-02 2.821E-02 6.176E-02 2.356E+00 1.374E+05  6.0167 0.99999
  3.981E+05 3.999E+05 2.313E+00 1.707E-03 3.750E-02 3.159E-02 7.079E-02 2.384E+00 1.557E+05  6.2341 0.99999
  4.467E+05 4.485E+05 2.331E+00 1.962E-03 4.378E-02 3.537E-02 8.111E-02 2.413E+00 1.759E+05  6.4534 0.99999
  5.012E+05 5.030E+05 2.350E+00 2.255E-03 5.103E-02 3.962E-02 9.290E-02 2.443E+00 1.984E+05  6.6742 0.99999
  5.623E+05 5.641E+05 2.368E+00 2.590E-03 5.937E-02 4.421E-02 1.062E-01 2.474E+00 2.233E+05  6.8966 1.00000
  6.310E+05 6.327E+05 2.386E+00 2.974E-03 6.898E-02 4.938E-02 1.213E-01 2.507E+00 2.508E+05  7.1203 1.00000
  7.079E+05 7.097E+05 2.404E+00 3.413E-03 8.001E-02 5.521E-02 1.386E-01 2.543E+00 2.813E+05  7.3452 1.00000
  7.943E+05 7.961E+05 2.422E+00 3.916E-03 9.268E-02 6.179E-02 1.584E-01 2.580E+00 3.150E+05  7.5712 1.00000
  8.913E+05 8.930E+05 2.439E+00 4.491E-03 1.072E-01 6.922E-02 1.809E-01 2.620E+00 3.523E+05  7.7982 1.00000
  1.000E+06 1.002E+06 2.457E+00 5.149E-03 1.238E-01 7.761E-02 2.066E-01 2.663E+00 3.935E+05  8.0260 1.00000
  1.122E+06 1.124E+06 2.474E+00 5.900E-03 1.428E-01 8.710E-02 2.358E-01 2.710E+00 4.389E+05  8.2545 1.00000
  1.259E+06 1.261E+06 2.491E+00 6.759E-03 1.645E-01 9.784E-02 2.691E-01 2.760E+00 4.890E+05  8.4836 1.00000
  1.413E+06 1.414E+06 2.508E+00 7.740E-03 1.893E-01 1.100E-01 3.071E-01 2.815E+00 5.441E+05  8.7131 1.00000
  1.585E+06 1.587E+06 2.525E+00 8.860E-03 2.176E-01 1.238E-01 3.503E-01 2.876E+00 6.047E+05  8.9429 1.00000
  1.778E+06 1.780E+06 2.542E+00 1.014E-02 2.498E-01 1.394E-01 3.994E-01 2.941E+00 6.712E+05  9.1728 1.00000
  1.995E+06 1.997E+06 2.559E+00 1.160E-02 2.864E-01 1.572E-01 4.552E-01 3.014E+00 7.440E+05  9.4029 1.00000
  2.239E+06 2.240E+06 2.575E+00 1.326E-02 3.281E-01 1.773E-01 5.186E-01 3.094E+00 8.238E+05  9.6330 1.00000
  2.512E+06 2.514E+06 2.592E+00 1.516E-02 3.754E-01 2.002E-01 5.907E-01 3.182E+00 9.108E+05  9.8630 1.00000
  2.818E+06 2.820E+06 2.608E+00 1.733E-02 4.291E-01 2.262E-01 6.726E-01 3.281E+00 1.006E+06 10.0931 1.00000
  3.162E+06 3.164E+06 2.624E+00 1.980E-02 4.900E-01 2.557E-01 7.655E-01 3.390E+00 1.109E+06 10.3233 1.00000
  3.548E+06 3.550E+06 2.640E+00 2.261E-02 5.590E-01 2.893E-01 8.709E-01 3.511E+00 1.221E+06 10.5534 1.00000
  3.981E+06 3.983E+06 2.656E+00 2.582E-02 6.371E-01 3.275E-01 9.905E-01 3.646E+00 1.342E+06 10.7836 1.00000
  4.467E+06 4.469E+06 2.672E+00 2.947E-02 7.256E-01 3.710E-01 1.126E+00 3.798E+00 1.472E+06 11.0137 1.00000
  5.012E+06 5.014E+06 2.687E+00 3.363E-02 8.257E-01 4.205E-01 1.280E+00 3.967E+00 1.613E+06 11.2439 1.00000
  5.623E+06 5.625E+06 2.703E+00 3.836E-02 9.388E-01 4.769E-01 1.454E+00 4.157E+00 1.763E+06 11.4741 1.00000
  6.310E+06 6.311E+06 2.718E+00 4.374E-02 1.067E+00 5.410E-01 1.651E+00 4.369E+00 1.924E+06 11.7043 1.00000
  7.079E+06 7.081E+06 2.733E+00 4.987E-02 1.211E+00 6.141E-01 1.875E+00 4.608E+00 2.096E+06 11.9345 1.00000
  7.943E+06 7.945E+06 2.748E+00 5.684E-02 1.374E+00 6.974E-01 2.128E+00 4.876E+00 2.278E+06 12.1647 1.00000
  8.913E+06 8.914E+06 2.762E+00 6.476E-02 1.557E+00 7.922E-01 2.414E+00 5.177E+00 2.471E+06 12.3949 1.00000
  1.000E+07 1.000E+07 2.777E+00 7.377E-02 1.765E+00 9.004E-01 2.739E+00 5.516E+00 2.675E+06 12.6251 1.00000
  1.122E+07 1.122E+07 2.791E+00 8.400E-02 1.998E+00 1.024E+00 3.106E+00 5.897E+00 2.889E+06 12.8553 1.00000
  1.259E+07 1.259E+07 2.806E+00 9.563E-02 2.261E+00 1.164E+00 3.521E+00 6.327E+00 3.113E+06 13.0855 1.00000
  1.413E+07 1.413E+07 2.820E+00 1.088E-01 2.557E+00 1.324E+00 3.991E+00 6.811E+00 3.348E+06 13.3158 1.00000
  1.585E+07 1.585E+07 2.834E+00 1.238E-01 2.891E+00 1.507E+00 4.522E+00 7.356E+00 3.591E+06 13.5460 1.00000
  1.778E+07 1.778E+07 2.848E+00 1.408E-01 3.266E+00 1.715E+00 5.123E+00 7.971E+00 3.844E+06 13.7762 1.00000
  1.995E+07 1.995E+07 2.862E+00 1.601E-01 3.689E+00 1.953E+00 5.802E+00 8.664E+00 4.105E+06 14.0065 1.00000
  2.239E+07 2.239E+07 2.876E+00 1.820E-01 4.164E+00 2.224E+00 6.571E+00 9.447E+00 4.375E+06 14.2367 1.00000
  2.512E+07 2.512E+07 2.890E+00 2.069E-01 4.699E+00 2.534E+00 7.440E+00 1.033E+01 4.651E+06 14.4669 1.00000
  2.818E+07 2.819E+07 2.903E+00 2.350E-01 5.300E+00 2.887E+00 8.422E+00 1.133E+01 4.935E+06 14.6972 1.00000
  3.162E+07 3.162E+07 2.917E+00 2.669E-01 5.976E+00 3.289E+00 9.533E+00 1.245E+01 5.225E+06 14.9274 1.00000
  3.548E+07 3.548E+07 2.931E+00 3.031E-01 6.736E+00 3.749E+00 1.079E+01 1.372E+01 5.521E+06 15.1577 1.00000
  3.981E+07 3.981E+07 2.944E+00 3.440E-01 7.590E+00 4.274E+00 1.221E+01 1.515E+01 5.821E+06 15.3879 1.00000
  4.467E+07 4.467E+07 2.958E+00 3.904E-01 8.550E+00 4.873E+00 1.381E+01 1.677E+01 6.126E+06 15.6182 1.00000
  5.012E+07 5.012E+07 2.972E+00 4.428E-01 9.628E+00 5.556E+00 1.563E+01 1.860E+01 6.435E+06 15.8484 1.00000
  5.623E+07 5.624E+07 2.985E+00 5.022E-01 1.084E+01 6.337E+00 1.768E+01 2.066E+01 6.748E+06 16.0787 1.00000
  6.310E+07 6.310E+07 2.999E+00 5.694E-01 1.220E+01 7.227E+00 2.000E+01 2.300E+01 7.063E+06 16.3089 1.00000
  7.079E+07 7.080E+07 3.012E+00 6.454E-01 1.373E+01 8.245E+00 2.262E+01 2.563E+01 7.381E+06 16.5392 1.00000
  7.943E+07 7.943E+07 3.026E+00 7.313E-01 1.545E+01 9.406E+00 2.558E+01 2.861E+01 7.700E+06 16.7694 1.00000
  8.913E+07 8.913E+07 3.039E+00 8.284E-01 1.737E+01 1.073E+01 2.893E+01 3.197E+01 8.021E+06 16.9997 1.00000
  1.000E+08 1.000E+08 3.053E+00 9.381E-01 1.954E+01 1.225E+01 3.272E+01 3.577E+01 8.343E+06 17.2299 1.00000
  1.122E+08 1.122E+08 3.067E+00 1.062E+00 2.197E+01 1.398E+01 3.700E+01 4.007E+01 8.666E+06 17.4602 1.00000
  1.259E+08 1.259E+08 3.080E+00 1.202E+00 2.469E+01 1.595E+01 4.185E+01 4.493E+01 8.989E+06 17.6904 1.00000
  1.413E+08 1.413E+08 3.094E+00 1.360E+00 2.776E+01 1.821E+01 4.733E+01 5.042E+01 9.312E+06 17.9207 1.00000
  1.585E+08 1.585E+08 3.108E+00 1.538E+00 3.120E+01 2.078E+01 5.352E+01 5.663E+01 9.636E+06 18.1510 1.00000
  1.778E+08 1.778E+08 3.122E+00 1.740E+00 3.506E+01 2.373E+01 6.052E+01 6.364E+01 9.958E+06 18.3812 1.00000
  1.995E+08 1.995E+08 3.136E+00 1.967E+00 3.939E+01 2.709E+01 6.845E+01 7.158E+01 1.028E+07 18.6115 1.00000
  2.239E+08 2.239E+08 3.150E+00 2.223E+00 4.425E+01 3.093E+01 7.741E+01 8.056E+01 1.060E+07 18.8417 1.00000
  2.512E+08 2.512E+08 3.164E+00 2.512E+00 4.971E+01 3.532E+01 8.754E+01 9.070E+01 1.092E+07 19.0720 1.00000
  2.818E+08 2.818E+08 3.178E+00 2.837E+00 5.583E+01 4.034E+01 9.901E+01 1.022E+02 1.124E+07 19.3022 1.00000
  3.162E+08 3.162E+08 3.192E+00 3.204E+00 6.271E+01 4.607E+01 1.120E+02 1.152E+02 1.156E+07 19.5325 1.00000
  3.548E+08 3.548E+08 3.206E+00 3.618E+00 7.042E+01 5.261E+01 1.267E+02 1.299E+02 1.187E+07 19.7628 1.00000
  3.981E+08 3.981E+08 3.220E+00 4.083E+00 7.908E+01 6.009E+01 1.433E+02 1.465E+02 1.219E+07 19.9930 1.00000
  4.467E+08 4.467E+08 3.234E+00 4.608E+00 8.880E+01 6.864E+01 1.621E+02 1.653E+02 1.250E+07 20.2233 1.00000
  5.012E+08 5.012E+08 3.249E+00 5.199E+00 9.970E+01 7.842E+01 1.833E+02 1.866E+02 1.281E+07 20.4535 1.00000
  5.623E+08 5.623E+08 3.263E+00 5.864E+00 1.119E+02 8.958E+01 2.074E+02 2.107E+02 1.312E+07 20.6838 1.00000
  6.310E+08 6.310E+08 3.278E+00 6.612E+00 1.257E+02 1.023E+02 2.346E+02 2.379E+02 1.343E+07 20.9140 1.00000
  7.079E+08 7.079E+08 3.292E+00 7.454E+00 1.411E+02 1.169E+02 2.655E+02 2.688E+02 1.373E+07 21.1443 1.00000
  7.943E+08 7.943E+08 3.307E+00 8.402E+00 1.584E+02 1.336E+02 3.004E+02 3.037E+02 1.404E+07 21.3746 1.00000
  8.913E+08 8.913E+08 3.322E+00 9.468E+00 1.778E+02 1.527E+02 3.399E+02 3.433E+02 1.434E+07 21.6048 1.00000
  1.000E+09 1.000E+09 3.336E+00 1.067E+01 1.996E+02 1.745E+02 3.847E+02 3.880E+02 1.464E+07 21.8351 1.00000
  1.122E+09 1.122E+09 3.351E+00 1.202E+01 2.240E+02 1.994E+02 4.354E+02 4.387E+02 1.493E+07 22.0653 1.00000
  1.259E+09 1.259E+09 3.366E+00 1.353E+01 2.514E+02 2.279E+02 4.928E+02 4.962E+02 1.523E+07 22.2956 1.00000
  1.413E+09 1.413E+09 3.381E+00 1.524E+01 2.822E+02 2.605E+02 5.579E+02 5.612E+02 1.552E+07 22.5258 1.00000
  1.585E+09 1.585E+09 3.396E+00 1.715E+01 3.167E+02 2.977E+02 6.315E+02 6.349E+02 1.581E+07 22.7561 1.00000
  1.778E+09 1.778E+09 3.412E+00 1.931E+01 3.554E+02 3.403E+02 7.150E+02 7.184E+02 1.609E+07 22.9864 1.00000
  1.995E+09 1.995E+09 3.427E+00 2.173E+01 3.989E+02 3.890E+02 8.096E+02 8.130E+02 1.638E+07 23.2166 1.00000
  2.239E+09 2.239E+09 3.442E+00 2.445E+01 4.476E+02 4.447E+02 9.168E+02 9.202E+02 1.666E+07 23.4469 1.00000
  2.512E+09 2.512E+09 3.458E+00 2.751E+01 5.023E+02 5.084E+02 1.038E+03 1.042E+03 1.694E+07 23.6771 1.00000
  2.818E+09 2.818E+09 3.473E+00 3.094E+01 5.637E+02 5.813E+02 1.176E+03 1.179E+03 1.722E+07 23.9074 1.00000
  3.162E+09 3.162E+09 3.489E+00 3.480E+01 6.326E+02 6.647E+02 1.332E+03 1.336E+03 1.749E+07 24.1377 1.00000
  3.548E+09 3.548E+09 3.505E+00 3.913E+01 7.099E+02 7.600E+02 1.509E+03 1.513E+03 1.776E+07 24.3679 1.00000
  3.981E+09 3.981E+09 3.520E+00 4.400E+01 7.966E+02 8.691E+02 1.710E+03 1.713E+03 1.803E+07 24.5982 1.00000
  4.467E+09 4.467E+09 3.536E+00 4.946E+01 8.939E+02 9.938E+02 1.937E+03 1.941E+03 1.830E+07 24.8284 1.00000
  5.012E+09 5.012E+09 3.552E+00 5.560E+01 1.003E+03 1.137E+03 2.195E+03 2.199E+03 1.856E+07 25.0587 1.00000
  5.623E+09 5.623E+09 3.568E+00 6.250E+01 1.126E+03 1.300E+03 2.488E+03 2.492E+03 1.883E+07 25.2889 1.00000
  6.310E+09 6.310E+09 3.585E+00 7.023E+01 1.263E+03 1.487E+03 2.820E+03 2.824E+03 1.909E+07 25.5192 1.00000
  7.079E+09 7.079E+09 3.601E+00 7.892E+01 1.417E+03 1.701E+03 3.197E+03 3.200E+03 1.934E+07 25.7495 1.00000
  7.943E+09 7.943E+09 3.617E+00 8.868E+01 1.590E+03 1.945E+03 3.624E+03 3.628E+03 1.960E+07 25.9797 1.00000
  8.913E+09 8.913E+09 3.634E+00 9.963E+01 1.784E+03 2.225E+03 4.109E+03 4.113E+03 1.985E+07 26.2100 1.00000
  1.000E+10 1.000E+10 3.650E+00 1.119E+02 2.002E+03 2.546E+03 4.660E+03 4.663E+03 2.010E+07 26.4402 1.00000
  1.122E+10 1.122E+10 3.667E+00 1.257E+02 2.247E+03 2.912E+03 5.285E+03 5.288E+03 2.034E+07 26.6705 1.00000
  1.259E+10 1.259E+10 3.683E+00 1.412E+02 2.521E+03 3.332E+03 5.994E+03 5.998E+03 2.059E+07 26.9008 1.00000
  1.413E+10 1.413E+10 3.700E+00 1.586E+02 2.828E+03 3.812E+03 6.799E+03 6.803E+03 2.083E+07 27.1310 1.00000
  1.585E+10 1.585E+10 3.717E+00 1.781E+02 3.174E+03 4.362E+03 7.714E+03 7.718E+03 2.106E+07 27.3613 1.00000
  1.778E+10 1.778E+10 3.734E+00 2.000E+02 3.561E+03 4.992E+03 8.752E+03 8.756E+03 2.130E+07 27.5915 1.00000
  1.995E+10 1.995E+10 3.751E+00 2.246E+02 3.995E+03 5.712E+03 9.932E+03 9.936E+03 2.153E+07 27.8218 1.00000
  2.239E+10 2.239E+10 3.769E+00 2.522E+02 4.483E+03 6.537E+03 1.127E+04 1.128E+04 2.176E+07 28.0521 1.00000
  2.512E+10 2.512E+10 3.786E+00 2.832E+02 5.030E+03 7.481E+03 1.279E+04 1.280E+04 2.199E+07 28.2823 1.00000
  2.818E+10 2.818E+10 3.803E+00 3.180E+02 5.644E+03 8.562E+03 1.452E+04 1.453E+04 2.222E+07 28.5126 1.00000
  3.162E+10 3.162E+10 3.821E+00 3.570E+02 6.333E+03 9.800E+03 1.649E+04 1.649E+04 2.244E+07 28.7428 1.00000
  3.548E+10 3.548E+10 3.838E+00 4.007E+02 7.105E+03 1.122E+04 1.872E+04 1.873E+04 2.266E+07 28.9731 1.00000
  3.981E+10 3.981E+10 3.856E+00 4.499E+02 7.972E+03 1.284E+04 2.126E+04 2.127E+04 2.288E+07 29.2033 1.00000
  4.467E+10 4.467E+10 3.874E+00 5.050E+02 8.945E+03 1.470E+04 2.415E+04 2.415E+04 2.309E+07 29.4336 1.00000
  5.012E+10 5.012E+10 3.892E+00 5.669E+02 1.004E+04 1.683E+04 2.743E+04 2.744E+04 2.330E+07 29.6639 1.00000
  5.623E+10 5.623E+10 3.910E+00 6.363E+02 1.126E+04 1.927E+04 3.116E+04 3.117E+04 2.351E+07 29.8941 1.00000
  6.310E+10 6.310E+10 3.928E+00 7.142E+02 1.263E+04 2.206E+04 3.541E+04 3.541E+04 2.372E+07 30.1244 1.00000
  7.079E+10 7.079E+10 3.946E+00 8.016E+02 1.418E+04 2.526E+04 4.024E+04 4.024E+04 2.393E+07 30.3546 1.00000
  7.943E+10 7.943E+10 3.964E+00 8.997E+02 1.591E+04 2.892E+04 4.573E+04 4.573E+04 2.413E+07 30.5849 1.00000
  8.913E+10 8.913E+10 3.983E+00 1.010E+03 1.785E+04 3.312E+04 5.198E+04 5.198E+04 2.433E+07 30.8152 1.00000
  1.000E+11 1.000E+11 4.001E+00 1.133E+03 2.002E+04 3.793E+04 5.909E+04 5.909E+04 2.452E+07 31.0454 1.00000
  1.122E+11 1.122E+11 4.020E+00 1.272E+03 2.247E+04 4.344E+04 6.718E+04 6.718E+04 2.472E+07 31.2757 1.00000
  1.259E+11 1.259E+11 4.038E+00 1.427E+03 2.521E+04 4.975E+04 7.639E+04 7.639E+04 2.491E+07 31.5059 1.00000
  1.413E+11 1.413E+11 4.057E+00 1.602E+03 2.828E+04 5.698E+04 8.687E+04 8.687E+04 2.510E+07 31.7362 1.00000
  1.585E+11 1.585E+11 4.076E+00 1.798E+03 3.173E+04 6.527E+04 9.880E+04 9.880E+04 2.528E+07 31.9664 1.00000
  1.778E+11 1.778E+11 4.095E+00 2.017E+03 3.560E+04 7.477E+04 1.124E+05 1.124E+05 2.547E+07 32.1967 1.00000
  1.995E+11 1.995E+11 4.114E+00 2.264E+03 3.995E+04 8.565E+04 1.279E+05 1.279E+05 2.565E+07 32.4270 1.00000
  2.239E+11 2.239E+11 4.134E+00 2.540E+03 4.482E+04 9.812E+04 1.455E+05 1.455E+05 2.583E+07 32.6572 1.00000
  2.512E+11 2.512E+11 4.153E+00 2.851E+03 5.029E+04 1.124E+05 1.655E+05 1.656E+05 2.600E+07 32.8875 1.00000
  2.818E+11 2.818E+11 4.172E+00 3.199E+03 5.642E+04 1.288E+05 1.884E+05 1.884E+05 2.618E+07 33.1177 1.00000
  3.162E+11 3.162E+11 4.192E+00 3.590E+03 6.330E+04 1.476E+05 2.145E+05 2.145E+05 2.635E+07 33.3480 1.00000
  3.548E+11 3.548E+11 4.212E+00 4.028E+03 7.102E+04 1.691E+05 2.441E+05 2.441E+05 2.652E+07 33.5783 1.00000
  3.981E+11 3.981E+11 4.231E+00 4.520E+03 7.969E+04 1.938E+05 2.780E+05 2.780E+05 2.668E+07 33.8085 1.00000
  4.467E+11 4.467E+11 4.251E+00 5.072E+03 8.941E+04 2.220E+05 3.165E+05 3.165E+05 2.685E+07 34.0388 1.00000
  5.012E+11 5.012E+11 4.271E+00 5.691E+03 1.003E+05 2.545E+05 3.605E+05 3.605E+05 2.701E+07 34.2690 1.00000
  5.623E+11 5.623E+11 4.291E+00 6.386E+03 1.126E+05 2.916E+05 4.106E+05 4.106E+05 2.717E+07 34.4993 1.00000
  6.310E+11 6.310E+11 4.312E+00 7.165E+03 1.263E+05 3.342E+05 4.677E+05 4.677E+05 2.733E+07 34.7295 1.00000
  7.079E+11 7.079E+11 4.332E+00 8.040E+03 1.417E+05 3.831E+05 5.328E+05 5.328E+05 2.748E+07 34.9598 1.00000
  7.943E+11 7.943E+11 4.353E+00 9.022E+03 1.590E+05 4.391E+05 6.071E+05 6.071E+05 2.763E+07 35.1901 1.00000
  8.913E+11 8.913E+11 4.373E+00 1.012E+04 1.784E+05 5.034E+05 6.919E+05 6.919E+05 2.778E+07 35.4203 1.00000
  1.000E+12 1.000E+12 4.394E+00 1.136E+04 2.001E+05 5.771E+05 7.885E+05 7.885E+05 2.793E+07 35.6506 1.00000
  1.122E+12 1.122E+12 4.415E+00 1.274E+04 2.245E+05 6.616E+05 8.988E+05 8.988E+05 2.808E+07 35.8808 1.00000
  1.259E+12 1.259E+12 4.436E+00 1.430E+04 2.519E+05 7.585E+05 1.025E+06 1.025E+06 2.822E+07 36.1111 1.00000
  1.413E+12 1.413E+12 4.457E+00 1.605E+04 2.826E+05 8.696E+05 1.168E+06 1.168E+06 2.836E+07 36.3414 1.00000
  1.585E+12 1.585E+12 4.478E+00 1.800E+04 3.171E+05 9.971E+05 1.332E+06 1.332E+06 2.850E+07 36.5716 1.00000
  1.778E+12 1.778E+12 4.499E+00 2.020E+04 3.558E+05 1.143E+06 1.519E+06 1.519E+06 2.863E+07 36.8019 1.00000
  1.995E+12 1.995E+12 4.520E+00 2.267E+04 3.992E+05 1.311E+06 1.733E+06 1.733E+06 2.877E+07 37.0321 1.00000
  2.239E+12 2.239E+12 4.542E+00 2.543E+04 4.479E+05 1.504E+06 1.977E+06 1.977E+06 2.890E+07 37.2624 1.00000
  2.512E+12 2.512E+12 4.564E+00 2.854E+04 5.025E+05 1.724E+06 2.255E+06 2.255E+06 2.903E+07 37.4926 1.00000
  2.818E+12 2.818E+12 4.585E+00 3.202E+04 5.638E+05 1.978E+06 2.573E+06 2.573E+06 2.916E+07 37.7229 1.00000
  3.162E+12 3.162E+12 4.607E+00 3.593E+04 6.326E+05 2.268E+06 2.937E+06 2.937E+06 2.928E+07 37.9532 1.00000
  3.548E+12 3.548E+12 4.629E+00 4.031E+04 7.097E+05 2.602E+06 3.352E+06 3.352E+06 2.941E+07 38.1834 1.00000
  3.981E+12 3.981E+12 4.651E+00 4.523E+04 7.963E+05 2.984E+06 3.826E+06 3.826E+06 2.953E+07 38.4137 1.00000
  4.467E+12 4.467E+12 4.673E+00 5.075E+04 8.934E+05 3.423E+06 4.367E+06 4.367E+06 2.965E+07 38.6439 1.00000
  5.012E+12 5.012E+12 4.696E+00 5.694E+04 1.002E+06 3.927E+06 4.986E+06 4.986E+06 2.976E+07 38.8742 1.00000
  5.623E+12 5.623E+12 4.718E+00 6.389E+04 1.125E+06 4.505E+06 5.694E+06 5.694E+06 2.988E+07 39.1045 1.00000
  6.310E+12 6.310E+12 4.741E+00 7.169E+04 1.262E+06 5.169E+06 6.502E+06 6.502E+06 2.999E+07 39.3347 1.00000
  7.079E+12 7.079E+12 4.764E+00 8.044E+04 1.416E+06 5.931E+06 7.427E+06 7.427E+06 3.010E+07 39.5650 1.00000
  7.943E+12 7.943E+12 4.786E+00 9.025E+04 1.588E+06 6.805E+06 8.483E+06 8.483E+06 3.021E+07 39.7952 1.00000
  8.913E+12 8.913E+12 4.809E+00 1.013E+05 1.782E+06 7.808E+06 9.692E+06 9.692E+06 3.032E+07 40.0255 1.00000
  1.000E+13 1.000E+13 4.833E+00 1.136E+05 1.999E+06 8.960E+06 1.107E+07 1.107E+07 3.042E+07 40.2558 1.00000
  1.122E+13 1.122E+13 4.856E+00 1.275E+05 2.243E+06 1.028E+07 1.265E+07 1.265E+07 3.053E+07 40.4860 1.00000
  1.259E+13 1.259E+13 4.879E+00 1.430E+05 2.517E+06 1.180E+07 1.446E+07 1.446E+07 3.063E+07 40.7163 1.00000
  1.413E+13 1.413E+13 4.903E+00 1.605E+05 2.824E+06 1.354E+07 1.653E+07 1.653E+07 3.073E+07 40.9465 1.00000
  1.585E+13 1.585E+13 4.926E+00 1.801E+05 3.168E+06 1.554E+07 1.889E+07 1.889E+07 3.083E+07 41.1768 1.00000
  1.778E+13 1.778E+13 4.950E+00 2.021E+05 3.555E+06 1.784E+07 2.160E+07 2.160E+07 3.092E+07 41.4070 1.00000
  1.995E+13 1.995E+13 4.974E+00 2.267E+05 3.988E+06 2.048E+07 2.469E+07 2.469E+07 3.102E+07 41.6373 1.00000
  2.239E+13 2.239E+13 4.998E+00 2.544E+05 4.475E+06 2.351E+07 2.824E+07 2.824E+07 3.111E+07 41.8676 1.00000
  2.512E+13 2.512E+13 5.022E+00 2.854E+05 5.020E+06 2.699E+07 3.229E+07 3.229E+07 3.120E+07 42.0978 1.00000
  2.818E+13 2.818E+13 5.046E+00 3.202E+05 5.632E+06 3.098E+07 3.693E+07 3.693E+07 3.129E+07 42.3281 1.00000
  3.162E+13 3.162E+13 5.070E+00 3.593E+05 6.319E+06 3.557E+07 4.225E+07 4.225E+07 3.138E+07 42.5583 1.00000
  3.548E+13 3.548E+13 5.095E+00 4.032E+05 7.090E+06 4.084E+07 4.833E+07 4.833E+07 3.146E+07 42.7886 1.00000
  3.981E+13 3.981E+13 5.120E+00 4.523E+05 7.955E+06 4.689E+07 5.530E+07 5.530E+07 3.155E+07 43.0189 1.00000
  4.467E+13 4.467E+13 5.144E+00 5.075E+05 8.925E+06 5.384E+07 6.327E+07 6.327E+07 3.163E+07 43.2491 1.00000
  5.012E+13 5.012E+13 5.169E+00 5.695E+05 1.001E+07 6.182E+07 7.241E+07 7.241E+07 3.171E+07 43.4794 1.00000
  5.623E+13 5.623E+13 5.194E+00 6.390E+05 1.123E+07 7.099E+07 8.287E+07 8.287E+07 3.179E+07 43.7096 1.00000
  6.310E+13 6.310E+13 5.219E+00 7.169E+05 1.260E+07 8.153E+07 9.485E+07 9.485E+07 3.186E+07 43.9399 1.00000
  7.079E+13 7.079E+13 5.245E+00 8.044E+05 1.414E+07 9.363E+07 1.086E+08 1.086E+08 3.194E+07 44.1701 1.00000
  7.943E+13 7.943E+13 5.270E+00 9.025E+05 1.587E+07 1.075E+08 1.243E+08 1.243E+08 3.202E+07 44.4004 1.00000
  8.913E+13 8.913E+13 5.296E+00 1.013E+06 1.780E+07 1.235E+08 1.423E+08 1.423E+08 3.209E+07 44.6307 1.00000
