 Incident particle is a Tau with M = 1776.82000 MeV
 Index = 0: Praseodymium
      Absorber with <Z/A> = 0.41871
 Sternheimer coef:  a     k=m_s   x_0    x_1    I[eV]   Cbar  delta0
                 0.2326  2.7331  0.2313  3.2753  535.0  5.8003 0.14

 *** Table generated with PUMAS v1.00 ***

      T         p     Ionization  brems     pair     photonuc  Radloss    dE/dx   CSDA Range  delta   beta
    [MeV]    [MeV/c]  -----------------------[MeV cm^2/g]------------------------  [g/cm^2]
  1.000E+05 1.018E+05 1.699E+00 8.198E-04 1.424E-02 7.648E-03 2.271E-02 1.721E+00 2.905E+04  3.0223 0.99985
  1.122E+05 1.140E+05 1.718E+00 9.501E-04 1.706E-02 8.591E-03 2.660E-02 1.744E+00 3.609E+04  3.1862 0.99988
  1.259E+05 1.277E+05 1.736E+00 1.101E-03 2.037E-02 9.599E-03 3.107E-02 1.767E+00 4.389E+04  3.3540 0.99990
  1.413E+05 1.430E+05 1.755E+00 1.274E-03 2.425E-02 1.073E-02 3.626E-02 1.791E+00 5.252E+04  3.5254 0.99992
  1.585E+05 1.603E+05 1.774E+00 1.474E-03 2.881E-02 1.198E-02 4.227E-02 1.816E+00 6.208E+04  3.7005 0.99994
  1.778E+05 1.796E+05 1.792E+00 1.705E-03 3.413E-02 1.338E-02 4.922E-02 1.841E+00 7.266E+04  3.8791 0.99995
  1.995E+05 2.013E+05 1.810E+00 1.970E-03 4.035E-02 1.496E-02 5.728E-02 1.867E+00 8.436E+04  4.0611 0.99996
  2.239E+05 2.256E+05 1.828E+00 2.276E-03 4.758E-02 1.668E-02 6.654E-02 1.895E+00 9.730E+04  4.2465 0.99997
  2.512E+05 2.530E+05 1.846E+00 2.627E-03 5.600E-02 1.860E-02 7.723E-02 1.923E+00 1.116E+05  4.4350 0.99998
  2.818E+05 2.836E+05 1.863E+00 3.031E-03 6.576E-02 2.076E-02 8.954E-02 1.953E+00 1.274E+05  4.6267 0.99998
  3.162E+05 3.180E+05 1.881E+00 3.495E-03 7.706E-02 2.318E-02 1.037E-01 1.985E+00 1.449E+05  4.8213 0.99998
  3.548E+05 3.566E+05 1.898E+00 4.028E-03 9.013E-02 2.589E-02 1.200E-01 2.018E+00 1.642E+05  5.0189 0.99999
  3.981E+05 3.999E+05 1.915E+00 4.640E-03 1.052E-01 2.890E-02 1.388E-01 2.054E+00 1.854E+05  5.2192 0.99999
  4.467E+05 4.485E+05 1.932E+00 5.342E-03 1.226E-01 3.226E-02 1.602E-01 2.092E+00 2.089E+05  5.4223 0.99999
  5.012E+05 5.030E+05 1.949E+00 6.147E-03 1.426E-01 3.603E-02 1.848E-01 2.134E+00 2.347E+05  5.6278 0.99999
  5.623E+05 5.641E+05 1.965E+00 7.069E-03 1.656E-01 4.009E-02 2.128E-01 2.178E+00 2.630E+05  5.8359 1.00000
  6.310E+05 6.327E+05 1.982E+00 8.126E-03 1.921E-01 4.466E-02 2.449E-01 2.226E+00 2.942E+05  6.0463 1.00000
  7.079E+05 7.097E+05 1.998E+00 9.337E-03 2.224E-01 4.980E-02 2.815E-01 2.279E+00 3.284E+05  6.2589 1.00000
  7.943E+05 7.961E+05 2.014E+00 1.072E-02 2.570E-01 5.558E-02 3.234E-01 2.337E+00 3.658E+05  6.4736 1.00000
  8.913E+05 8.930E+05 2.029E+00 1.231E-02 2.967E-01 6.210E-02 3.711E-01 2.401E+00 4.067E+05  6.6903 1.00000
  1.000E+06 1.002E+06 2.045E+00 1.412E-02 3.420E-01 6.947E-02 4.256E-01 2.471E+00 4.514E+05  6.9089 1.00000
  1.122E+06 1.124E+06 2.060E+00 1.620E-02 3.937E-01 7.778E-02 4.877E-01 2.548E+00 5.000E+05  7.1293 1.00000
  1.259E+06 1.261E+06 2.076E+00 1.857E-02 4.527E-01 8.718E-02 5.584E-01 2.634E+00 5.529E+05  7.3512 1.00000
  1.413E+06 1.414E+06 2.091E+00 2.127E-02 5.198E-01 9.782E-02 6.389E-01 2.730E+00 6.102E+05  7.5747 1.00000
  1.585E+06 1.587E+06 2.106E+00 2.437E-02 5.962E-01 1.099E-01 7.304E-01 2.836E+00 6.721E+05  7.7996 1.00000
  1.778E+06 1.780E+06 2.120E+00 2.790E-02 6.830E-01 1.235E-01 8.344E-01 2.955E+00 7.390E+05  8.0256 1.00000
  1.995E+06 1.997E+06 2.135E+00 3.193E-02 7.816E-01 1.390E-01 9.525E-01 3.087E+00 8.108E+05  8.2528 1.00000
  2.239E+06 2.240E+06 2.149E+00 3.653E-02 8.934E-01 1.565E-01 1.086E+00 3.235E+00 8.879E+05  8.4809 1.00000
  2.512E+06 2.514E+06 2.163E+00 4.177E-02 1.020E+00 1.764E-01 1.238E+00 3.402E+00 9.702E+05  8.7098 1.00000
  2.818E+06 2.820E+06 2.177E+00 4.775E-02 1.164E+00 1.990E-01 1.411E+00 3.588E+00 1.058E+06  8.9393 1.00000
  3.162E+06 3.164E+06 2.191E+00 5.456E-02 1.327E+00 2.247E-01 1.606E+00 3.797E+00 1.151E+06  9.1693 1.00000
  3.548E+06 3.550E+06 2.205E+00 6.232E-02 1.511E+00 2.539E-01 1.827E+00 4.032E+00 1.250E+06  9.3994 1.00000
  3.981E+06 3.983E+06 2.218E+00 7.116E-02 1.719E+00 2.871E-01 2.077E+00 4.295E+00 1.354E+06  9.6296 1.00000
  4.467E+06 4.469E+06 2.232E+00 8.123E-02 1.954E+00 3.249E-01 2.360E+00 4.592E+00 1.463E+06  9.8597 1.00000
  5.012E+06 5.014E+06 2.245E+00 9.269E-02 2.219E+00 3.679E-01 2.680E+00 4.925E+00 1.578E+06 10.0899 1.00000
  5.623E+06 5.625E+06 2.258E+00 1.057E-01 2.519E+00 4.168E-01 3.041E+00 5.300E+00 1.698E+06 10.3201 1.00000
  6.310E+06 6.311E+06 2.271E+00 1.205E-01 2.857E+00 4.724E-01 3.450E+00 5.721E+00 1.823E+06 10.5503 1.00000
  7.079E+06 7.081E+06 2.284E+00 1.374E-01 3.238E+00 5.358E-01 3.912E+00 6.196E+00 1.952E+06 10.7805 1.00000
  7.943E+06 7.945E+06 2.297E+00 1.566E-01 3.668E+00 6.080E-01 4.433E+00 6.730E+00 2.086E+06 11.0107 1.00000
  8.913E+06 8.914E+06 2.310E+00 1.783E-01 4.152E+00 6.903E-01 5.021E+00 7.331E+00 2.224E+06 11.2409 1.00000
  1.000E+07 1.000E+07 2.322E+00 2.031E-01 4.698E+00 7.841E-01 5.685E+00 8.007E+00 2.366E+06 11.4711 1.00000
  1.122E+07 1.122E+07 2.334E+00 2.312E-01 5.312E+00 8.909E-01 6.434E+00 8.769E+00 2.512E+06 11.7013 1.00000
  1.259E+07 1.259E+07 2.347E+00 2.631E-01 6.004E+00 1.013E+00 7.280E+00 9.626E+00 2.661E+06 11.9315 1.00000
  1.413E+07 1.413E+07 2.359E+00 2.992E-01 6.782E+00 1.152E+00 8.233E+00 1.059E+01 2.813E+06 12.1618 1.00000
  1.585E+07 1.585E+07 2.371E+00 3.403E-01 7.657E+00 1.310E+00 9.308E+00 1.168E+01 2.968E+06 12.3920 1.00000
  1.778E+07 1.778E+07 2.383E+00 3.868E-01 8.642E+00 1.490E+00 1.052E+01 1.290E+01 3.126E+06 12.6222 1.00000
  1.995E+07 1.995E+07 2.395E+00 4.396E-01 9.750E+00 1.696E+00 1.189E+01 1.428E+01 3.286E+06 12.8525 1.00000
  2.239E+07 2.239E+07 2.407E+00 4.995E-01 1.099E+01 1.931E+00 1.343E+01 1.583E+01 3.448E+06 13.0827 1.00000
  2.512E+07 2.512E+07 2.419E+00 5.672E-01 1.239E+01 2.199E+00 1.516E+01 1.758E+01 3.612E+06 13.3129 1.00000
  2.818E+07 2.819E+07 2.431E+00 6.440E-01 1.397E+01 2.505E+00 1.712E+01 1.955E+01 3.778E+06 13.5432 1.00000
  3.162E+07 3.162E+07 2.442E+00 7.309E-01 1.574E+01 2.854E+00 1.932E+01 2.176E+01 3.945E+06 13.7734 1.00000
  3.548E+07 3.548E+07 2.454E+00 8.293E-01 1.772E+01 3.252E+00 2.180E+01 2.426E+01 4.113E+06 14.0037 1.00000
  3.981E+07 3.981E+07 2.466E+00 9.407E-01 1.995E+01 3.707E+00 2.460E+01 2.707E+01 4.282E+06 14.2339 1.00000
  4.467E+07 4.467E+07 2.477E+00 1.067E+00 2.246E+01 4.225E+00 2.775E+01 3.023E+01 4.452E+06 14.4642 1.00000
  5.012E+07 5.012E+07 2.489E+00 1.209E+00 2.527E+01 4.817E+00 3.130E+01 3.379E+01 4.623E+06 14.6944 1.00000
  5.623E+07 5.624E+07 2.500E+00 1.370E+00 2.844E+01 5.493E+00 3.530E+01 3.780E+01 4.795E+06 14.9247 1.00000
  6.310E+07 6.310E+07 2.512E+00 1.552E+00 3.199E+01 6.265E+00 3.980E+01 4.232E+01 4.966E+06 15.1549 1.00000
  7.079E+07 7.080E+07 2.524E+00 1.758E+00 3.597E+01 7.146E+00 4.488E+01 4.740E+01 5.139E+06 15.3852 1.00000
  7.943E+07 7.943E+07 2.535E+00 1.990E+00 4.045E+01 8.152E+00 5.059E+01 5.313E+01 5.311E+06 15.6154 1.00000
  8.913E+07 8.913E+07 2.547E+00 2.252E+00 4.548E+01 9.300E+00 5.703E+01 5.958E+01 5.484E+06 15.8457 1.00000
  1.000E+08 1.000E+08 2.559E+00 2.548E+00 5.112E+01 1.061E+01 6.428E+01 6.684E+01 5.656E+06 16.0759 1.00000
  1.122E+08 1.122E+08 2.570E+00 2.883E+00 5.745E+01 1.211E+01 7.245E+01 7.502E+01 5.829E+06 16.3062 1.00000
  1.259E+08 1.259E+08 2.582E+00 3.259E+00 6.457E+01 1.382E+01 8.164E+01 8.423E+01 6.001E+06 16.5364 1.00000
  1.413E+08 1.413E+08 2.594E+00 3.685E+00 7.255E+01 1.577E+01 9.201E+01 9.460E+01 6.174E+06 16.7667 1.00000
  1.585E+08 1.585E+08 2.606E+00 4.164E+00 8.151E+01 1.801E+01 1.037E+02 1.063E+02 6.346E+06 16.9970 1.00000
  1.778E+08 1.778E+08 2.618E+00 4.705E+00 9.156E+01 2.055E+01 1.168E+02 1.194E+02 6.518E+06 17.2272 1.00000
  1.995E+08 1.995E+08 2.630E+00 5.314E+00 1.028E+02 2.347E+01 1.316E+02 1.343E+02 6.689E+06 17.4575 1.00000
  2.239E+08 2.239E+08 2.641E+00 6.000E+00 1.155E+02 2.679E+01 1.483E+02 1.509E+02 6.861E+06 17.6877 1.00000
  2.512E+08 2.512E+08 2.653E+00 6.773E+00 1.297E+02 3.059E+01 1.671E+02 1.698E+02 7.032E+06 17.9180 1.00000
  2.818E+08 2.818E+08 2.665E+00 7.644E+00 1.457E+02 3.494E+01 1.883E+02 1.909E+02 7.202E+06 18.1482 1.00000
  3.162E+08 3.162E+08 2.678E+00 8.625E+00 1.636E+02 3.990E+01 2.121E+02 2.148E+02 7.372E+06 18.3785 1.00000
  3.548E+08 3.548E+08 2.690E+00 9.728E+00 1.837E+02 4.557E+01 2.390E+02 2.417E+02 7.542E+06 18.6088 1.00000
  3.981E+08 3.981E+08 2.702E+00 1.097E+01 2.062E+02 5.205E+01 2.692E+02 2.719E+02 7.711E+06 18.8390 1.00000
  4.467E+08 4.467E+08 2.714E+00 1.237E+01 2.315E+02 5.945E+01 3.033E+02 3.061E+02 7.880E+06 19.0693 1.00000
  5.012E+08 5.012E+08 2.726E+00 1.394E+01 2.599E+02 6.791E+01 3.418E+02 3.445E+02 8.048E+06 19.2995 1.00000
  5.623E+08 5.623E+08 2.739E+00 1.571E+01 2.918E+02 7.758E+01 3.851E+02 3.878E+02 8.216E+06 19.5298 1.00000
  6.310E+08 6.310E+08 2.751E+00 1.770E+01 3.275E+02 8.864E+01 4.339E+02 4.366E+02 8.383E+06 19.7600 1.00000
  7.079E+08 7.079E+08 2.764E+00 1.994E+01 3.677E+02 1.013E+02 4.889E+02 4.916E+02 8.549E+06 19.9903 1.00000
  7.943E+08 7.943E+08 2.776E+00 2.245E+01 4.127E+02 1.157E+02 5.508E+02 5.536E+02 8.715E+06 20.2206 1.00000
  8.913E+08 8.913E+08 2.789E+00 2.528E+01 4.632E+02 1.322E+02 6.207E+02 6.235E+02 8.880E+06 20.4508 1.00000
  1.000E+09 1.000E+09 2.802E+00 2.846E+01 5.199E+02 1.511E+02 6.994E+02 7.022E+02 9.045E+06 20.6811 1.00000
  1.122E+09 1.122E+09 2.814E+00 3.203E+01 5.835E+02 1.727E+02 7.882E+02 7.910E+02 9.209E+06 20.9113 1.00000
  1.259E+09 1.259E+09 2.827E+00 3.605E+01 6.548E+02 1.973E+02 8.882E+02 8.911E+02 9.372E+06 21.1416 1.00000
  1.413E+09 1.413E+09 2.840E+00 4.056E+01 7.349E+02 2.256E+02 1.001E+03 1.004E+03 9.535E+06 21.3718 1.00000
  1.585E+09 1.585E+09 2.853E+00 4.563E+01 8.248E+02 2.578E+02 1.128E+03 1.131E+03 9.697E+06 21.6021 1.00000
  1.778E+09 1.778E+09 2.866E+00 5.132E+01 9.256E+02 2.947E+02 1.272E+03 1.274E+03 9.858E+06 21.8324 1.00000
  1.995E+09 1.995E+09 2.879E+00 5.772E+01 1.039E+03 3.369E+02 1.433E+03 1.436E+03 1.002E+07 22.0626 1.00000
  2.239E+09 2.239E+09 2.892E+00 6.490E+01 1.166E+03 3.851E+02 1.616E+03 1.619E+03 1.018E+07 22.2929 1.00000
  2.512E+09 2.512E+09 2.906E+00 7.297E+01 1.308E+03 4.403E+02 1.821E+03 1.824E+03 1.034E+07 22.5231 1.00000
  2.818E+09 2.818E+09 2.919E+00 8.202E+01 1.468E+03 5.034E+02 2.053E+03 2.056E+03 1.050E+07 22.7534 1.00000
  3.162E+09 3.162E+09 2.932E+00 9.220E+01 1.647E+03 5.756E+02 2.315E+03 2.318E+03 1.065E+07 22.9837 1.00000
  3.548E+09 3.548E+09 2.946E+00 1.036E+02 1.848E+03 6.581E+02 2.610E+03 2.613E+03 1.081E+07 23.2139 1.00000
  3.981E+09 3.981E+09 2.960E+00 1.164E+02 2.074E+03 7.526E+02 2.943E+03 2.946E+03 1.097E+07 23.4442 1.00000
  4.467E+09 4.467E+09 2.973E+00 1.308E+02 2.327E+03 8.606E+02 3.319E+03 3.322E+03 1.112E+07 23.6744 1.00000
  5.012E+09 5.012E+09 2.987E+00 1.470E+02 2.611E+03 9.842E+02 3.743E+03 3.746E+03 1.128E+07 23.9047 1.00000
  5.623E+09 5.623E+09 3.001E+00 1.651E+02 2.930E+03 1.126E+03 4.221E+03 4.224E+03 1.143E+07 24.1349 1.00000
  6.310E+09 6.310E+09 3.014E+00 1.855E+02 3.288E+03 1.287E+03 4.761E+03 4.764E+03 1.159E+07 24.3652 1.00000
  7.079E+09 7.079E+09 3.028E+00 2.084E+02 3.689E+03 1.473E+03 5.370E+03 5.373E+03 1.174E+07 24.5955 1.00000
  7.943E+09 7.943E+09 3.042E+00 2.340E+02 4.140E+03 1.684E+03 6.058E+03 6.061E+03 1.189E+07 24.8257 1.00000
  8.913E+09 8.913E+09 3.057E+00 2.628E+02 4.645E+03 1.927E+03 6.835E+03 6.838E+03 1.204E+07 25.0560 1.00000
  1.000E+10 1.000E+10 3.071E+00 2.952E+02 5.212E+03 2.204E+03 7.711E+03 7.714E+03 1.219E+07 25.2862 1.00000
  1.122E+10 1.122E+10 3.085E+00 3.314E+02 5.848E+03 2.522E+03 8.701E+03 8.704E+03 1.234E+07 25.5165 1.00000
  1.259E+10 1.259E+10 3.099E+00 3.721E+02 6.562E+03 2.885E+03 9.819E+03 9.822E+03 1.249E+07 25.7468 1.00000
  1.413E+10 1.413E+10 3.114E+00 4.178E+02 7.362E+03 3.301E+03 1.108E+04 1.108E+04 1.264E+07 25.9770 1.00000
  1.585E+10 1.585E+10 3.128E+00 4.691E+02 8.261E+03 3.777E+03 1.251E+04 1.251E+04 1.278E+07 26.2073 1.00000
  1.778E+10 1.778E+10 3.143E+00 5.267E+02 9.269E+03 4.322E+03 1.412E+04 1.412E+04 1.293E+07 26.4375 1.00000
  1.995E+10 1.995E+10 3.157E+00 5.912E+02 1.040E+04 4.946E+03 1.594E+04 1.594E+04 1.307E+07 26.6678 1.00000
  2.239E+10 2.239E+10 3.172E+00 6.637E+02 1.167E+04 5.660E+03 1.799E+04 1.800E+04 1.322E+07 26.8981 1.00000
  2.512E+10 2.512E+10 3.187E+00 7.450E+02 1.309E+04 6.478E+03 2.032E+04 2.032E+04 1.336E+07 27.1283 1.00000
  2.818E+10 2.818E+10 3.202E+00 8.363E+02 1.469E+04 7.414E+03 2.294E+04 2.294E+04 1.350E+07 27.3586 1.00000
  3.162E+10 3.162E+10 3.217E+00 9.387E+02 1.648E+04 8.487E+03 2.591E+04 2.591E+04 1.364E+07 27.5888 1.00000
  3.548E+10 3.548E+10 3.232E+00 1.054E+03 1.849E+04 9.714E+03 2.926E+04 2.926E+04 1.378E+07 27.8191 1.00000
  3.981E+10 3.981E+10 3.247E+00 1.183E+03 2.075E+04 1.112E+04 3.305E+04 3.306E+04 1.392E+07 28.0493 1.00000
  4.467E+10 4.467E+10 3.262E+00 1.327E+03 2.328E+04 1.273E+04 3.734E+04 3.734E+04 1.406E+07 28.2796 1.00000
  5.012E+10 5.012E+10 3.278E+00 1.490E+03 2.612E+04 1.457E+04 4.218E+04 4.219E+04 1.420E+07 28.5099 1.00000
  5.623E+10 5.623E+10 3.293E+00 1.672E+03 2.931E+04 1.668E+04 4.767E+04 4.767E+04 1.434E+07 28.7401 1.00000
  6.310E+10 6.310E+10 3.309E+00 1.876E+03 3.288E+04 1.910E+04 5.386E+04 5.387E+04 1.447E+07 28.9704 1.00000
  7.079E+10 7.079E+10 3.324E+00 2.106E+03 3.690E+04 2.187E+04 6.088E+04 6.088E+04 1.461E+07 29.2006 1.00000
  7.943E+10 7.943E+10 3.340E+00 2.363E+03 4.140E+04 2.505E+04 6.881E+04 6.881E+04 1.474E+07 29.4309 1.00000
  8.913E+10 8.913E+10 3.356E+00 2.652E+03 4.645E+04 2.868E+04 7.778E+04 7.778E+04 1.487E+07 29.6612 1.00000
  1.000E+11 1.000E+11 3.372E+00 2.976E+03 5.211E+04 3.284E+04 8.794E+04 8.794E+04 1.500E+07 29.8914 1.00000
  1.122E+11 1.122E+11 3.388E+00 3.339E+03 5.847E+04 3.762E+04 9.943E+04 9.943E+04 1.514E+07 30.1217 1.00000
  1.259E+11 1.259E+11 3.404E+00 3.747E+03 6.561E+04 4.308E+04 1.124E+05 1.124E+05 1.527E+07 30.3519 1.00000
  1.413E+11 1.413E+11 3.420E+00 4.205E+03 7.361E+04 4.934E+04 1.272E+05 1.272E+05 1.539E+07 30.5822 1.00000
  1.585E+11 1.585E+11 3.436E+00 4.719E+03 8.259E+04 5.652E+04 1.438E+05 1.438E+05 1.552E+07 30.8124 1.00000
  1.778E+11 1.778E+11 3.452E+00 5.295E+03 9.266E+04 6.474E+04 1.627E+05 1.627E+05 1.565E+07 31.0427 1.00000
  1.995E+11 1.995E+11 3.469E+00 5.942E+03 1.040E+05 7.416E+04 1.841E+05 1.841E+05 1.577E+07 31.2730 1.00000
  2.239E+11 2.239E+11 3.485E+00 6.667E+03 1.166E+05 8.496E+04 2.083E+05 2.083E+05 1.590E+07 31.5032 1.00000
  2.512E+11 2.512E+11 3.502E+00 7.481E+03 1.309E+05 9.734E+04 2.357E+05 2.357E+05 1.602E+07 31.7335 1.00000
  2.818E+11 2.818E+11 3.518E+00 8.395E+03 1.468E+05 1.115E+05 2.668E+05 2.668E+05 1.614E+07 31.9637 1.00000
  3.162E+11 3.162E+11 3.535E+00 9.420E+03 1.648E+05 1.278E+05 3.020E+05 3.020E+05 1.627E+07 32.1940 1.00000
  3.548E+11 3.548E+11 3.552E+00 1.057E+04 1.849E+05 1.464E+05 3.418E+05 3.418E+05 1.639E+07 32.4243 1.00000
  3.981E+11 3.981E+11 3.569E+00 1.186E+04 2.074E+05 1.678E+05 3.870E+05 3.870E+05 1.651E+07 32.6545 1.00000
  4.467E+11 4.467E+11 3.586E+00 1.331E+04 2.327E+05 1.923E+05 4.383E+05 4.383E+05 1.662E+07 32.8848 1.00000
  5.012E+11 5.012E+11 3.603E+00 1.493E+04 2.611E+05 2.203E+05 4.964E+05 4.964E+05 1.674E+07 33.1150 1.00000
  5.623E+11 5.623E+11 3.621E+00 1.675E+04 2.929E+05 2.525E+05 5.622E+05 5.622E+05 1.686E+07 33.3453 1.00000
  6.310E+11 6.310E+11 3.638E+00 1.880E+04 3.287E+05 2.894E+05 6.369E+05 6.369E+05 1.697E+07 33.5755 1.00000
  7.079E+11 7.079E+11 3.655E+00 2.109E+04 3.688E+05 3.317E+05 7.216E+05 7.216E+05 1.709E+07 33.8058 1.00000
  7.943E+11 7.943E+11 3.673E+00 2.367E+04 4.137E+05 3.803E+05 8.177E+05 8.177E+05 1.720E+07 34.0361 1.00000
  8.913E+11 8.913E+11 3.691E+00 2.656E+04 4.642E+05 4.359E+05 9.267E+05 9.267E+05 1.731E+07 34.2663 1.00000
  1.000E+12 1.000E+12 3.708E+00 2.980E+04 5.208E+05 4.997E+05 1.050E+06 1.050E+06 1.742E+07 34.4966 1.00000
  1.122E+12 1.122E+12 3.726E+00 3.343E+04 5.844E+05 5.729E+05 1.191E+06 1.191E+06 1.753E+07 34.7268 1.00000
  1.259E+12 1.259E+12 3.744E+00 3.751E+04 6.556E+05 6.568E+05 1.350E+06 1.350E+06 1.764E+07 34.9571 1.00000
  1.413E+12 1.413E+12 3.762E+00 4.209E+04 7.356E+05 7.530E+05 1.531E+06 1.531E+06 1.774E+07 35.1874 1.00000
  1.585E+12 1.585E+12 3.780E+00 4.723E+04 8.253E+05 8.634E+05 1.736E+06 1.736E+06 1.785E+07 35.4176 1.00000
  1.778E+12 1.778E+12 3.799E+00 5.299E+04 9.260E+05 9.901E+05 1.969E+06 1.969E+06 1.796E+07 35.6479 1.00000
  1.995E+12 1.995E+12 3.817E+00 5.946E+04 1.039E+06 1.135E+06 2.234E+06 2.234E+06 1.806E+07 35.8781 1.00000
  2.239E+12 2.239E+12 3.835E+00 6.672E+04 1.166E+06 1.302E+06 2.534E+06 2.534E+06 1.816E+07 36.1084 1.00000
  2.512E+12 2.512E+12 3.854E+00 7.486E+04 1.308E+06 1.493E+06 2.876E+06 2.876E+06 1.826E+07 36.3386 1.00000
  2.818E+12 2.818E+12 3.872E+00 8.399E+04 1.467E+06 1.712E+06 3.264E+06 3.264E+06 1.836E+07 36.5689 1.00000
  3.162E+12 3.162E+12 3.891E+00 9.424E+04 1.646E+06 1.964E+06 3.705E+06 3.705E+06 1.846E+07 36.7992 1.00000
  3.548E+12 3.548E+12 3.910E+00 1.057E+05 1.847E+06 2.253E+06 4.206E+06 4.206E+06 1.856E+07 37.0294 1.00000
  3.981E+12 3.981E+12 3.929E+00 1.186E+05 2.072E+06 2.584E+06 4.775E+06 4.775E+06 1.866E+07 37.2597 1.00000
  4.467E+12 4.467E+12 3.948E+00 1.331E+05 2.325E+06 2.964E+06 5.423E+06 5.423E+06 1.875E+07 37.4899 1.00000
  5.012E+12 5.012E+12 3.967E+00 1.494E+05 2.609E+06 3.401E+06 6.159E+06 6.159E+06 1.885E+07 37.7202 1.00000
  5.623E+12 5.623E+12 3.987E+00 1.676E+05 2.927E+06 3.901E+06 6.996E+06 6.996E+06 1.894E+07 37.9505 1.00000
  6.310E+12 6.310E+12 4.006E+00 1.880E+05 3.284E+06 4.476E+06 7.948E+06 7.948E+06 1.903E+07 38.1807 1.00000
  7.079E+12 7.079E+12 4.025E+00 2.110E+05 3.685E+06 5.136E+06 9.031E+06 9.031E+06 1.912E+07 38.4110 1.00000
  7.943E+12 7.943E+12 4.045E+00 2.367E+05 4.134E+06 5.893E+06 1.026E+07 1.026E+07 1.921E+07 38.6412 1.00000
  8.913E+12 8.913E+12 4.065E+00 2.656E+05 4.638E+06 6.761E+06 1.167E+07 1.167E+07 1.930E+07 38.8715 1.00000
  1.000E+13 1.000E+13 4.084E+00 2.980E+05 5.204E+06 7.759E+06 1.326E+07 1.326E+07 1.939E+07 39.1018 1.00000
  1.122E+13 1.122E+13 4.104E+00 3.344E+05 5.838E+06 8.904E+06 1.508E+07 1.508E+07 1.948E+07 39.3320 1.00000
  1.259E+13 1.259E+13 4.124E+00 3.752E+05 6.551E+06 1.022E+07 1.714E+07 1.714E+07 1.956E+07 39.5623 1.00000
  1.413E+13 1.413E+13 4.145E+00 4.210E+05 7.349E+06 1.173E+07 1.950E+07 1.950E+07 1.965E+07 39.7925 1.00000
  1.585E+13 1.585E+13 4.165E+00 4.723E+05 8.246E+06 1.346E+07 2.218E+07 2.218E+07 1.973E+07 40.0228 1.00000
  1.778E+13 1.778E+13 4.185E+00 5.300E+05 9.252E+06 1.545E+07 2.523E+07 2.523E+07 1.981E+07 40.2530 1.00000
  1.995E+13 1.995E+13 4.206E+00 5.947E+05 1.038E+07 1.773E+07 2.871E+07 2.871E+07 1.989E+07 40.4833 1.00000
  2.239E+13 2.239E+13 4.226E+00 6.672E+05 1.165E+07 2.036E+07 3.267E+07 3.267E+07 1.997E+07 40.7136 1.00000
  2.512E+13 2.512E+13 4.247E+00 7.486E+05 1.307E+07 2.337E+07 3.718E+07 3.718E+07 2.005E+07 40.9438 1.00000
  2.818E+13 2.818E+13 4.268E+00 8.400E+05 1.466E+07 2.683E+07 4.233E+07 4.233E+07 2.013E+07 41.1741 1.00000
  3.162E+13 3.162E+13 4.288E+00 9.425E+05 1.645E+07 3.080E+07 4.819E+07 4.819E+07 2.020E+07 41.4043 1.00000
  3.548E+13 3.548E+13 4.309E+00 1.057E+06 1.845E+07 3.536E+07 5.487E+07 5.487E+07 2.028E+07 41.6346 1.00000
  3.981E+13 3.981E+13 4.331E+00 1.186E+06 2.070E+07 4.060E+07 6.249E+07 6.249E+07 2.035E+07 41.8649 1.00000
  4.467E+13 4.467E+13 4.352E+00 1.331E+06 2.323E+07 4.662E+07 7.118E+07 7.118E+07 2.043E+07 42.0951 1.00000
  5.012E+13 5.012E+13 4.373E+00 1.494E+06 2.606E+07 5.353E+07 8.109E+07 8.109E+07 2.050E+07 42.3254 1.00000
  5.623E+13 5.623E+13 4.395E+00 1.676E+06 2.924E+07 6.148E+07 9.239E+07 9.239E+07 2.057E+07 42.5556 1.00000
  6.310E+13 6.310E+13 4.416E+00 1.880E+06 3.281E+07 7.060E+07 1.053E+08 1.053E+08 2.064E+07 42.7859 1.00000
  7.079E+13 7.079E+13 4.438E+00 2.110E+06 3.681E+07 8.108E+07 1.200E+08 1.200E+08 2.071E+07 43.0161 1.00000
  7.943E+13 7.943E+13 4.460E+00 2.367E+06 4.130E+07 9.312E+07 1.368E+08 1.368E+08 2.077E+07 43.2464 1.00000
  8.913E+13 8.913E+13 4.482E+00 2.656E+06 4.633E+07 1.070E+08 1.559E+08 1.559E+08 2.084E+07 43.4767 1.00000
