 Incident particle is a Tau with M = 1776.82000 MeV
 Index = 0: Pyridine
      Absorber with <Z/A> = 0.53092
 Sternheimer coef:  a     k=m_s   x_0    x_1    I[eV]   Cbar  delta0
                 0.1640  3.1977  0.1670  2.5245   66.2  3.3148 0.00

 *** Table generated with PUMAS v1.00 ***

      T         p     Ionization  brems     pair     photonuc  Radloss    dE/dx   CSDA Range  delta   beta
    [MeV]    [MeV/c]  -----------------------[MeV cm^2/g]------------------------  [g/cm^2]
  1.000E+05 1.018E+05 2.345E+00 1.189E-04 1.845E-03 8.405E-03 1.037E-02 2.356E+00 2.122E+04  4.8509 0.99985
  1.122E+05 1.140E+05 2.365E+00 1.373E-04 2.230E-03 9.496E-03 1.186E-02 2.377E+00 2.638E+04  5.0640 0.99988
  1.259E+05 1.277E+05 2.385E+00 1.585E-04 2.686E-03 1.067E-02 1.352E-02 2.399E+00 3.211E+04  5.2794 0.99990
  1.413E+05 1.430E+05 2.405E+00 1.829E-04 3.223E-03 1.200E-02 1.540E-02 2.421E+00 3.849E+04  5.4968 0.99992
  1.585E+05 1.603E+05 2.425E+00 2.109E-04 3.856E-03 1.348E-02 1.755E-02 2.443E+00 4.558E+04  5.7162 0.99994
  1.778E+05 1.796E+05 2.445E+00 2.431E-04 4.598E-03 1.514E-02 1.998E-02 2.465E+00 5.346E+04  5.9372 0.99995
  1.995E+05 2.013E+05 2.465E+00 2.802E-04 5.468E-03 1.703E-02 2.278E-02 2.488E+00 6.222E+04  6.1598 0.99996
  2.239E+05 2.256E+05 2.484E+00 3.227E-04 6.486E-03 1.910E-02 2.591E-02 2.510E+00 7.196E+04  6.3837 0.99997
  2.512E+05 2.530E+05 2.504E+00 3.715E-04 7.673E-03 2.142E-02 2.947E-02 2.533E+00 8.279E+04  6.6089 0.99998
  2.818E+05 2.836E+05 2.524E+00 4.276E-04 9.057E-03 2.404E-02 3.352E-02 2.557E+00 9.484E+04  6.8351 0.99998
  3.162E+05 3.180E+05 2.543E+00 4.919E-04 1.067E-02 2.700E-02 3.815E-02 2.581E+00 1.082E+05  7.0622 0.99998
  3.548E+05 3.566E+05 2.562E+00 5.656E-04 1.254E-02 3.032E-02 4.342E-02 2.606E+00 1.231E+05  7.2900 0.99999
  3.981E+05 3.999E+05 2.582E+00 6.502E-04 1.470E-02 3.403E-02 4.938E-02 2.631E+00 1.396E+05  7.5185 0.99999
  4.467E+05 4.485E+05 2.601E+00 7.471E-04 1.721E-02 3.819E-02 5.615E-02 2.657E+00 1.580E+05  7.7474 0.99999
  5.012E+05 5.030E+05 2.620E+00 8.582E-04 2.011E-02 4.288E-02 6.385E-02 2.684E+00 1.784E+05  7.9766 0.99999
  5.623E+05 5.641E+05 2.639E+00 9.854E-04 2.346E-02 4.796E-02 7.241E-02 2.712E+00 2.011E+05  8.2061 1.00000
  6.310E+05 6.327E+05 2.659E+00 1.131E-03 2.733E-02 5.369E-02 8.215E-02 2.741E+00 2.263E+05  8.4356 1.00000
  7.079E+05 7.097E+05 2.678E+00 1.298E-03 3.178E-02 6.015E-02 9.323E-02 2.771E+00 2.542E+05  8.6653 1.00000
  7.943E+05 7.961E+05 2.697E+00 1.489E-03 3.690E-02 6.746E-02 1.058E-01 2.802E+00 2.852E+05  8.8950 1.00000
  8.913E+05 8.930E+05 2.716E+00 1.708E-03 4.278E-02 7.572E-02 1.202E-01 2.836E+00 3.196E+05  9.1248 1.00000
  1.000E+06 1.002E+06 2.734E+00 1.958E-03 4.953E-02 8.506E-02 1.366E-01 2.871E+00 3.577E+05  9.3546 1.00000
  1.122E+06 1.124E+06 2.753E+00 2.244E-03 5.727E-02 9.564E-02 1.552E-01 2.908E+00 3.999E+05  9.5845 1.00000
  1.259E+06 1.261E+06 2.772E+00 2.571E-03 6.613E-02 1.076E-01 1.763E-01 2.948E+00 4.467E+05  9.8144 1.00000
  1.413E+06 1.414E+06 2.790E+00 2.946E-03 7.627E-02 1.212E-01 2.004E-01 2.991E+00 4.984E+05 10.0443 1.00000
  1.585E+06 1.587E+06 2.809E+00 3.374E-03 8.786E-02 1.366E-01 2.279E-01 3.037E+00 5.556E+05 10.2743 1.00000
  1.778E+06 1.780E+06 2.827E+00 3.863E-03 1.011E-01 1.541E-01 2.591E-01 3.086E+00 6.188E+05 10.5043 1.00000
  1.995E+06 1.997E+06 2.845E+00 4.422E-03 1.162E-01 1.740E-01 2.946E-01 3.140E+00 6.885E+05 10.7344 1.00000
  2.239E+06 2.240E+06 2.863E+00 5.061E-03 1.334E-01 1.965E-01 3.349E-01 3.198E+00 7.653E+05 10.9645 1.00000
  2.512E+06 2.514E+06 2.881E+00 5.790E-03 1.529E-01 2.221E-01 3.809E-01 3.262E+00 8.499E+05 11.1945 1.00000
  2.818E+06 2.820E+06 2.899E+00 6.623E-03 1.752E-01 2.512E-01 4.331E-01 3.332E+00 9.429E+05 11.4246 1.00000
  3.162E+06 3.164E+06 2.916E+00 7.575E-03 2.005E-01 2.844E-01 4.925E-01 3.409E+00 1.045E+06 11.6548 1.00000
  3.548E+06 3.550E+06 2.934E+00 8.660E-03 2.293E-01 3.220E-01 5.600E-01 3.494E+00 1.157E+06 11.8849 1.00000
  3.981E+06 3.983E+06 2.951E+00 9.899E-03 2.619E-01 3.649E-01 6.367E-01 3.587E+00 1.279E+06 12.1151 1.00000
  4.467E+06 4.469E+06 2.968E+00 1.131E-02 2.989E-01 4.137E-01 7.239E-01 3.692E+00 1.413E+06 12.3452 1.00000
  5.012E+06 5.014E+06 2.985E+00 1.293E-02 3.408E-01 4.692E-01 8.230E-01 3.808E+00 1.558E+06 12.5754 1.00000
  5.623E+06 5.625E+06 3.001E+00 1.476E-02 3.883E-01 5.325E-01 9.355E-01 3.937E+00 1.716E+06 12.8056 1.00000
  6.310E+06 6.311E+06 3.018E+00 1.686E-02 4.421E-01 6.045E-01 1.063E+00 4.081E+00 1.887E+06 13.0358 1.00000
  7.079E+06 7.081E+06 3.034E+00 1.925E-02 5.028E-01 6.866E-01 1.209E+00 4.243E+00 2.072E+06 13.2660 1.00000
  7.943E+06 7.945E+06 3.050E+00 2.197E-02 5.716E-01 7.801E-01 1.374E+00 4.424E+00 2.272E+06 13.4962 1.00000
  8.913E+06 8.914E+06 3.066E+00 2.507E-02 6.492E-01 8.866E-01 1.561E+00 4.627E+00 2.486E+06 13.7264 1.00000
  1.000E+07 1.000E+07 3.082E+00 2.860E-02 7.369E-01 1.008E+00 1.774E+00 4.856E+00 2.715E+06 13.9566 1.00000
  1.122E+07 1.122E+07 3.098E+00 3.262E-02 8.359E-01 1.147E+00 2.015E+00 5.113E+00 2.960E+06 14.1868 1.00000
  1.259E+07 1.259E+07 3.114E+00 3.719E-02 9.475E-01 1.304E+00 2.289E+00 5.403E+00 3.221E+06 14.4170 1.00000
  1.413E+07 1.413E+07 3.129E+00 4.240E-02 1.073E+00 1.485E+00 2.600E+00 5.730E+00 3.497E+06 14.6473 1.00000
  1.585E+07 1.585E+07 3.145E+00 4.831E-02 1.215E+00 1.690E+00 2.954E+00 6.098E+00 3.789E+06 14.8775 1.00000
  1.778E+07 1.778E+07 3.160E+00 5.504E-02 1.375E+00 1.924E+00 3.355E+00 6.514E+00 4.096E+06 15.1077 1.00000
  1.995E+07 1.995E+07 3.175E+00 6.269E-02 1.556E+00 2.191E+00 3.810E+00 6.985E+00 4.418E+06 15.3380 1.00000
  2.239E+07 2.239E+07 3.190E+00 7.139E-02 1.759E+00 2.496E+00 4.326E+00 7.516E+00 4.754E+06 15.5682 1.00000
  2.512E+07 2.512E+07 3.205E+00 8.126E-02 1.987E+00 2.844E+00 4.912E+00 8.117E+00 5.104E+06 15.7984 1.00000
  2.818E+07 2.819E+07 3.220E+00 9.248E-02 2.244E+00 3.241E+00 5.577E+00 8.797E+00 5.467E+06 16.0287 1.00000
  3.162E+07 3.162E+07 3.235E+00 1.052E-01 2.534E+00 3.694E+00 6.332E+00 9.567E+00 5.842E+06 16.2589 1.00000
  3.548E+07 3.548E+07 3.250E+00 1.197E-01 2.859E+00 4.210E+00 7.189E+00 1.044E+01 6.229E+06 16.4892 1.00000
  3.981E+07 3.981E+07 3.264E+00 1.361E-01 3.225E+00 4.800E+00 8.162E+00 1.143E+01 6.625E+06 16.7194 1.00000
  4.467E+07 4.467E+07 3.279E+00 1.547E-01 3.637E+00 5.473E+00 9.265E+00 1.254E+01 7.032E+06 16.9497 1.00000
  5.012E+07 5.012E+07 3.294E+00 1.758E-01 4.100E+00 6.242E+00 1.052E+01 1.381E+01 7.446E+06 17.1799 1.00000
  5.623E+07 5.624E+07 3.309E+00 1.997E-01 4.620E+00 7.119E+00 1.194E+01 1.525E+01 7.868E+06 17.4102 1.00000
  6.310E+07 6.310E+07 3.323E+00 2.268E-01 5.204E+00 8.121E+00 1.355E+01 1.688E+01 8.296E+06 17.6404 1.00000
  7.079E+07 7.080E+07 3.338E+00 2.575E-01 5.861E+00 9.265E+00 1.538E+01 1.872E+01 8.730E+06 17.8707 1.00000
  7.943E+07 7.943E+07 3.353E+00 2.923E-01 6.599E+00 1.057E+01 1.746E+01 2.081E+01 9.168E+06 18.1009 1.00000
  8.913E+07 8.913E+07 3.368E+00 3.317E-01 7.428E+00 1.206E+01 1.982E+01 2.319E+01 9.610E+06 18.3312 1.00000
  1.000E+08 1.000E+08 3.382E+00 3.762E-01 8.359E+00 1.376E+01 2.250E+01 2.588E+01 1.005E+07 18.5614 1.00000
  1.122E+08 1.122E+08 3.397E+00 4.267E-01 9.404E+00 1.571E+01 2.554E+01 2.894E+01 1.050E+07 18.7917 1.00000
  1.259E+08 1.259E+08 3.412E+00 4.837E-01 1.058E+01 1.793E+01 2.899E+01 3.241E+01 1.095E+07 19.0219 1.00000
  1.413E+08 1.413E+08 3.427E+00 5.483E-01 1.190E+01 2.047E+01 3.291E+01 3.634E+01 1.140E+07 19.2522 1.00000
  1.585E+08 1.585E+08 3.442E+00 6.212E-01 1.338E+01 2.337E+01 3.736E+01 4.081E+01 1.185E+07 19.4825 1.00000
  1.778E+08 1.778E+08 3.457E+00 7.037E-01 1.504E+01 2.668E+01 4.242E+01 4.588E+01 1.229E+07 19.7127 1.00000
  1.995E+08 1.995E+08 3.472E+00 7.970E-01 1.691E+01 3.046E+01 4.816E+01 5.163E+01 1.274E+07 19.9430 1.00000
  2.239E+08 2.239E+08 3.487E+00 9.023E-01 1.900E+01 3.478E+01 5.468E+01 5.817E+01 1.319E+07 20.1732 1.00000
  2.512E+08 2.512E+08 3.503E+00 1.021E+00 2.135E+01 3.971E+01 6.208E+01 6.559E+01 1.363E+07 20.4035 1.00000
  2.818E+08 2.818E+08 3.518E+00 1.155E+00 2.399E+01 4.535E+01 7.050E+01 7.401E+01 1.407E+07 20.6337 1.00000
  3.162E+08 3.162E+08 3.533E+00 1.307E+00 2.695E+01 5.179E+01 8.005E+01 8.359E+01 1.451E+07 20.8640 1.00000
  3.548E+08 3.548E+08 3.549E+00 1.478E+00 3.028E+01 5.916E+01 9.091E+01 9.446E+01 1.494E+07 21.0943 1.00000
  3.981E+08 3.981E+08 3.564E+00 1.671E+00 3.401E+01 6.757E+01 1.032E+02 1.068E+02 1.537E+07 21.3245 1.00000
  4.467E+08 4.467E+08 3.580E+00 1.889E+00 3.820E+01 7.718E+01 1.173E+02 1.208E+02 1.580E+07 21.5548 1.00000
  5.012E+08 5.012E+08 3.595E+00 2.134E+00 4.290E+01 8.817E+01 1.332E+02 1.368E+02 1.623E+07 21.7850 1.00000
  5.623E+08 5.623E+08 3.611E+00 2.411E+00 4.817E+01 1.007E+02 1.513E+02 1.549E+02 1.665E+07 22.0153 1.00000
  6.310E+08 6.310E+08 3.627E+00 2.722E+00 5.409E+01 1.151E+02 1.719E+02 1.755E+02 1.706E+07 22.2455 1.00000
  7.079E+08 7.079E+08 3.642E+00 3.074E+00 6.073E+01 1.315E+02 1.953E+02 1.989E+02 1.748E+07 22.4758 1.00000
  7.943E+08 7.943E+08 3.658E+00 3.470E+00 6.819E+01 1.502E+02 2.219E+02 2.256E+02 1.789E+07 22.7061 1.00000
  8.913E+08 8.913E+08 3.674E+00 3.916E+00 7.655E+01 1.717E+02 2.522E+02 2.558E+02 1.829E+07 22.9363 1.00000
  1.000E+09 1.000E+09 3.691E+00 4.418E+00 8.594E+01 1.962E+02 2.866E+02 2.902E+02 1.869E+07 23.1666 1.00000
  1.122E+09 1.122E+09 3.707E+00 4.983E+00 9.647E+01 2.242E+02 3.257E+02 3.294E+02 1.909E+07 23.3968 1.00000
  1.259E+09 1.259E+09 3.723E+00 5.620E+00 1.083E+02 2.563E+02 3.702E+02 3.739E+02 1.948E+07 23.6271 1.00000
  1.413E+09 1.413E+09 3.739E+00 6.336E+00 1.216E+02 2.929E+02 4.208E+02 4.245E+02 1.986E+07 23.8573 1.00000
  1.585E+09 1.585E+09 3.756E+00 7.143E+00 1.364E+02 3.348E+02 4.784E+02 4.821E+02 2.024E+07 24.0876 1.00000
  1.778E+09 1.778E+09 3.772E+00 8.050E+00 1.531E+02 3.827E+02 5.439E+02 5.476E+02 2.062E+07 24.3179 1.00000
  1.995E+09 1.995E+09 3.789E+00 9.070E+00 1.719E+02 4.375E+02 6.184E+02 6.222E+02 2.099E+07 24.5481 1.00000
  2.239E+09 2.239E+09 3.806E+00 1.022E+01 1.929E+02 5.001E+02 7.032E+02 7.070E+02 2.136E+07 24.7784 1.00000
  2.512E+09 2.512E+09 3.822E+00 1.151E+01 2.165E+02 5.717E+02 7.997E+02 8.036E+02 2.173E+07 25.0086 1.00000
  2.818E+09 2.818E+09 3.839E+00 1.296E+01 2.430E+02 6.537E+02 9.096E+02 9.135E+02 2.208E+07 25.2389 1.00000
  3.162E+09 3.162E+09 3.856E+00 1.459E+01 2.727E+02 7.474E+02 1.035E+03 1.039E+03 2.244E+07 25.4692 1.00000
  3.548E+09 3.548E+09 3.873E+00 1.642E+01 3.060E+02 8.546E+02 1.177E+03 1.181E+03 2.279E+07 25.6994 1.00000
  3.981E+09 3.981E+09 3.891E+00 1.849E+01 3.434E+02 9.773E+02 1.339E+03 1.343E+03 2.313E+07 25.9297 1.00000
  4.467E+09 4.467E+09 3.908E+00 2.080E+01 3.853E+02 1.118E+03 1.524E+03 1.528E+03 2.347E+07 26.1599 1.00000
  5.012E+09 5.012E+09 3.925E+00 2.341E+01 4.324E+02 1.278E+03 1.734E+03 1.738E+03 2.381E+07 26.3902 1.00000
  5.623E+09 5.623E+09 3.943E+00 2.633E+01 4.852E+02 1.462E+03 1.973E+03 1.977E+03 2.414E+07 26.6204 1.00000
  6.310E+09 6.310E+09 3.960E+00 2.962E+01 5.445E+02 1.672E+03 2.246E+03 2.250E+03 2.446E+07 26.8507 1.00000
  7.079E+09 7.079E+09 3.978E+00 3.331E+01 6.110E+02 1.912E+03 2.557E+03 2.561E+03 2.478E+07 27.0810 1.00000
  7.943E+09 7.943E+09 3.996E+00 3.745E+01 6.856E+02 2.187E+03 2.911E+03 2.915E+03 2.510E+07 27.3112 1.00000
  8.913E+09 8.913E+09 4.014E+00 4.211E+01 7.693E+02 2.502E+03 3.314E+03 3.318E+03 2.541E+07 27.5415 1.00000
  1.000E+10 1.000E+10 4.032E+00 4.734E+01 8.633E+02 2.863E+03 3.773E+03 3.777E+03 2.572E+07 27.7717 1.00000
  1.122E+10 1.122E+10 4.050E+00 5.321E+01 9.687E+02 3.275E+03 4.297E+03 4.301E+03 2.602E+07 28.0020 1.00000
  1.259E+10 1.259E+10 4.068E+00 5.981E+01 1.087E+03 3.747E+03 4.894E+03 4.898E+03 2.632E+07 28.2323 1.00000
  1.413E+10 1.413E+10 4.086E+00 6.722E+01 1.220E+03 4.287E+03 5.574E+03 5.578E+03 2.662E+07 28.4625 1.00000
  1.585E+10 1.585E+10 4.105E+00 7.553E+01 1.368E+03 4.905E+03 6.349E+03 6.353E+03 2.691E+07 28.6928 1.00000
  1.778E+10 1.778E+10 4.123E+00 8.487E+01 1.535E+03 5.613E+03 7.233E+03 7.238E+03 2.719E+07 28.9230 1.00000
  1.995E+10 1.995E+10 4.142E+00 9.535E+01 1.723E+03 6.423E+03 8.242E+03 8.246E+03 2.748E+07 29.1533 1.00000
  2.239E+10 2.239E+10 4.160E+00 1.071E+02 1.933E+03 7.351E+03 9.391E+03 9.395E+03 2.775E+07 29.3836 1.00000
  2.512E+10 2.512E+10 4.179E+00 1.203E+02 2.169E+03 8.413E+03 1.070E+04 1.071E+04 2.803E+07 29.6138 1.00000
  2.818E+10 2.818E+10 4.198E+00 1.351E+02 2.434E+03 9.629E+03 1.220E+04 1.220E+04 2.829E+07 29.8441 1.00000
  3.162E+10 3.162E+10 4.217E+00 1.518E+02 2.731E+03 1.102E+04 1.390E+04 1.391E+04 2.856E+07 30.0743 1.00000
  3.548E+10 3.548E+10 4.236E+00 1.705E+02 3.064E+03 1.262E+04 1.585E+04 1.585E+04 2.882E+07 30.3046 1.00000
  3.981E+10 3.981E+10 4.255E+00 1.914E+02 3.438E+03 1.444E+04 1.807E+04 1.807E+04 2.908E+07 30.5348 1.00000
  4.467E+10 4.467E+10 4.275E+00 2.150E+02 3.857E+03 1.653E+04 2.060E+04 2.061E+04 2.933E+07 30.7651 1.00000
  5.012E+10 5.012E+10 4.294E+00 2.414E+02 4.328E+03 1.893E+04 2.349E+04 2.350E+04 2.958E+07 30.9954 1.00000
  5.623E+10 5.623E+10 4.314E+00 2.710E+02 4.856E+03 2.167E+04 2.679E+04 2.680E+04 2.982E+07 31.2256 1.00000
  6.310E+10 6.310E+10 4.333E+00 3.043E+02 5.448E+03 2.481E+04 3.056E+04 3.056E+04 3.006E+07 31.4559 1.00000
  7.079E+10 7.079E+10 4.353E+00 3.416E+02 6.113E+03 2.841E+04 3.486E+04 3.486E+04 3.030E+07 31.6861 1.00000
  7.943E+10 7.943E+10 4.373E+00 3.835E+02 6.859E+03 3.253E+04 3.977E+04 3.977E+04 3.053E+07 31.9164 1.00000
  8.913E+10 8.913E+10 4.393E+00 4.305E+02 7.696E+03 3.725E+04 4.537E+04 4.538E+04 3.076E+07 32.1467 1.00000
  1.000E+11 1.000E+11 4.413E+00 4.833E+02 8.635E+03 4.265E+04 5.177E+04 5.178E+04 3.098E+07 32.3769 1.00000
  1.122E+11 1.122E+11 4.433E+00 5.425E+02 9.688E+03 4.885E+04 5.908E+04 5.908E+04 3.120E+07 32.6072 1.00000
  1.259E+11 1.259E+11 4.454E+00 6.089E+02 1.087E+04 5.595E+04 6.743E+04 6.743E+04 3.142E+07 32.8374 1.00000
  1.413E+11 1.413E+11 4.474E+00 6.834E+02 1.220E+04 6.408E+04 7.696E+04 7.696E+04 3.164E+07 33.0677 1.00000
  1.585E+11 1.585E+11 4.495E+00 7.671E+02 1.368E+04 7.340E+04 8.785E+04 8.785E+04 3.185E+07 33.2979 1.00000
  1.778E+11 1.778E+11 4.515E+00 8.610E+02 1.535E+04 8.408E+04 1.003E+05 1.003E+05 3.205E+07 33.5282 1.00000
  1.995E+11 1.995E+11 4.536E+00 9.663E+02 1.723E+04 9.631E+04 1.145E+05 1.145E+05 3.225E+07 33.7585 1.00000
  2.239E+11 2.239E+11 4.557E+00 1.084E+03 1.933E+04 1.103E+05 1.307E+05 1.308E+05 3.245E+07 33.9887 1.00000
  2.512E+11 2.512E+11 4.578E+00 1.217E+03 2.169E+04 1.264E+05 1.493E+05 1.493E+05 3.265E+07 34.2190 1.00000
  2.818E+11 2.818E+11 4.599E+00 1.366E+03 2.433E+04 1.448E+05 1.705E+05 1.705E+05 3.284E+07 34.4492 1.00000
  3.162E+11 3.162E+11 4.621E+00 1.533E+03 2.730E+04 1.659E+05 1.948E+05 1.948E+05 3.303E+07 34.6795 1.00000
  3.548E+11 3.548E+11 4.642E+00 1.720E+03 3.063E+04 1.901E+05 2.225E+05 2.225E+05 3.322E+07 34.9098 1.00000
  3.981E+11 3.981E+11 4.664E+00 1.930E+03 3.437E+04 2.179E+05 2.542E+05 2.542E+05 3.340E+07 35.1400 1.00000
  4.467E+11 4.467E+11 4.685E+00 2.166E+03 3.856E+04 2.497E+05 2.904E+05 2.904E+05 3.358E+07 35.3703 1.00000
  5.012E+11 5.012E+11 4.707E+00 2.431E+03 4.326E+04 2.861E+05 3.318E+05 3.318E+05 3.375E+07 35.6005 1.00000
  5.623E+11 5.623E+11 4.729E+00 2.728E+03 4.854E+04 3.279E+05 3.792E+05 3.792E+05 3.393E+07 35.8308 1.00000
  6.310E+11 6.310E+11 4.751E+00 3.061E+03 5.446E+04 3.759E+05 4.334E+05 4.334E+05 3.410E+07 36.0610 1.00000
  7.079E+11 7.079E+11 4.773E+00 3.435E+03 6.110E+04 4.308E+05 4.954E+05 4.954E+05 3.426E+07 36.2913 1.00000
  7.943E+11 7.943E+11 4.795E+00 3.855E+03 6.855E+04 4.938E+05 5.662E+05 5.662E+05 3.443E+07 36.5216 1.00000
  8.913E+11 8.913E+11 4.818E+00 4.325E+03 7.692E+04 5.661E+05 6.473E+05 6.473E+05 3.459E+07 36.7518 1.00000
  1.000E+12 1.000E+12 4.840E+00 4.853E+03 8.630E+04 6.489E+05 7.401E+05 7.401E+05 3.475E+07 36.9821 1.00000
  1.122E+12 1.122E+12 4.863E+00 5.446E+03 9.683E+04 7.440E+05 8.462E+05 8.462E+05 3.490E+07 37.2123 1.00000
  1.259E+12 1.259E+12 4.885E+00 6.111E+03 1.086E+05 8.529E+05 9.677E+05 9.677E+05 3.505E+07 37.4426 1.00000
  1.413E+12 1.413E+12 4.908E+00 6.857E+03 1.219E+05 9.779E+05 1.107E+06 1.107E+06 3.520E+07 37.6729 1.00000
  1.585E+12 1.585E+12 4.931E+00 7.694E+03 1.368E+05 1.121E+06 1.266E+06 1.266E+06 3.535E+07 37.9031 1.00000
  1.778E+12 1.778E+12 4.954E+00 8.633E+03 1.534E+05 1.286E+06 1.448E+06 1.448E+06 3.549E+07 38.1334 1.00000
  1.995E+12 1.995E+12 4.978E+00 9.687E+03 1.721E+05 1.474E+06 1.656E+06 1.656E+06 3.563E+07 38.3636 1.00000
  2.239E+12 2.239E+12 5.001E+00 1.087E+04 1.931E+05 1.691E+06 1.895E+06 1.895E+06 3.577E+07 38.5939 1.00000
  2.512E+12 2.512E+12 5.025E+00 1.220E+04 2.167E+05 1.939E+06 2.168E+06 2.168E+06 3.590E+07 38.8241 1.00000
  2.818E+12 2.818E+12 5.048E+00 1.368E+04 2.431E+05 2.224E+06 2.481E+06 2.481E+06 3.603E+07 39.0544 1.00000
  3.162E+12 3.162E+12 5.072E+00 1.536E+04 2.728E+05 2.551E+06 2.839E+06 2.839E+06 3.616E+07 39.2847 1.00000
  3.548E+12 3.548E+12 5.096E+00 1.723E+04 3.061E+05 2.926E+06 3.249E+06 3.249E+06 3.629E+07 39.5149 1.00000
  3.981E+12 3.981E+12 5.120E+00 1.933E+04 3.434E+05 3.356E+06 3.719E+06 3.719E+06 3.642E+07 39.7452 1.00000
  4.467E+12 4.467E+12 5.144E+00 2.169E+04 3.853E+05 3.850E+06 4.257E+06 4.257E+06 3.654E+07 39.9754 1.00000
  5.012E+12 5.012E+12 5.168E+00 2.434E+04 4.323E+05 4.416E+06 4.873E+06 4.873E+06 3.666E+07 40.2057 1.00000
  5.623E+12 5.623E+12 5.193E+00 2.731E+04 4.850E+05 5.066E+06 5.579E+06 5.579E+06 3.678E+07 40.4360 1.00000
  6.310E+12 6.310E+12 5.217E+00 3.064E+04 5.441E+05 5.813E+06 6.387E+06 6.388E+06 3.689E+07 40.6662 1.00000
  7.079E+12 7.079E+12 5.242E+00 3.438E+04 6.105E+05 6.669E+06 7.314E+06 7.314E+06 3.700E+07 40.8965 1.00000
  7.943E+12 7.943E+12 5.267E+00 3.858E+04 6.850E+05 7.652E+06 8.376E+06 8.376E+06 3.712E+07 41.1267 1.00000
  8.913E+12 8.913E+12 5.292E+00 4.328E+04 7.685E+05 8.781E+06 9.593E+06 9.593E+06 3.722E+07 41.3570 1.00000
  1.000E+13 1.000E+13 5.317E+00 4.857E+04 8.623E+05 1.008E+07 1.099E+07 1.099E+07 3.733E+07 41.5873 1.00000
  1.122E+13 1.122E+13 5.342E+00 5.449E+04 9.674E+05 1.156E+07 1.258E+07 1.258E+07 3.743E+07 41.8175 1.00000
  1.259E+13 1.259E+13 5.368E+00 6.114E+04 1.085E+06 1.327E+07 1.442E+07 1.442E+07 3.754E+07 42.0478 1.00000
  1.413E+13 1.413E+13 5.393E+00 6.860E+04 1.218E+06 1.523E+07 1.652E+07 1.652E+07 3.764E+07 42.2780 1.00000
  1.585E+13 1.585E+13 5.419E+00 7.697E+04 1.366E+06 1.748E+07 1.892E+07 1.892E+07 3.773E+07 42.5083 1.00000
  1.778E+13 1.778E+13 5.445E+00 8.637E+04 1.533E+06 2.006E+07 2.168E+07 2.168E+07 3.783E+07 42.7385 1.00000
  1.995E+13 1.995E+13 5.471E+00 9.690E+04 1.720E+06 2.303E+07 2.485E+07 2.485E+07 3.792E+07 42.9688 1.00000
  2.239E+13 2.239E+13 5.497E+00 1.087E+05 1.930E+06 2.644E+07 2.847E+07 2.847E+07 3.801E+07 43.1991 1.00000
  2.512E+13 2.512E+13 5.523E+00 1.220E+05 2.165E+06 3.035E+07 3.263E+07 3.263E+07 3.810E+07 43.4293 1.00000
  2.818E+13 2.818E+13 5.549E+00 1.369E+05 2.429E+06 3.484E+07 3.741E+07 3.741E+07 3.819E+07 43.6596 1.00000
  3.162E+13 3.162E+13 5.576E+00 1.536E+05 2.725E+06 4.000E+07 4.288E+07 4.288E+07 3.828E+07 43.8898 1.00000
  3.548E+13 3.548E+13 5.602E+00 1.723E+05 3.058E+06 4.592E+07 4.915E+07 4.915E+07 3.836E+07 44.1201 1.00000
  3.981E+13 3.981E+13 5.629E+00 1.934E+05 3.431E+06 5.273E+07 5.635E+07 5.635E+07 3.845E+07 44.3504 1.00000
  4.467E+13 4.467E+13 5.656E+00 2.169E+05 3.849E+06 6.054E+07 6.461E+07 6.461E+07 3.853E+07 44.5806 1.00000
  5.012E+13 5.012E+13 5.683E+00 2.434E+05 4.318E+06 6.952E+07 7.408E+07 7.408E+07 3.860E+07 44.8109 1.00000
  5.623E+13 5.623E+13 5.710E+00 2.731E+05 4.845E+06 7.984E+07 8.495E+07 8.495E+07 3.868E+07 45.0411 1.00000
  6.310E+13 6.310E+13 5.738E+00 3.064E+05 5.436E+06 9.168E+07 9.742E+07 9.742E+07 3.876E+07 45.2714 1.00000
  7.079E+13 7.079E+13 5.765E+00 3.438E+05 6.099E+06 1.053E+08 1.117E+08 1.117E+08 3.883E+07 45.5016 1.00000
  7.943E+13 7.943E+13 5.793E+00 3.858E+05 6.842E+06 1.209E+08 1.282E+08 1.282E+08 3.890E+07 45.7319 1.00000
  8.913E+13 8.913E+13 5.821E+00 4.329E+05 7.677E+06 1.389E+08 1.470E+08 1.470E+08 3.897E+07 45.9622 1.00000
