 Incident particle is a Tau with M = 1776.82000 MeV
 Index = 0: Radium
      Absorber with <Z/A> = 0.38934
 Sternheimer coef:  a     k=m_s   x_0    x_1    I[eV]   Cbar  delta0
                 0.0880  3.2454  0.5991  3.9428  826.0  7.0452 0.14

 *** Table generated with PUMAS v1.00 ***

      T         p     Ionization  brems     pair     photonuc  Radloss    dE/dx   CSDA Range  delta   beta
    [MeV]    [MeV/c]  -----------------------[MeV cm^2/g]------------------------  [g/cm^2]
  1.000E+05 1.018E+05 1.579E+00 1.094E-03 1.961E-02 7.524E-03 2.823E-02 1.607E+00 3.111E+04  2.1623 0.99985
  1.122E+05 1.140E+05 1.598E+00 1.269E-03 2.347E-02 8.442E-03 3.318E-02 1.631E+00 3.865E+04  2.3096 0.99988
  1.259E+05 1.277E+05 1.616E+00 1.471E-03 2.801E-02 9.424E-03 3.891E-02 1.655E+00 4.698E+04  2.4612 0.99990
  1.413E+05 1.430E+05 1.634E+00 1.704E-03 3.334E-02 1.052E-02 4.557E-02 1.680E+00 5.620E+04  2.6169 0.99992
  1.585E+05 1.603E+05 1.652E+00 1.973E-03 3.958E-02 1.174E-02 5.330E-02 1.706E+00 6.638E+04  2.7766 0.99994
  1.778E+05 1.796E+05 1.670E+00 2.283E-03 4.687E-02 1.309E-02 6.225E-02 1.733E+00 7.763E+04  2.9402 0.99995
  1.995E+05 2.013E+05 1.688E+00 2.640E-03 5.538E-02 1.463E-02 7.265E-02 1.761E+00 9.005E+04  3.1076 0.99996
  2.239E+05 2.256E+05 1.706E+00 3.052E-03 6.528E-02 1.629E-02 8.463E-02 1.790E+00 1.038E+05  3.2786 0.99997
  2.512E+05 2.530E+05 1.723E+00 3.525E-03 7.678E-02 1.815E-02 9.846E-02 1.822E+00 1.189E+05  3.4532 0.99998
  2.818E+05 2.836E+05 1.740E+00 4.070E-03 9.012E-02 2.023E-02 1.144E-01 1.855E+00 1.356E+05  3.6312 0.99998
  3.162E+05 3.180E+05 1.757E+00 4.696E-03 1.056E-01 2.257E-02 1.328E-01 1.890E+00 1.539E+05  3.8124 0.99998
  3.548E+05 3.566E+05 1.774E+00 5.416E-03 1.234E-01 2.518E-02 1.540E-01 1.928E+00 1.741E+05  3.9968 0.99999
  3.981E+05 3.999E+05 1.791E+00 6.242E-03 1.440E-01 2.808E-02 1.783E-01 1.969E+00 1.964E+05  4.1843 0.99999
  4.467E+05 4.485E+05 1.807E+00 7.190E-03 1.677E-01 3.132E-02 2.062E-01 2.013E+00 2.208E+05  4.3746 0.99999
  5.012E+05 5.030E+05 1.824E+00 8.278E-03 1.949E-01 3.494E-02 2.382E-01 2.062E+00 2.475E+05  4.5678 0.99999
  5.623E+05 5.641E+05 1.840E+00 9.525E-03 2.263E-01 3.885E-02 2.746E-01 2.114E+00 2.768E+05  4.7637 1.00000
  6.310E+05 6.327E+05 1.855E+00 1.095E-02 2.622E-01 4.323E-02 3.164E-01 2.172E+00 3.088E+05  4.9622 1.00000
  7.079E+05 7.097E+05 1.871E+00 1.259E-02 3.034E-01 4.816E-02 3.641E-01 2.235E+00 3.438E+05  5.1631 1.00000
  7.943E+05 7.961E+05 1.887E+00 1.447E-02 3.505E-01 5.371E-02 4.186E-01 2.305E+00 3.818E+05  5.3664 1.00000
  8.913E+05 8.930E+05 1.902E+00 1.661E-02 4.043E-01 5.996E-02 4.809E-01 2.383E+00 4.232E+05  5.5720 1.00000
  1.000E+06 1.002E+06 1.917E+00 1.907E-02 4.658E-01 6.701E-02 5.518E-01 2.469E+00 4.680E+05  5.7797 1.00000
  1.122E+06 1.124E+06 1.932E+00 2.188E-02 5.358E-01 7.498E-02 6.327E-01 2.565E+00 5.165E+05  5.9894 1.00000
  1.259E+06 1.261E+06 1.947E+00 2.509E-02 6.157E-01 8.397E-02 7.247E-01 2.672E+00 5.688E+05  6.2010 1.00000
  1.413E+06 1.414E+06 1.961E+00 2.876E-02 7.065E-01 9.415E-02 8.294E-01 2.791E+00 6.251E+05  6.4145 1.00000
  1.585E+06 1.587E+06 1.976E+00 3.295E-02 8.098E-01 1.057E-01 9.484E-01 2.924E+00 6.855E+05  6.6297 1.00000
  1.778E+06 1.780E+06 1.990E+00 3.774E-02 9.271E-01 1.187E-01 1.084E+00 3.074E+00 7.500E+05  6.8464 1.00000
  1.995E+06 1.997E+06 2.004E+00 4.320E-02 1.060E+00 1.335E-01 1.237E+00 3.241E+00 8.188E+05  7.0647 1.00000
  2.239E+06 2.240E+06 2.018E+00 4.943E-02 1.211E+00 1.503E-01 1.411E+00 3.429E+00 8.918E+05  7.2844 1.00000
  2.512E+06 2.514E+06 2.031E+00 5.654E-02 1.382E+00 1.693E-01 1.608E+00 3.640E+00 9.692E+05  7.5055 1.00000
  2.818E+06 2.820E+06 2.045E+00 6.465E-02 1.576E+00 1.909E-01 1.832E+00 3.877E+00 1.051E+06  7.7277 1.00000
  3.162E+06 3.164E+06 2.058E+00 7.388E-02 1.795E+00 2.154E-01 2.085E+00 4.143E+00 1.137E+06  7.9510 1.00000
  3.548E+06 3.550E+06 2.071E+00 8.441E-02 2.043E+00 2.433E-01 2.371E+00 4.442E+00 1.227E+06  8.1754 1.00000
  3.981E+06 3.983E+06 2.084E+00 9.640E-02 2.323E+00 2.750E-01 2.695E+00 4.779E+00 1.321E+06  8.4007 1.00000
  4.467E+06 4.469E+06 2.097E+00 1.101E-01 2.640E+00 3.111E-01 3.061E+00 5.158E+00 1.419E+06  8.6269 1.00000
  5.012E+06 5.014E+06 2.109E+00 1.256E-01 2.997E+00 3.521E-01 3.475E+00 5.584E+00 1.520E+06  8.8538 1.00000
  5.623E+06 5.625E+06 2.122E+00 1.433E-01 3.400E+00 3.988E-01 3.942E+00 6.064E+00 1.625E+06  9.0814 1.00000
  6.310E+06 6.311E+06 2.134E+00 1.634E-01 3.854E+00 4.519E-01 4.470E+00 6.604E+00 1.734E+06  9.3096 1.00000
  7.079E+06 7.081E+06 2.146E+00 1.862E-01 4.367E+00 5.124E-01 5.066E+00 7.212E+00 1.846E+06  9.5383 1.00000
  7.943E+06 7.945E+06 2.158E+00 2.122E-01 4.944E+00 5.814E-01 5.738E+00 7.896E+00 1.960E+06  9.7674 1.00000
  8.913E+06 8.914E+06 2.170E+00 2.417E-01 5.595E+00 6.599E-01 6.496E+00 8.666E+00 2.078E+06  9.9969 1.00000
  1.000E+07 1.000E+07 2.182E+00 2.753E-01 6.327E+00 7.493E-01 7.352E+00 9.533E+00 2.197E+06 10.2266 1.00000
  1.122E+07 1.122E+07 2.193E+00 3.134E-01 7.152E+00 8.513E-01 8.316E+00 1.051E+01 2.319E+06 10.4566 1.00000
  1.259E+07 1.259E+07 2.205E+00 3.566E-01 8.080E+00 9.675E-01 9.404E+00 1.161E+01 2.443E+06 10.6867 1.00000
  1.413E+07 1.413E+07 2.216E+00 4.056E-01 9.124E+00 1.100E+00 1.063E+01 1.285E+01 2.569E+06 10.9169 1.00000
  1.585E+07 1.585E+07 2.227E+00 4.613E-01 1.030E+01 1.251E+00 1.201E+01 1.424E+01 2.697E+06 11.1471 1.00000
  1.778E+07 1.778E+07 2.238E+00 5.244E-01 1.162E+01 1.423E+00 1.357E+01 1.580E+01 2.826E+06 11.3773 1.00000
  1.995E+07 1.995E+07 2.250E+00 5.959E-01 1.310E+01 1.620E+00 1.532E+01 1.757E+01 2.957E+06 11.6076 1.00000
  2.239E+07 2.239E+07 2.261E+00 6.769E-01 1.477E+01 1.844E+00 1.729E+01 1.955E+01 3.088E+06 11.8378 1.00000
  2.512E+07 2.512E+07 2.272E+00 7.687E-01 1.665E+01 2.100E+00 1.952E+01 2.179E+01 3.221E+06 12.0680 1.00000
  2.818E+07 2.819E+07 2.282E+00 8.727E-01 1.876E+01 2.391E+00 2.202E+01 2.430E+01 3.354E+06 12.2983 1.00000
  3.162E+07 3.162E+07 2.293E+00 9.904E-01 2.113E+01 2.724E+00 2.484E+01 2.713E+01 3.488E+06 12.5285 1.00000
  3.548E+07 3.548E+07 2.304E+00 1.124E+00 2.379E+01 3.104E+00 2.802E+01 3.032E+01 3.623E+06 12.7588 1.00000
  3.981E+07 3.981E+07 2.315E+00 1.274E+00 2.678E+01 3.538E+00 3.159E+01 3.391E+01 3.758E+06 12.9890 1.00000
  4.467E+07 4.467E+07 2.326E+00 1.445E+00 3.014E+01 4.032E+00 3.561E+01 3.794E+01 3.894E+06 13.2193 1.00000
  5.012E+07 5.012E+07 2.337E+00 1.637E+00 3.391E+01 4.597E+00 4.014E+01 4.248E+01 4.030E+06 13.4495 1.00000
  5.623E+07 5.624E+07 2.348E+00 1.855E+00 3.814E+01 5.242E+00 4.524E+01 4.759E+01 4.166E+06 13.6798 1.00000
  6.310E+07 6.310E+07 2.358E+00 2.101E+00 4.290E+01 5.978E+00 5.098E+01 5.334E+01 4.302E+06 13.9100 1.00000
  7.079E+07 7.080E+07 2.369E+00 2.379E+00 4.824E+01 6.818E+00 5.744E+01 5.981E+01 4.439E+06 14.1403 1.00000
  7.943E+07 7.943E+07 2.380E+00 2.693E+00 5.424E+01 7.778E+00 6.471E+01 6.709E+01 4.575E+06 14.3705 1.00000
  8.913E+07 8.913E+07 2.391E+00 3.048E+00 6.097E+01 8.873E+00 7.289E+01 7.528E+01 4.712E+06 14.6008 1.00000
  1.000E+08 1.000E+08 2.402E+00 3.447E+00 6.852E+01 1.012E+01 8.210E+01 8.450E+01 4.849E+06 14.8310 1.00000
  1.122E+08 1.122E+08 2.413E+00 3.899E+00 7.701E+01 1.155E+01 9.246E+01 9.487E+01 4.985E+06 15.0613 1.00000
  1.259E+08 1.259E+08 2.424E+00 4.408E+00 8.653E+01 1.318E+01 1.041E+02 1.065E+02 5.122E+06 15.2915 1.00000
  1.413E+08 1.413E+08 2.434E+00 4.982E+00 9.722E+01 1.505E+01 1.172E+02 1.197E+02 5.258E+06 15.5218 1.00000
  1.585E+08 1.585E+08 2.445E+00 5.629E+00 1.092E+02 1.718E+01 1.320E+02 1.345E+02 5.394E+06 15.7521 1.00000
  1.778E+08 1.778E+08 2.456E+00 6.358E+00 1.227E+02 1.961E+01 1.486E+02 1.511E+02 5.530E+06 15.9823 1.00000
  1.995E+08 1.995E+08 2.468E+00 7.180E+00 1.378E+02 2.239E+01 1.674E+02 1.698E+02 5.666E+06 16.2126 1.00000
  2.239E+08 2.239E+08 2.479E+00 8.105E+00 1.547E+02 2.556E+01 1.884E+02 1.909E+02 5.801E+06 16.4428 1.00000
  2.512E+08 2.512E+08 2.490E+00 9.148E+00 1.738E+02 2.918E+01 2.121E+02 2.146E+02 5.936E+06 16.6731 1.00000
  2.818E+08 2.818E+08 2.501E+00 1.032E+01 1.951E+02 3.333E+01 2.388E+02 2.413E+02 6.071E+06 16.9033 1.00000
  3.162E+08 3.162E+08 2.512E+00 1.164E+01 2.191E+02 3.806E+01 2.688E+02 2.713E+02 6.206E+06 17.1336 1.00000
  3.548E+08 3.548E+08 2.524E+00 1.313E+01 2.460E+02 4.347E+01 3.026E+02 3.051E+02 6.340E+06 17.3639 1.00000
  3.981E+08 3.981E+08 2.535E+00 1.480E+01 2.762E+02 4.965E+01 3.406E+02 3.432E+02 6.474E+06 17.5941 1.00000
  4.467E+08 4.467E+08 2.546E+00 1.669E+01 3.101E+02 5.671E+01 3.835E+02 3.860E+02 6.608E+06 17.8244 1.00000
  5.012E+08 5.012E+08 2.558E+00 1.881E+01 3.481E+02 6.478E+01 4.317E+02 4.342E+02 6.741E+06 18.0546 1.00000
  5.623E+08 5.623E+08 2.569E+00 2.119E+01 3.907E+02 7.400E+01 4.859E+02 4.885E+02 6.874E+06 18.2849 1.00000
  6.310E+08 6.310E+08 2.581E+00 2.387E+01 4.386E+02 8.455E+01 5.470E+02 5.496E+02 7.007E+06 18.5151 1.00000
  7.079E+08 7.079E+08 2.592E+00 2.688E+01 4.923E+02 9.660E+01 6.158E+02 6.184E+02 7.139E+06 18.7454 1.00000
  7.943E+08 7.943E+08 2.604E+00 3.026E+01 5.526E+02 1.104E+02 6.932E+02 6.958E+02 7.271E+06 18.9757 1.00000
  8.913E+08 8.913E+08 2.616E+00 3.407E+01 6.202E+02 1.261E+02 7.804E+02 7.830E+02 7.403E+06 19.2059 1.00000
  1.000E+09 1.000E+09 2.628E+00 3.835E+01 6.961E+02 1.441E+02 8.785E+02 8.811E+02 7.534E+06 19.4362 1.00000
  1.122E+09 1.122E+09 2.639E+00 4.315E+01 7.812E+02 1.647E+02 9.890E+02 9.917E+02 7.665E+06 19.6664 1.00000
  1.259E+09 1.259E+09 2.651E+00 4.855E+01 8.767E+02 1.882E+02 1.114E+03 1.116E+03 7.795E+06 19.8967 1.00000
  1.413E+09 1.413E+09 2.663E+00 5.462E+01 9.839E+02 2.151E+02 1.254E+03 1.256E+03 7.925E+06 20.1269 1.00000
  1.585E+09 1.585E+09 2.675E+00 6.143E+01 1.104E+03 2.459E+02 1.412E+03 1.414E+03 8.054E+06 20.3572 1.00000
  1.778E+09 1.778E+09 2.688E+00 6.909E+01 1.239E+03 2.811E+02 1.589E+03 1.592E+03 8.183E+06 20.5875 1.00000
  1.995E+09 1.995E+09 2.700E+00 7.768E+01 1.391E+03 3.213E+02 1.790E+03 1.792E+03 8.312E+06 20.8177 1.00000
  2.239E+09 2.239E+09 2.712E+00 8.734E+01 1.560E+03 3.673E+02 2.015E+03 2.018E+03 8.440E+06 21.0480 1.00000
  2.512E+09 2.512E+09 2.724E+00 9.818E+01 1.751E+03 4.200E+02 2.269E+03 2.272E+03 8.568E+06 21.2782 1.00000
  2.818E+09 2.818E+09 2.737E+00 1.104E+02 1.965E+03 4.802E+02 2.555E+03 2.558E+03 8.696E+06 21.5085 1.00000
  3.162E+09 3.162E+09 2.749E+00 1.240E+02 2.205E+03 5.490E+02 2.878E+03 2.881E+03 8.822E+06 21.7388 1.00000
  3.548E+09 3.548E+09 2.762E+00 1.394E+02 2.474E+03 6.277E+02 3.241E+03 3.244E+03 8.949E+06 21.9690 1.00000
  3.981E+09 3.981E+09 2.774E+00 1.566E+02 2.776E+03 7.178E+02 3.651E+03 3.654E+03 9.075E+06 22.1993 1.00000
  4.467E+09 4.467E+09 2.787E+00 1.759E+02 3.115E+03 8.209E+02 4.112E+03 4.115E+03 9.200E+06 22.4295 1.00000
  5.012E+09 5.012E+09 2.800E+00 1.977E+02 3.496E+03 9.388E+02 4.632E+03 4.635E+03 9.325E+06 22.6598 1.00000
  5.623E+09 5.623E+09 2.813E+00 2.220E+02 3.922E+03 1.074E+03 5.218E+03 5.221E+03 9.450E+06 22.8900 1.00000
  6.310E+09 6.310E+09 2.825E+00 2.494E+02 4.401E+03 1.228E+03 5.879E+03 5.881E+03 9.574E+06 23.1203 1.00000
  7.079E+09 7.079E+09 2.838E+00 2.801E+02 4.939E+03 1.405E+03 6.623E+03 6.626E+03 9.698E+06 23.3506 1.00000
  7.943E+09 7.943E+09 2.851E+00 3.145E+02 5.541E+03 1.607E+03 7.463E+03 7.465E+03 9.821E+06 23.5808 1.00000
  8.913E+09 8.913E+09 2.865E+00 3.532E+02 6.218E+03 1.838E+03 8.409E+03 8.412E+03 9.943E+06 23.8111 1.00000
  1.000E+10 1.000E+10 2.878E+00 3.966E+02 6.977E+03 2.103E+03 9.476E+03 9.479E+03 1.007E+07 24.0413 1.00000
  1.122E+10 1.122E+10 2.891E+00 4.454E+02 7.828E+03 2.405E+03 1.068E+04 1.068E+04 1.019E+07 24.2716 1.00000
  1.259E+10 1.259E+10 2.904E+00 5.000E+02 8.783E+03 2.752E+03 1.204E+04 1.204E+04 1.031E+07 24.5019 1.00000
  1.413E+10 1.413E+10 2.918E+00 5.614E+02 9.855E+03 3.149E+03 1.357E+04 1.357E+04 1.043E+07 24.7321 1.00000
  1.585E+10 1.585E+10 2.931E+00 6.303E+02 1.106E+04 3.603E+03 1.529E+04 1.529E+04 1.055E+07 24.9624 1.00000
  1.778E+10 1.778E+10 2.945E+00 7.075E+02 1.241E+04 4.123E+03 1.724E+04 1.724E+04 1.067E+07 25.1926 1.00000
  1.995E+10 1.995E+10 2.958E+00 7.943E+02 1.392E+04 4.718E+03 1.943E+04 1.944E+04 1.079E+07 25.4229 1.00000
  2.239E+10 2.239E+10 2.972E+00 8.916E+02 1.562E+04 5.399E+03 2.191E+04 2.191E+04 1.090E+07 25.6532 1.00000
  2.512E+10 2.512E+10 2.986E+00 1.001E+03 1.753E+04 6.179E+03 2.471E+04 2.471E+04 1.102E+07 25.8834 1.00000
  2.818E+10 2.818E+10 3.000E+00 1.123E+03 1.966E+04 7.072E+03 2.786E+04 2.786E+04 1.114E+07 26.1137 1.00000
  3.162E+10 3.162E+10 3.014E+00 1.261E+03 2.206E+04 8.095E+03 3.142E+04 3.142E+04 1.126E+07 26.3439 1.00000
  3.548E+10 3.548E+10 3.028E+00 1.415E+03 2.476E+04 9.266E+03 3.544E+04 3.544E+04 1.137E+07 26.5742 1.00000
  3.981E+10 3.981E+10 3.042E+00 1.588E+03 2.778E+04 1.061E+04 3.997E+04 3.997E+04 1.149E+07 26.8044 1.00000
  4.467E+10 4.467E+10 3.056E+00 1.782E+03 3.116E+04 1.214E+04 4.509E+04 4.509E+04 1.160E+07 27.0347 1.00000
  5.012E+10 5.012E+10 3.070E+00 2.000E+03 3.497E+04 1.390E+04 5.087E+04 5.087E+04 1.171E+07 27.2650 1.00000
  5.623E+10 5.623E+10 3.085E+00 2.245E+03 3.923E+04 1.591E+04 5.739E+04 5.739E+04 1.183E+07 27.4952 1.00000
  6.310E+10 6.310E+10 3.099E+00 2.520E+03 4.402E+04 1.822E+04 6.476E+04 6.476E+04 1.194E+07 27.7255 1.00000
  7.079E+10 7.079E+10 3.114E+00 2.827E+03 4.939E+04 2.086E+04 7.308E+04 7.308E+04 1.205E+07 27.9557 1.00000
  7.943E+10 7.943E+10 3.128E+00 3.173E+03 5.541E+04 2.389E+04 8.248E+04 8.248E+04 1.216E+07 28.1860 1.00000
  8.913E+10 8.913E+10 3.143E+00 3.561E+03 6.217E+04 2.736E+04 9.309E+04 9.309E+04 1.228E+07 28.4163 1.00000
  1.000E+11 1.000E+11 3.158E+00 3.996E+03 6.976E+04 3.133E+04 1.051E+05 1.051E+05 1.239E+07 28.6465 1.00000
  1.122E+11 1.122E+11 3.172E+00 4.484E+03 7.827E+04 3.588E+04 1.186E+05 1.186E+05 1.249E+07 28.8768 1.00000
  1.259E+11 1.259E+11 3.187E+00 5.032E+03 8.782E+04 4.109E+04 1.339E+05 1.339E+05 1.260E+07 29.1070 1.00000
  1.413E+11 1.413E+11 3.202E+00 5.646E+03 9.853E+04 4.707E+04 1.512E+05 1.512E+05 1.271E+07 29.3373 1.00000
  1.585E+11 1.585E+11 3.217E+00 6.336E+03 1.105E+05 5.391E+04 1.708E+05 1.708E+05 1.282E+07 29.5675 1.00000
  1.778E+11 1.778E+11 3.233E+00 7.109E+03 1.240E+05 6.175E+04 1.929E+05 1.929E+05 1.293E+07 29.7978 1.00000
  1.995E+11 1.995E+11 3.248E+00 7.977E+03 1.392E+05 7.074E+04 2.179E+05 2.179E+05 1.303E+07 30.0281 1.00000
  2.239E+11 2.239E+11 3.263E+00 8.951E+03 1.561E+05 8.104E+04 2.461E+05 2.461E+05 1.314E+07 30.2583 1.00000
  2.512E+11 2.512E+11 3.279E+00 1.004E+04 1.752E+05 9.285E+04 2.781E+05 2.781E+05 1.324E+07 30.4886 1.00000
  2.818E+11 2.818E+11 3.294E+00 1.127E+04 1.966E+05 1.064E+05 3.142E+05 3.142E+05 1.335E+07 30.7188 1.00000
  3.162E+11 3.162E+11 3.310E+00 1.265E+04 2.205E+05 1.219E+05 3.551E+05 3.551E+05 1.345E+07 30.9491 1.00000
  3.548E+11 3.548E+11 3.325E+00 1.419E+04 2.474E+05 1.397E+05 4.013E+05 4.013E+05 1.355E+07 31.1794 1.00000
  3.981E+11 3.981E+11 3.341E+00 1.592E+04 2.776E+05 1.600E+05 4.536E+05 4.536E+05 1.365E+07 31.4096 1.00000
  4.467E+11 4.467E+11 3.357E+00 1.787E+04 3.115E+05 1.834E+05 5.127E+05 5.127E+05 1.375E+07 31.6399 1.00000
  5.012E+11 5.012E+11 3.373E+00 2.005E+04 3.495E+05 2.102E+05 5.797E+05 5.797E+05 1.385E+07 31.8701 1.00000
  5.623E+11 5.623E+11 3.389E+00 2.249E+04 3.921E+05 2.409E+05 6.555E+05 6.555E+05 1.395E+07 32.1004 1.00000
  6.310E+11 6.310E+11 3.405E+00 2.524E+04 4.399E+05 2.761E+05 7.413E+05 7.413E+05 1.405E+07 32.3306 1.00000
  7.079E+11 7.079E+11 3.421E+00 2.832E+04 4.936E+05 3.164E+05 8.384E+05 8.384E+05 1.415E+07 32.5609 1.00000
  7.943E+11 7.943E+11 3.438E+00 3.177E+04 5.538E+05 3.627E+05 9.483E+05 9.483E+05 1.425E+07 32.7912 1.00000
  8.913E+11 8.913E+11 3.454E+00 3.565E+04 6.214E+05 4.158E+05 1.073E+06 1.073E+06 1.434E+07 33.0214 1.00000
  1.000E+12 1.000E+12 3.471E+00 4.000E+04 6.972E+05 4.766E+05 1.214E+06 1.214E+06 1.444E+07 33.2517 1.00000
  1.122E+12 1.122E+12 3.487E+00 4.489E+04 7.822E+05 5.464E+05 1.374E+06 1.374E+06 1.453E+07 33.4819 1.00000
  1.259E+12 1.259E+12 3.504E+00 5.036E+04 8.776E+05 6.265E+05 1.554E+06 1.554E+06 1.463E+07 33.7122 1.00000
  1.413E+12 1.413E+12 3.521E+00 5.651E+04 9.847E+05 7.183E+05 1.759E+06 1.759E+06 1.472E+07 33.9425 1.00000
  1.585E+12 1.585E+12 3.538E+00 6.340E+04 1.105E+06 8.236E+05 1.992E+06 1.992E+06 1.481E+07 34.1727 1.00000
  1.778E+12 1.778E+12 3.555E+00 7.114E+04 1.240E+06 9.444E+05 2.255E+06 2.255E+06 1.490E+07 34.4030 1.00000
  1.995E+12 1.995E+12 3.572E+00 7.982E+04 1.391E+06 1.083E+06 2.553E+06 2.553E+06 1.499E+07 34.6332 1.00000
  2.239E+12 2.239E+12 3.589E+00 8.956E+04 1.560E+06 1.242E+06 2.892E+06 2.892E+06 1.508E+07 34.8635 1.00000
  2.512E+12 2.512E+12 3.606E+00 1.005E+05 1.751E+06 1.424E+06 3.275E+06 3.275E+06 1.517E+07 35.0937 1.00000
  2.818E+12 2.818E+12 3.623E+00 1.128E+05 1.964E+06 1.633E+06 3.710E+06 3.710E+06 1.526E+07 35.3240 1.00000
  3.162E+12 3.162E+12 3.641E+00 1.265E+05 2.204E+06 1.873E+06 4.204E+06 4.204E+06 1.535E+07 35.5543 1.00000
  3.548E+12 3.548E+12 3.658E+00 1.420E+05 2.473E+06 2.149E+06 4.763E+06 4.763E+06 1.544E+07 35.7845 1.00000
  3.981E+12 3.981E+12 3.676E+00 1.593E+05 2.774E+06 2.465E+06 5.398E+06 5.398E+06 1.552E+07 36.0148 1.00000
  4.467E+12 4.467E+12 3.694E+00 1.787E+05 3.112E+06 2.828E+06 6.119E+06 6.119E+06 1.561E+07 36.2450 1.00000
  5.012E+12 5.012E+12 3.711E+00 2.005E+05 3.492E+06 3.244E+06 6.936E+06 6.936E+06 1.569E+07 36.4753 1.00000
  5.623E+12 5.623E+12 3.729E+00 2.250E+05 3.918E+06 3.721E+06 7.864E+06 7.864E+06 1.577E+07 36.7056 1.00000
  6.310E+12 6.310E+12 3.747E+00 2.524E+05 4.396E+06 4.269E+06 8.918E+06 8.918E+06 1.585E+07 36.9358 1.00000
  7.079E+12 7.079E+12 3.765E+00 2.832E+05 4.932E+06 4.898E+06 1.011E+07 1.011E+07 1.594E+07 37.1661 1.00000
  7.943E+12 7.943E+12 3.784E+00 3.178E+05 5.534E+06 5.621E+06 1.147E+07 1.147E+07 1.602E+07 37.3963 1.00000
  8.913E+12 8.913E+12 3.802E+00 3.566E+05 6.208E+06 6.449E+06 1.301E+07 1.301E+07 1.610E+07 37.6266 1.00000
  1.000E+13 1.000E+13 3.820E+00 4.001E+05 6.966E+06 7.401E+06 1.477E+07 1.477E+07 1.617E+07 37.8569 1.00000
  1.122E+13 1.122E+13 3.839E+00 4.489E+05 7.815E+06 8.493E+06 1.676E+07 1.676E+07 1.625E+07 38.0871 1.00000
  1.259E+13 1.259E+13 3.858E+00 5.037E+05 8.768E+06 9.747E+06 1.902E+07 1.902E+07 1.633E+07 38.3174 1.00000
  1.413E+13 1.413E+13 3.876E+00 5.651E+05 9.838E+06 1.119E+07 2.159E+07 2.159E+07 1.640E+07 38.5476 1.00000
  1.585E+13 1.585E+13 3.895E+00 6.341E+05 1.104E+07 1.284E+07 2.451E+07 2.451E+07 1.648E+07 38.7779 1.00000
  1.778E+13 1.778E+13 3.914E+00 7.115E+05 1.238E+07 1.474E+07 2.783E+07 2.783E+07 1.655E+07 39.0081 1.00000
  1.995E+13 1.995E+13 3.933E+00 7.983E+05 1.389E+07 1.692E+07 3.161E+07 3.161E+07 1.663E+07 39.2384 1.00000
  2.239E+13 2.239E+13 3.952E+00 8.957E+05 1.559E+07 1.942E+07 3.590E+07 3.590E+07 1.670E+07 39.4687 1.00000
  2.512E+13 2.512E+13 3.971E+00 1.005E+06 1.749E+07 2.229E+07 4.078E+07 4.078E+07 1.677E+07 39.6989 1.00000
  2.818E+13 2.818E+13 3.991E+00 1.128E+06 1.962E+07 2.559E+07 4.634E+07 4.634E+07 1.684E+07 39.9292 1.00000
  3.162E+13 3.162E+13 4.010E+00 1.265E+06 2.202E+07 2.938E+07 5.266E+07 5.266E+07 1.691E+07 40.1594 1.00000
  3.548E+13 3.548E+13 4.030E+00 1.420E+06 2.470E+07 3.373E+07 5.985E+07 5.985E+07 1.698E+07 40.3897 1.00000
  3.981E+13 3.981E+13 4.049E+00 1.593E+06 2.771E+07 3.873E+07 6.803E+07 6.803E+07 1.705E+07 40.6200 1.00000
  4.467E+13 4.467E+13 4.069E+00 1.787E+06 3.109E+07 4.447E+07 7.735E+07 7.735E+07 1.712E+07 40.8502 1.00000
  5.012E+13 5.012E+13 4.089E+00 2.005E+06 3.489E+07 5.106E+07 8.795E+07 8.795E+07 1.718E+07 41.0805 1.00000
  5.623E+13 5.623E+13 4.109E+00 2.250E+06 3.914E+07 5.864E+07 1.000E+08 1.000E+08 1.725E+07 41.3107 1.00000
  6.310E+13 6.310E+13 4.129E+00 2.524E+06 4.391E+07 6.734E+07 1.138E+08 1.138E+08 1.731E+07 41.5410 1.00000
  7.079E+13 7.079E+13 4.149E+00 2.832E+06 4.927E+07 7.734E+07 1.294E+08 1.294E+08 1.738E+07 41.7712 1.00000
  7.943E+13 7.943E+13 4.169E+00 3.178E+06 5.528E+07 8.882E+07 1.473E+08 1.473E+08 1.744E+07 42.0015 1.00000
  8.913E+13 8.913E+13 4.190E+00 3.566E+06 6.202E+07 1.020E+08 1.676E+08 1.676E+08 1.750E+07 42.2318 1.00000
