 Incident particle is a Tau with M = 1776.82000 MeV
 Index = 0: RubberButyl
      Absorber with <Z/A> = 0.57023
 Sternheimer coef:  a     k=m_s   x_0    x_1    I[eV]   Cbar  delta0
                 0.1211  3.4296  0.1347  2.5154   56.5  2.9915 0.00

 *** Table generated with PUMAS v1.00 ***

      T         p     Ionization  brems     pair     photonuc  Radloss    dE/dx   CSDA Range  delta   beta
    [MeV]    [MeV/c]  -----------------------[MeV cm^2/g]------------------------  [g/cm^2]
  1.000E+05 1.018E+05 2.520E+00 1.098E-04 1.708E-03 8.481E-03 1.030E-02 2.531E+00 1.976E+04  5.1508 0.99985
  1.122E+05 1.140E+05 2.542E+00 1.268E-04 2.069E-03 9.588E-03 1.178E-02 2.554E+00 2.456E+04  5.3677 0.99988
  1.259E+05 1.277E+05 2.563E+00 1.464E-04 2.495E-03 1.078E-02 1.342E-02 2.576E+00 2.989E+04  5.5865 0.99990
  1.413E+05 1.430E+05 2.584E+00 1.689E-04 2.998E-03 1.213E-02 1.529E-02 2.599E+00 3.583E+04  5.8070 0.99992
  1.585E+05 1.603E+05 2.605E+00 1.947E-04 3.590E-03 1.363E-02 1.742E-02 2.623E+00 4.243E+04  6.0290 0.99994
  1.778E+05 1.796E+05 2.626E+00 2.245E-04 4.285E-03 1.532E-02 1.983E-02 2.646E+00 4.977E+04  6.2524 0.99995
  1.995E+05 2.013E+05 2.647E+00 2.586E-04 5.100E-03 1.724E-02 2.260E-02 2.670E+00 5.794E+04  6.4769 0.99996
  2.239E+05 2.256E+05 2.668E+00 2.979E-04 6.054E-03 1.935E-02 2.570E-02 2.694E+00 6.701E+04  6.7025 0.99997
  2.512E+05 2.530E+05 2.689E+00 3.430E-04 7.167E-03 2.171E-02 2.922E-02 2.718E+00 7.711E+04  6.9290 0.99998
  2.818E+05 2.836E+05 2.710E+00 3.947E-04 8.465E-03 2.438E-02 3.324E-02 2.743E+00 8.833E+04  7.1563 0.99998
  3.162E+05 3.180E+05 2.731E+00 4.541E-04 9.976E-03 2.739E-02 3.782E-02 2.769E+00 1.008E+05  7.3842 0.99998
  3.548E+05 3.566E+05 2.752E+00 5.221E-04 1.173E-02 3.078E-02 4.303E-02 2.795E+00 1.147E+05  7.6126 0.99999
  3.981E+05 3.999E+05 2.772E+00 6.002E-04 1.377E-02 3.456E-02 4.893E-02 2.821E+00 1.301E+05  7.8414 0.99999
  4.467E+05 4.485E+05 2.793E+00 6.897E-04 1.612E-02 3.881E-02 5.562E-02 2.849E+00 1.472E+05  8.0705 0.99999
  5.012E+05 5.030E+05 2.814E+00 7.923E-04 1.885E-02 4.359E-02 6.323E-02 2.877E+00 1.663E+05  8.2999 0.99999
  5.623E+05 5.641E+05 2.834E+00 9.099E-04 2.200E-02 4.878E-02 7.169E-02 2.906E+00 1.874E+05  8.5294 1.00000
  6.310E+05 6.327E+05 2.855E+00 1.045E-03 2.563E-02 5.463E-02 8.131E-02 2.936E+00 2.109E+05  8.7589 1.00000
  7.079E+05 7.097E+05 2.875E+00 1.199E-03 2.982E-02 6.124E-02 9.226E-02 2.968E+00 2.370E+05  8.9886 1.00000
  7.943E+05 7.961E+05 2.896E+00 1.375E-03 3.464E-02 6.871E-02 1.047E-01 3.000E+00 2.659E+05  9.2183 1.00000
  8.913E+05 8.930E+05 2.916E+00 1.578E-03 4.017E-02 7.715E-02 1.189E-01 3.035E+00 2.981E+05  9.4481 1.00000
  1.000E+06 1.002E+06 2.936E+00 1.809E-03 4.653E-02 8.671E-02 1.350E-01 3.071E+00 3.337E+05  9.6779 1.00000
  1.122E+06 1.124E+06 2.956E+00 2.074E-03 5.382E-02 9.753E-02 1.534E-01 3.110E+00 3.732E+05  9.9078 1.00000
  1.259E+06 1.261E+06 2.976E+00 2.377E-03 6.217E-02 1.098E-01 1.743E-01 3.151E+00 4.169E+05 10.1377 1.00000
  1.413E+06 1.414E+06 2.996E+00 2.723E-03 7.173E-02 1.237E-01 1.981E-01 3.195E+00 4.653E+05 10.3676 1.00000
  1.585E+06 1.587E+06 3.016E+00 3.120E-03 8.265E-02 1.395E-01 2.252E-01 3.241E+00 5.189E+05 10.5976 1.00000
  1.778E+06 1.780E+06 3.036E+00 3.573E-03 9.513E-02 1.574E-01 2.561E-01 3.292E+00 5.781E+05 10.8276 1.00000
  1.995E+06 1.997E+06 3.055E+00 4.091E-03 1.094E-01 1.777E-01 2.911E-01 3.346E+00 6.435E+05 11.0577 1.00000
  2.239E+06 2.240E+06 3.075E+00 4.684E-03 1.256E-01 2.008E-01 3.310E-01 3.406E+00 7.156E+05 11.2878 1.00000
  2.512E+06 2.514E+06 3.094E+00 5.361E-03 1.441E-01 2.270E-01 3.764E-01 3.470E+00 7.951E+05 11.5178 1.00000
  2.818E+06 2.820E+06 3.113E+00 6.134E-03 1.651E-01 2.568E-01 4.281E-01 3.541E+00 8.825E+05 11.7479 1.00000
  3.162E+06 3.164E+06 3.132E+00 7.017E-03 1.890E-01 2.907E-01 4.868E-01 3.618E+00 9.786E+05 11.9781 1.00000
  3.548E+06 3.550E+06 3.150E+00 8.026E-03 2.162E-01 3.293E-01 5.535E-01 3.704E+00 1.084E+06 12.2082 1.00000
  3.981E+06 3.983E+06 3.169E+00 9.177E-03 2.470E-01 3.732E-01 6.294E-01 3.798E+00 1.199E+06 12.4384 1.00000
  4.467E+06 4.469E+06 3.187E+00 1.049E-02 2.820E-01 4.232E-01 7.157E-01 3.903E+00 1.326E+06 12.6685 1.00000
  5.012E+06 5.014E+06 3.205E+00 1.199E-02 3.217E-01 4.801E-01 8.137E-01 4.019E+00 1.463E+06 12.8987 1.00000
  5.623E+06 5.625E+06 3.223E+00 1.370E-02 3.666E-01 5.449E-01 9.251E-01 4.148E+00 1.613E+06 13.1289 1.00000
  6.310E+06 6.311E+06 3.241E+00 1.565E-02 4.174E-01 6.187E-01 1.052E+00 4.293E+00 1.776E+06 13.3591 1.00000
  7.079E+06 7.081E+06 3.258E+00 1.788E-02 4.750E-01 7.027E-01 1.196E+00 4.454E+00 1.952E+06 13.5893 1.00000
  7.943E+06 7.945E+06 3.276E+00 2.041E-02 5.400E-01 7.986E-01 1.359E+00 4.635E+00 2.142E+06 13.8195 1.00000
  8.913E+06 8.914E+06 3.293E+00 2.330E-02 6.135E-01 9.077E-01 1.545E+00 4.838E+00 2.347E+06 14.0497 1.00000
  1.000E+07 1.000E+07 3.310E+00 2.660E-02 6.966E-01 1.032E+00 1.755E+00 5.065E+00 2.566E+06 14.2799 1.00000
  1.122E+07 1.122E+07 3.327E+00 3.035E-02 7.903E-01 1.174E+00 1.995E+00 5.322E+00 2.802E+06 14.5101 1.00000
  1.259E+07 1.259E+07 3.344E+00 3.461E-02 8.961E-01 1.336E+00 2.267E+00 5.610E+00 3.052E+06 14.7403 1.00000
  1.413E+07 1.413E+07 3.360E+00 3.947E-02 1.015E+00 1.520E+00 2.575E+00 5.936E+00 3.318E+06 14.9706 1.00000
  1.585E+07 1.585E+07 3.377E+00 4.500E-02 1.150E+00 1.731E+00 2.926E+00 6.303E+00 3.600E+06 15.2008 1.00000
  1.778E+07 1.778E+07 3.393E+00 5.129E-02 1.302E+00 1.971E+00 3.324E+00 6.717E+00 3.898E+06 15.4310 1.00000
  1.995E+07 1.995E+07 3.409E+00 5.844E-02 1.473E+00 2.245E+00 3.776E+00 7.185E+00 4.210E+06 15.6613 1.00000
  2.239E+07 2.239E+07 3.426E+00 6.658E-02 1.665E+00 2.557E+00 4.289E+00 7.714E+00 4.537E+06 15.8915 1.00000
  2.512E+07 2.512E+07 3.442E+00 7.582E-02 1.882E+00 2.913E+00 4.871E+00 8.313E+00 4.879E+06 16.1217 1.00000
  2.818E+07 2.819E+07 3.458E+00 8.632E-02 2.126E+00 3.320E+00 5.532E+00 8.990E+00 5.234E+06 16.3520 1.00000
  3.162E+07 3.162E+07 3.474E+00 9.824E-02 2.400E+00 3.784E+00 6.282E+00 9.756E+00 5.601E+06 16.5822 1.00000
  3.548E+07 3.548E+07 3.490E+00 1.118E-01 2.709E+00 4.314E+00 7.134E+00 1.062E+01 5.981E+06 16.8125 1.00000
  3.981E+07 3.981E+07 3.506E+00 1.272E-01 3.056E+00 4.918E+00 8.102E+00 1.161E+01 6.371E+06 17.0427 1.00000
  4.467E+07 4.467E+07 3.521E+00 1.446E-01 3.447E+00 5.608E+00 9.200E+00 1.272E+01 6.771E+06 17.2730 1.00000
  5.012E+07 5.012E+07 3.537E+00 1.644E-01 3.886E+00 6.396E+00 1.045E+01 1.398E+01 7.180E+06 17.5032 1.00000
  5.623E+07 5.624E+07 3.553E+00 1.868E-01 4.380E+00 7.295E+00 1.186E+01 1.541E+01 7.597E+06 17.7335 1.00000
  6.310E+07 6.310E+07 3.569E+00 2.122E-01 4.935E+00 8.321E+00 1.347E+01 1.704E+01 8.021E+06 17.9637 1.00000
  7.079E+07 7.080E+07 3.585E+00 2.411E-01 5.558E+00 9.493E+00 1.529E+01 1.888E+01 8.451E+06 18.1940 1.00000
  7.943E+07 7.943E+07 3.601E+00 2.737E-01 6.259E+00 1.083E+01 1.736E+01 2.096E+01 8.886E+06 18.4242 1.00000
  8.913E+07 8.913E+07 3.616E+00 3.107E-01 7.045E+00 1.236E+01 1.972E+01 2.333E+01 9.325E+06 18.6545 1.00000
  1.000E+08 1.000E+08 3.632E+00 3.526E-01 7.929E+00 1.410E+01 2.239E+01 2.602E+01 9.767E+06 18.8847 1.00000
  1.122E+08 1.122E+08 3.648E+00 4.000E-01 8.922E+00 1.610E+01 2.542E+01 2.907E+01 1.021E+07 19.1150 1.00000
  1.259E+08 1.259E+08 3.664E+00 4.537E-01 1.004E+01 1.837E+01 2.886E+01 3.253E+01 1.066E+07 19.3452 1.00000
  1.413E+08 1.413E+08 3.680E+00 5.144E-01 1.129E+01 2.097E+01 3.278E+01 3.646E+01 1.110E+07 19.5755 1.00000
  1.585E+08 1.585E+08 3.696E+00 5.831E-01 1.269E+01 2.394E+01 3.722E+01 4.092E+01 1.155E+07 19.8058 1.00000
  1.778E+08 1.778E+08 3.713E+00 6.607E-01 1.427E+01 2.734E+01 4.227E+01 4.598E+01 1.200E+07 20.0360 1.00000
  1.995E+08 1.995E+08 3.729E+00 7.485E-01 1.604E+01 3.121E+01 4.800E+01 5.173E+01 1.244E+07 20.2663 1.00000
  2.239E+08 2.239E+08 3.745E+00 8.476E-01 1.803E+01 3.564E+01 5.452E+01 5.826E+01 1.289E+07 20.4965 1.00000
  2.512E+08 2.512E+08 3.761E+00 9.597E-01 2.027E+01 4.070E+01 6.192E+01 6.568E+01 1.333E+07 20.7268 1.00000
  2.818E+08 2.818E+08 3.778E+00 1.086E+00 2.277E+01 4.647E+01 7.033E+01 7.411E+01 1.377E+07 20.9570 1.00000
  3.162E+08 3.162E+08 3.794E+00 1.229E+00 2.559E+01 5.308E+01 7.989E+01 8.369E+01 1.421E+07 21.1873 1.00000
  3.548E+08 3.548E+08 3.811E+00 1.390E+00 2.874E+01 6.062E+01 9.076E+01 9.457E+01 1.464E+07 21.4176 1.00000
  3.981E+08 3.981E+08 3.827E+00 1.572E+00 3.229E+01 6.924E+01 1.031E+02 1.069E+02 1.507E+07 21.6478 1.00000
  4.467E+08 4.467E+08 3.844E+00 1.778E+00 3.627E+01 7.910E+01 1.171E+02 1.210E+02 1.550E+07 21.8781 1.00000
  5.012E+08 5.012E+08 3.861E+00 2.009E+00 4.073E+01 9.036E+01 1.331E+02 1.370E+02 1.593E+07 22.1083 1.00000
  5.623E+08 5.623E+08 3.878E+00 2.270E+00 4.574E+01 1.032E+02 1.512E+02 1.551E+02 1.635E+07 22.3386 1.00000
  6.310E+08 6.310E+08 3.895E+00 2.564E+00 5.136E+01 1.179E+02 1.719E+02 1.758E+02 1.676E+07 22.5688 1.00000
  7.079E+08 7.079E+08 3.912E+00 2.896E+00 5.767E+01 1.348E+02 1.953E+02 1.992E+02 1.717E+07 22.7991 1.00000
  7.943E+08 7.943E+08 3.929E+00 3.270E+00 6.475E+01 1.540E+02 2.220E+02 2.259E+02 1.758E+07 23.0294 1.00000
  8.913E+08 8.913E+08 3.946E+00 3.692E+00 7.270E+01 1.759E+02 2.523E+02 2.563E+02 1.799E+07 23.2596 1.00000
  1.000E+09 1.000E+09 3.963E+00 4.166E+00 8.161E+01 2.011E+02 2.868E+02 2.908E+02 1.838E+07 23.4899 1.00000
  1.122E+09 1.122E+09 3.981E+00 4.700E+00 9.162E+01 2.298E+02 3.261E+02 3.301E+02 1.878E+07 23.7201 1.00000
  1.259E+09 1.259E+09 3.998E+00 5.302E+00 1.028E+02 2.626E+02 3.708E+02 3.748E+02 1.917E+07 23.9504 1.00000
  1.413E+09 1.413E+09 4.016E+00 5.980E+00 1.154E+02 3.002E+02 4.216E+02 4.256E+02 1.955E+07 24.1806 1.00000
  1.585E+09 1.585E+09 4.033E+00 6.742E+00 1.296E+02 3.431E+02 4.794E+02 4.834E+02 1.994E+07 24.4109 1.00000
  1.778E+09 1.778E+09 4.051E+00 7.600E+00 1.454E+02 3.922E+02 5.452E+02 5.493E+02 2.031E+07 24.6412 1.00000
  1.995E+09 1.995E+09 4.069E+00 8.565E+00 1.632E+02 4.483E+02 6.201E+02 6.242E+02 2.068E+07 24.8714 1.00000
  2.239E+09 2.239E+09 4.087E+00 9.651E+00 1.832E+02 5.125E+02 7.054E+02 7.094E+02 2.105E+07 25.1017 1.00000
  2.512E+09 2.512E+09 4.105E+00 1.087E+01 2.056E+02 5.859E+02 8.024E+02 8.065E+02 2.141E+07 25.3319 1.00000
  2.818E+09 2.818E+09 4.123E+00 1.225E+01 2.308E+02 6.699E+02 9.129E+02 9.170E+02 2.177E+07 25.5622 1.00000
  3.162E+09 3.162E+09 4.141E+00 1.379E+01 2.590E+02 7.660E+02 1.039E+03 1.043E+03 2.212E+07 25.7925 1.00000
  3.548E+09 3.548E+09 4.160E+00 1.553E+01 2.906E+02 8.758E+02 1.182E+03 1.186E+03 2.247E+07 26.0227 1.00000
  3.981E+09 3.981E+09 4.178E+00 1.748E+01 3.261E+02 1.002E+03 1.345E+03 1.349E+03 2.281E+07 26.2530 1.00000
  4.467E+09 4.467E+09 4.197E+00 1.967E+01 3.660E+02 1.145E+03 1.531E+03 1.535E+03 2.315E+07 26.4832 1.00000
  5.012E+09 5.012E+09 4.215E+00 2.214E+01 4.107E+02 1.310E+03 1.743E+03 1.747E+03 2.348E+07 26.7135 1.00000
  5.623E+09 5.623E+09 4.234E+00 2.491E+01 4.609E+02 1.498E+03 1.984E+03 1.988E+03 2.381E+07 26.9437 1.00000
  6.310E+09 6.310E+09 4.253E+00 2.802E+01 5.172E+02 1.713E+03 2.259E+03 2.263E+03 2.414E+07 27.1740 1.00000
  7.079E+09 7.079E+09 4.272E+00 3.152E+01 5.803E+02 1.960E+03 2.572E+03 2.576E+03 2.446E+07 27.4043 1.00000
  7.943E+09 7.943E+09 4.291E+00 3.544E+01 6.512E+02 2.242E+03 2.928E+03 2.933E+03 2.477E+07 27.6345 1.00000
  8.913E+09 8.913E+09 4.310E+00 3.986E+01 7.307E+02 2.564E+03 3.335E+03 3.339E+03 2.508E+07 27.8648 1.00000
  1.000E+10 1.000E+10 4.330E+00 4.481E+01 8.199E+02 2.934E+03 3.798E+03 3.803E+03 2.539E+07 28.0950 1.00000
  1.122E+10 1.122E+10 4.349E+00 5.038E+01 9.200E+02 3.356E+03 4.327E+03 4.331E+03 2.569E+07 28.3253 1.00000
  1.259E+10 1.259E+10 4.369E+00 5.663E+01 1.032E+03 3.840E+03 4.929E+03 4.933E+03 2.599E+07 28.5556 1.00000
  1.413E+10 1.413E+10 4.388E+00 6.365E+01 1.158E+03 4.393E+03 5.615E+03 5.620E+03 2.628E+07 28.7858 1.00000
  1.585E+10 1.585E+10 4.408E+00 7.153E+01 1.300E+03 5.027E+03 6.398E+03 6.403E+03 2.657E+07 29.0161 1.00000
  1.778E+10 1.778E+10 4.428E+00 8.038E+01 1.458E+03 5.752E+03 7.291E+03 7.296E+03 2.685E+07 29.2463 1.00000
  1.995E+10 1.995E+10 4.448E+00 9.031E+01 1.636E+03 6.583E+03 8.309E+03 8.314E+03 2.713E+07 29.4766 1.00000
  2.239E+10 2.239E+10 4.468E+00 1.015E+02 1.836E+03 7.533E+03 9.471E+03 9.475E+03 2.740E+07 29.7069 1.00000
  2.512E+10 2.512E+10 4.488E+00 1.140E+02 2.060E+03 8.622E+03 1.080E+04 1.080E+04 2.767E+07 29.9371 1.00000
  2.818E+10 2.818E+10 4.508E+00 1.280E+02 2.312E+03 9.868E+03 1.231E+04 1.231E+04 2.794E+07 30.1674 1.00000
  3.162E+10 3.162E+10 4.529E+00 1.438E+02 2.594E+03 1.129E+04 1.403E+04 1.404E+04 2.820E+07 30.3976 1.00000
  3.548E+10 3.548E+10 4.549E+00 1.615E+02 2.910E+03 1.293E+04 1.600E+04 1.600E+04 2.846E+07 30.6279 1.00000
  3.981E+10 3.981E+10 4.570E+00 1.814E+02 3.265E+03 1.480E+04 1.825E+04 1.825E+04 2.871E+07 30.8581 1.00000
  4.467E+10 4.467E+10 4.591E+00 2.037E+02 3.664E+03 1.694E+04 2.081E+04 2.081E+04 2.896E+07 31.0884 1.00000
  5.012E+10 5.012E+10 4.612E+00 2.288E+02 4.111E+03 1.939E+04 2.373E+04 2.374E+04 2.921E+07 31.3187 1.00000
  5.623E+10 5.623E+10 4.633E+00 2.569E+02 4.612E+03 2.220E+04 2.707E+04 2.708E+04 2.945E+07 31.5489 1.00000
  6.310E+10 6.310E+10 4.654E+00 2.884E+02 5.175E+03 2.542E+04 3.089E+04 3.089E+04 2.969E+07 31.7792 1.00000
  7.079E+10 7.079E+10 4.675E+00 3.238E+02 5.807E+03 2.911E+04 3.524E+04 3.524E+04 2.992E+07 32.0094 1.00000
  7.943E+10 7.943E+10 4.696E+00 3.635E+02 6.515E+03 3.333E+04 4.021E+04 4.022E+04 3.015E+07 32.2397 1.00000
  8.913E+10 8.913E+10 4.718E+00 4.081E+02 7.310E+03 3.817E+04 4.589E+04 4.589E+04 3.038E+07 32.4700 1.00000
  1.000E+11 1.000E+11 4.739E+00 4.581E+02 8.202E+03 4.371E+04 5.237E+04 5.238E+04 3.060E+07 32.7002 1.00000
  1.122E+11 1.122E+11 4.761E+00 5.143E+02 9.202E+03 5.006E+04 5.978E+04 5.978E+04 3.082E+07 32.9305 1.00000
  1.259E+11 1.259E+11 4.783E+00 5.773E+02 1.032E+04 5.733E+04 6.824E+04 6.824E+04 3.103E+07 33.1607 1.00000
  1.413E+11 1.413E+11 4.805E+00 6.480E+02 1.158E+04 6.567E+04 7.790E+04 7.791E+04 3.125E+07 33.3910 1.00000
  1.585E+11 1.585E+11 4.827E+00 7.273E+02 1.300E+04 7.522E+04 8.894E+04 8.895E+04 3.145E+07 33.6212 1.00000
  1.778E+11 1.778E+11 4.849E+00 8.163E+02 1.458E+04 8.616E+04 1.016E+05 1.016E+05 3.166E+07 33.8515 1.00000
  1.995E+11 1.995E+11 4.872E+00 9.162E+02 1.636E+04 9.870E+04 1.160E+05 1.160E+05 3.186E+07 34.0818 1.00000
  2.239E+11 2.239E+11 4.894E+00 1.028E+03 1.836E+04 1.131E+05 1.325E+05 1.325E+05 3.205E+07 34.3120 1.00000
  2.512E+11 2.512E+11 4.917E+00 1.154E+03 2.060E+04 1.295E+05 1.513E+05 1.513E+05 3.225E+07 34.5423 1.00000
  2.818E+11 2.818E+11 4.939E+00 1.295E+03 2.311E+04 1.484E+05 1.728E+05 1.728E+05 3.244E+07 34.7725 1.00000
  3.162E+11 3.162E+11 4.962E+00 1.454E+03 2.593E+04 1.701E+05 1.974E+05 1.974E+05 3.262E+07 35.0028 1.00000
  3.548E+11 3.548E+11 4.985E+00 1.631E+03 2.909E+04 1.949E+05 2.256E+05 2.256E+05 3.281E+07 35.2331 1.00000
  3.981E+11 3.981E+11 5.008E+00 1.831E+03 3.264E+04 2.233E+05 2.578E+05 2.578E+05 3.299E+07 35.4633 1.00000
  4.467E+11 4.467E+11 5.032E+00 2.054E+03 3.662E+04 2.559E+05 2.946E+05 2.946E+05 3.316E+07 35.6936 1.00000
  5.012E+11 5.012E+11 5.055E+00 2.305E+03 4.109E+04 2.932E+05 3.366E+05 3.366E+05 3.334E+07 35.9238 1.00000
  5.623E+11 5.623E+11 5.078E+00 2.587E+03 4.610E+04 3.361E+05 3.848E+05 3.848E+05 3.351E+07 36.1541 1.00000
  6.310E+11 6.310E+11 5.102E+00 2.903E+03 5.173E+04 3.852E+05 4.398E+05 4.398E+05 3.368E+07 36.3843 1.00000
  7.079E+11 7.079E+11 5.126E+00 3.258E+03 5.804E+04 4.415E+05 5.028E+05 5.028E+05 3.384E+07 36.6146 1.00000
  7.943E+11 7.943E+11 5.150E+00 3.655E+03 6.512E+04 5.061E+05 5.748E+05 5.749E+05 3.400E+07 36.8449 1.00000
  8.913E+11 8.913E+11 5.174E+00 4.102E+03 7.306E+04 5.801E+05 6.573E+05 6.573E+05 3.416E+07 37.0751 1.00000
  1.000E+12 1.000E+12 5.198E+00 4.603E+03 8.197E+04 6.650E+05 7.516E+05 7.516E+05 3.431E+07 37.3054 1.00000
  1.122E+12 1.122E+12 5.222E+00 5.165E+03 9.197E+04 7.624E+05 8.595E+05 8.595E+05 3.447E+07 37.5356 1.00000
  1.259E+12 1.259E+12 5.247E+00 5.795E+03 1.032E+05 8.741E+05 9.831E+05 9.831E+05 3.461E+07 37.7659 1.00000
  1.413E+12 1.413E+12 5.271E+00 6.503E+03 1.158E+05 1.002E+06 1.124E+06 1.124E+06 3.476E+07 37.9962 1.00000
  1.585E+12 1.585E+12 5.296E+00 7.297E+03 1.299E+05 1.149E+06 1.286E+06 1.286E+06 3.490E+07 38.2264 1.00000
  1.778E+12 1.778E+12 5.321E+00 8.188E+03 1.457E+05 1.318E+06 1.472E+06 1.472E+06 3.505E+07 38.4567 1.00000
  1.995E+12 1.995E+12 5.346E+00 9.187E+03 1.635E+05 1.511E+06 1.684E+06 1.684E+06 3.518E+07 38.6869 1.00000
  2.239E+12 2.239E+12 5.371E+00 1.031E+04 1.835E+05 1.733E+06 1.927E+06 1.927E+06 3.532E+07 38.9172 1.00000
  2.512E+12 2.512E+12 5.396E+00 1.157E+04 2.058E+05 1.987E+06 2.205E+06 2.205E+06 3.545E+07 39.1474 1.00000
  2.818E+12 2.818E+12 5.422E+00 1.298E+04 2.309E+05 2.279E+06 2.523E+06 2.523E+06 3.558E+07 39.3777 1.00000
  3.162E+12 3.162E+12 5.447E+00 1.456E+04 2.591E+05 2.614E+06 2.888E+06 2.888E+06 3.571E+07 39.6080 1.00000
  3.548E+12 3.548E+12 5.473E+00 1.634E+04 2.907E+05 2.998E+06 3.305E+06 3.305E+06 3.584E+07 39.8382 1.00000
  3.981E+12 3.981E+12 5.499E+00 1.833E+04 3.262E+05 3.439E+06 3.784E+06 3.784E+06 3.596E+07 40.0685 1.00000
  4.467E+12 4.467E+12 5.525E+00 2.057E+04 3.660E+05 3.945E+06 4.332E+06 4.332E+06 3.608E+07 40.2987 1.00000
  5.012E+12 5.012E+12 5.551E+00 2.308E+04 4.106E+05 4.526E+06 4.959E+06 4.959E+06 3.620E+07 40.5290 1.00000
  5.623E+12 5.623E+12 5.577E+00 2.590E+04 4.607E+05 5.192E+06 5.679E+06 5.679E+06 3.631E+07 40.7593 1.00000
  6.310E+12 6.310E+12 5.603E+00 2.906E+04 5.169E+05 5.957E+06 6.503E+06 6.503E+06 3.642E+07 40.9895 1.00000
  7.079E+12 7.079E+12 5.630E+00 3.261E+04 5.799E+05 6.835E+06 7.447E+06 7.447E+06 3.654E+07 41.2198 1.00000
  7.943E+12 7.943E+12 5.656E+00 3.659E+04 6.506E+05 7.842E+06 8.529E+06 8.529E+06 3.664E+07 41.4500 1.00000
  8.913E+12 8.913E+12 5.683E+00 4.105E+04 7.300E+05 8.999E+06 9.770E+06 9.770E+06 3.675E+07 41.6803 1.00000
  1.000E+13 1.000E+13 5.710E+00 4.606E+04 8.190E+05 1.033E+07 1.119E+07 1.119E+07 3.686E+07 41.9106 1.00000
  1.122E+13 1.122E+13 5.737E+00 5.168E+04 9.189E+05 1.185E+07 1.282E+07 1.282E+07 3.696E+07 42.1408 1.00000
  1.259E+13 1.259E+13 5.765E+00 5.799E+04 1.031E+06 1.360E+07 1.469E+07 1.469E+07 3.706E+07 42.3711 1.00000
  1.413E+13 1.413E+13 5.792E+00 6.506E+04 1.157E+06 1.561E+07 1.683E+07 1.683E+07 3.716E+07 42.6013 1.00000
  1.585E+13 1.585E+13 5.820E+00 7.300E+04 1.298E+06 1.791E+07 1.928E+07 1.928E+07 3.725E+07 42.8316 1.00000
  1.778E+13 1.778E+13 5.847E+00 8.191E+04 1.456E+06 2.056E+07 2.210E+07 2.210E+07 3.734E+07 43.0618 1.00000
  1.995E+13 1.995E+13 5.875E+00 9.191E+04 1.634E+06 2.360E+07 2.533E+07 2.533E+07 3.744E+07 43.2921 1.00000
  2.239E+13 2.239E+13 5.903E+00 1.031E+05 1.833E+06 2.709E+07 2.903E+07 2.903E+07 3.753E+07 43.5224 1.00000
  2.512E+13 2.512E+13 5.931E+00 1.157E+05 2.056E+06 3.110E+07 3.327E+07 3.327E+07 3.761E+07 43.7526 1.00000
  2.818E+13 2.818E+13 5.960E+00 1.298E+05 2.307E+06 3.570E+07 3.814E+07 3.814E+07 3.770E+07 43.9829 1.00000
  3.162E+13 3.162E+13 5.988E+00 1.457E+05 2.589E+06 4.099E+07 4.373E+07 4.373E+07 3.779E+07 44.2131 1.00000
  3.548E+13 3.548E+13 6.017E+00 1.634E+05 2.904E+06 4.706E+07 5.013E+07 5.013E+07 3.787E+07 44.4434 1.00000
  3.981E+13 3.981E+13 6.045E+00 1.834E+05 3.258E+06 5.404E+07 5.748E+07 5.748E+07 3.795E+07 44.6737 1.00000
  4.467E+13 4.467E+13 6.074E+00 2.058E+05 3.656E+06 6.205E+07 6.591E+07 6.591E+07 3.803E+07 44.9039 1.00000
  5.012E+13 5.012E+13 6.103E+00 2.309E+05 4.102E+06 7.125E+07 7.558E+07 7.558E+07 3.811E+07 45.1342 1.00000
  5.623E+13 5.623E+13 6.133E+00 2.590E+05 4.602E+06 8.182E+07 8.668E+07 8.668E+07 3.818E+07 45.3644 1.00000
  6.310E+13 6.310E+13 6.162E+00 2.906E+05 5.163E+06 9.396E+07 9.941E+07 9.941E+07 3.826E+07 45.5947 1.00000
  7.079E+13 7.079E+13 6.192E+00 3.261E+05 5.793E+06 1.079E+08 1.140E+08 1.140E+08 3.833E+07 45.8249 1.00000
  7.943E+13 7.943E+13 6.221E+00 3.659E+05 6.499E+06 1.239E+08 1.308E+08 1.308E+08 3.840E+07 46.0552 1.00000
  8.913E+13 8.913E+13 6.251E+00 4.106E+05 7.292E+06 1.423E+08 1.500E+08 1.500E+08 3.847E+07 46.2855 1.00000
