 Incident particle is a Tau with M = 1776.82000 MeV
 Index = 0: RubberNatural
      Absorber with <Z/A> = 0.55777
 Sternheimer coef:  a     k=m_s   x_0    x_1    I[eV]   Cbar  delta0
                 0.1506  3.2879  0.1512  2.4815   59.8  3.1272 0.00

 *** Table generated with PUMAS v1.00 ***

      T         p     Ionization  brems     pair     photonuc  Radloss    dE/dx   CSDA Range  delta   beta
    [MeV]    [MeV/c]  -----------------------[MeV cm^2/g]------------------------  [g/cm^2]
  1.000E+05 1.018E+05 2.467E+00 1.116E-04 1.735E-03 8.459E-03 1.031E-02 2.477E+00 2.018E+04  5.0204 0.99985
  1.122E+05 1.140E+05 2.488E+00 1.289E-04 2.101E-03 9.562E-03 1.179E-02 2.500E+00 2.509E+04  5.2362 0.99988
  1.259E+05 1.277E+05 2.509E+00 1.488E-04 2.532E-03 1.075E-02 1.343E-02 2.522E+00 3.054E+04  5.4540 0.99990
  1.413E+05 1.430E+05 2.529E+00 1.717E-04 3.042E-03 1.209E-02 1.530E-02 2.545E+00 3.660E+04  5.6736 0.99992
  1.585E+05 1.603E+05 2.550E+00 1.980E-04 3.641E-03 1.359E-02 1.743E-02 2.567E+00 4.335E+04  5.8950 0.99994
  1.778E+05 1.796E+05 2.571E+00 2.282E-04 4.345E-03 1.527E-02 1.984E-02 2.590E+00 5.085E+04  6.1178 0.99995
  1.995E+05 2.013E+05 2.591E+00 2.630E-04 5.170E-03 1.718E-02 2.262E-02 2.614E+00 5.919E+04  6.3419 0.99996
  2.239E+05 2.256E+05 2.612E+00 3.029E-04 6.136E-03 1.928E-02 2.572E-02 2.637E+00 6.846E+04  6.5672 0.99997
  2.512E+05 2.530E+05 2.632E+00 3.487E-04 7.263E-03 2.163E-02 2.924E-02 2.661E+00 7.877E+04  6.7935 0.99998
  2.818E+05 2.836E+05 2.653E+00 4.013E-04 8.577E-03 2.428E-02 3.326E-02 2.686E+00 9.023E+04  7.0206 0.99998
  3.162E+05 3.180E+05 2.673E+00 4.617E-04 1.011E-02 2.728E-02 3.785E-02 2.711E+00 1.030E+05  7.2484 0.99998
  3.548E+05 3.566E+05 2.693E+00 5.309E-04 1.188E-02 3.065E-02 4.306E-02 2.736E+00 1.171E+05  7.4768 0.99999
  3.981E+05 3.999E+05 2.714E+00 6.103E-04 1.394E-02 3.441E-02 4.896E-02 2.763E+00 1.329E+05  7.7057 0.99999
  4.467E+05 4.485E+05 2.734E+00 7.013E-04 1.633E-02 3.863E-02 5.566E-02 2.790E+00 1.504E+05  7.9348 0.99999
  5.012E+05 5.030E+05 2.754E+00 8.056E-04 1.909E-02 4.339E-02 6.328E-02 2.817E+00 1.698E+05  8.1642 0.99999
  5.623E+05 5.641E+05 2.774E+00 9.251E-04 2.227E-02 4.855E-02 7.175E-02 2.846E+00 1.914E+05  8.3937 1.00000
  6.310E+05 6.327E+05 2.794E+00 1.062E-03 2.595E-02 5.437E-02 8.138E-02 2.876E+00 2.154E+05  8.6232 1.00000
  7.079E+05 7.097E+05 2.814E+00 1.219E-03 3.018E-02 6.093E-02 9.234E-02 2.907E+00 2.420E+05  8.8529 1.00000
  7.943E+05 7.961E+05 2.834E+00 1.398E-03 3.506E-02 6.836E-02 1.048E-01 2.939E+00 2.716E+05  9.0826 1.00000
  8.913E+05 8.930E+05 2.854E+00 1.604E-03 4.066E-02 7.675E-02 1.190E-01 2.973E+00 3.044E+05  9.3124 1.00000
  1.000E+06 1.002E+06 2.874E+00 1.839E-03 4.708E-02 8.625E-02 1.352E-01 3.009E+00 3.407E+05  9.5422 1.00000
  1.122E+06 1.124E+06 2.894E+00 2.108E-03 5.446E-02 9.700E-02 1.536E-01 3.047E+00 3.810E+05  9.7721 1.00000
  1.259E+06 1.261E+06 2.913E+00 2.416E-03 6.290E-02 1.092E-01 1.745E-01 3.088E+00 4.257E+05 10.0020 1.00000
  1.413E+06 1.414E+06 2.933E+00 2.768E-03 7.256E-02 1.230E-01 1.983E-01 3.131E+00 4.751E+05 10.2319 1.00000
  1.585E+06 1.587E+06 2.952E+00 3.171E-03 8.361E-02 1.387E-01 2.254E-01 3.178E+00 5.297E+05 10.4619 1.00000
  1.778E+06 1.780E+06 2.971E+00 3.631E-03 9.622E-02 1.564E-01 2.563E-01 3.228E+00 5.901E+05 10.6919 1.00000
  1.995E+06 1.997E+06 2.990E+00 4.157E-03 1.106E-01 1.766E-01 2.914E-01 3.282E+00 6.568E+05 10.9220 1.00000
  2.239E+06 2.240E+06 3.009E+00 4.759E-03 1.270E-01 1.996E-01 3.313E-01 3.341E+00 7.303E+05 11.1521 1.00000
  2.512E+06 2.514E+06 3.028E+00 5.446E-03 1.457E-01 2.256E-01 3.768E-01 3.405E+00 8.113E+05 11.3821 1.00000
  2.818E+06 2.820E+06 3.047E+00 6.231E-03 1.669E-01 2.552E-01 4.284E-01 3.475E+00 9.004E+05 11.6122 1.00000
  3.162E+06 3.164E+06 3.065E+00 7.128E-03 1.911E-01 2.889E-01 4.872E-01 3.552E+00 9.983E+05 11.8424 1.00000
  3.548E+06 3.550E+06 3.083E+00 8.152E-03 2.186E-01 3.273E-01 5.540E-01 3.637E+00 1.106E+06 12.0725 1.00000
  3.981E+06 3.983E+06 3.101E+00 9.320E-03 2.497E-01 3.709E-01 6.299E-01 3.731E+00 1.223E+06 12.3027 1.00000
  4.467E+06 4.469E+06 3.119E+00 1.065E-02 2.851E-01 4.205E-01 7.162E-01 3.835E+00 1.352E+06 12.5328 1.00000
  5.012E+06 5.014E+06 3.137E+00 1.218E-02 3.251E-01 4.770E-01 8.143E-01 3.951E+00 1.492E+06 12.7630 1.00000
  5.623E+06 5.625E+06 3.155E+00 1.391E-02 3.705E-01 5.414E-01 9.258E-01 4.080E+00 1.644E+06 12.9932 1.00000
  6.310E+06 6.311E+06 3.172E+00 1.589E-02 4.219E-01 6.147E-01 1.052E+00 4.224E+00 1.809E+06 13.2234 1.00000
  7.079E+06 7.081E+06 3.189E+00 1.815E-02 4.800E-01 6.982E-01 1.196E+00 4.385E+00 1.988E+06 13.4536 1.00000
  7.943E+06 7.945E+06 3.206E+00 2.072E-02 5.457E-01 7.933E-01 1.360E+00 4.566E+00 2.181E+06 13.6838 1.00000
  8.913E+06 8.914E+06 3.223E+00 2.365E-02 6.199E-01 9.018E-01 1.545E+00 4.768E+00 2.389E+06 13.9140 1.00000
  1.000E+07 1.000E+07 3.240E+00 2.699E-02 7.038E-01 1.025E+00 1.756E+00 4.996E+00 2.612E+06 14.1442 1.00000
  1.122E+07 1.122E+07 3.256E+00 3.079E-02 7.985E-01 1.166E+00 1.996E+00 5.252E+00 2.850E+06 14.3744 1.00000
  1.259E+07 1.259E+07 3.273E+00 3.512E-02 9.053E-01 1.327E+00 2.267E+00 5.540E+00 3.104E+06 14.6046 1.00000
  1.413E+07 1.413E+07 3.289E+00 4.004E-02 1.026E+00 1.510E+00 2.576E+00 5.865E+00 3.374E+06 14.8349 1.00000
  1.585E+07 1.585E+07 3.305E+00 4.565E-02 1.162E+00 1.719E+00 2.927E+00 6.231E+00 3.659E+06 15.0651 1.00000
  1.778E+07 1.778E+07 3.321E+00 5.202E-02 1.315E+00 1.958E+00 3.324E+00 6.645E+00 3.960E+06 15.2953 1.00000
  1.995E+07 1.995E+07 3.337E+00 5.927E-02 1.487E+00 2.229E+00 3.776E+00 7.113E+00 4.275E+06 15.5256 1.00000
  2.239E+07 2.239E+07 3.353E+00 6.750E-02 1.682E+00 2.540E+00 4.289E+00 7.642E+00 4.606E+06 15.7558 1.00000
  2.512E+07 2.512E+07 3.368E+00 7.687E-02 1.900E+00 2.894E+00 4.871E+00 8.239E+00 4.950E+06 15.9860 1.00000
  2.818E+07 2.819E+07 3.384E+00 8.750E-02 2.147E+00 3.297E+00 5.532E+00 8.916E+00 5.308E+06 16.2163 1.00000
  3.162E+07 3.162E+07 3.400E+00 9.958E-02 2.424E+00 3.758E+00 6.282E+00 9.681E+00 5.679E+06 16.4465 1.00000
  3.548E+07 3.548E+07 3.415E+00 1.133E-01 2.736E+00 4.284E+00 7.133E+00 1.055E+01 6.061E+06 16.6768 1.00000
  3.981E+07 3.981E+07 3.431E+00 1.289E-01 3.086E+00 4.885E+00 8.100E+00 1.153E+01 6.454E+06 16.9070 1.00000
  4.467E+07 4.467E+07 3.446E+00 1.465E-01 3.480E+00 5.570E+00 9.197E+00 1.264E+01 6.857E+06 17.1373 1.00000
  5.012E+07 5.012E+07 3.462E+00 1.665E-01 3.924E+00 6.352E+00 1.044E+01 1.390E+01 7.268E+06 17.3675 1.00000
  5.623E+07 5.624E+07 3.477E+00 1.892E-01 4.422E+00 7.245E+00 1.186E+01 1.533E+01 7.687E+06 17.5978 1.00000
  6.310E+07 6.310E+07 3.493E+00 2.150E-01 4.982E+00 8.265E+00 1.346E+01 1.695E+01 8.114E+06 17.8280 1.00000
  7.079E+07 7.080E+07 3.508E+00 2.442E-01 5.611E+00 9.429E+00 1.528E+01 1.879E+01 8.545E+06 18.0583 1.00000
  7.943E+07 7.943E+07 3.524E+00 2.772E-01 6.318E+00 1.076E+01 1.735E+01 2.088E+01 8.982E+06 18.2885 1.00000
  8.913E+07 8.913E+07 3.539E+00 3.147E-01 7.112E+00 1.228E+01 1.970E+01 2.324E+01 9.423E+06 18.5188 1.00000
  1.000E+08 1.000E+08 3.555E+00 3.571E-01 8.004E+00 1.401E+01 2.237E+01 2.593E+01 9.866E+06 18.7490 1.00000
  1.122E+08 1.122E+08 3.571E+00 4.050E-01 9.006E+00 1.599E+01 2.540E+01 2.897E+01 1.031E+07 18.9793 1.00000
  1.259E+08 1.259E+08 3.586E+00 4.593E-01 1.013E+01 1.825E+01 2.884E+01 3.243E+01 1.076E+07 19.2095 1.00000
  1.413E+08 1.413E+08 3.602E+00 5.207E-01 1.140E+01 2.083E+01 3.275E+01 3.635E+01 1.121E+07 19.4398 1.00000
  1.585E+08 1.585E+08 3.618E+00 5.902E-01 1.281E+01 2.378E+01 3.718E+01 4.080E+01 1.166E+07 19.6701 1.00000
  1.778E+08 1.778E+08 3.633E+00 6.687E-01 1.441E+01 2.715E+01 4.222E+01 4.586E+01 1.210E+07 19.9003 1.00000
  1.995E+08 1.995E+08 3.649E+00 7.575E-01 1.619E+01 3.100E+01 4.795E+01 5.160E+01 1.255E+07 20.1306 1.00000
  2.239E+08 2.239E+08 3.665E+00 8.578E-01 1.820E+01 3.539E+01 5.445E+01 5.812E+01 1.300E+07 20.3608 1.00000
  2.512E+08 2.512E+08 3.681E+00 9.711E-01 2.046E+01 4.042E+01 6.184E+01 6.552E+01 1.344E+07 20.5911 1.00000
  2.818E+08 2.818E+08 3.697E+00 1.099E+00 2.298E+01 4.616E+01 7.024E+01 7.394E+01 1.388E+07 20.8213 1.00000
  3.162E+08 3.162E+08 3.713E+00 1.243E+00 2.582E+01 5.271E+01 7.978E+01 8.349E+01 1.432E+07 21.0516 1.00000
  3.548E+08 3.548E+08 3.729E+00 1.407E+00 2.901E+01 6.021E+01 9.062E+01 9.435E+01 1.475E+07 21.2819 1.00000
  3.981E+08 3.981E+08 3.746E+00 1.590E+00 3.259E+01 6.877E+01 1.029E+02 1.067E+02 1.519E+07 21.5121 1.00000
  4.467E+08 4.467E+08 3.762E+00 1.798E+00 3.660E+01 7.856E+01 1.170E+02 1.207E+02 1.562E+07 21.7424 1.00000
  5.012E+08 5.012E+08 3.778E+00 2.032E+00 4.111E+01 8.974E+01 1.329E+02 1.367E+02 1.604E+07 21.9726 1.00000
  5.623E+08 5.623E+08 3.795E+00 2.296E+00 4.616E+01 1.025E+02 1.510E+02 1.548E+02 1.646E+07 22.2029 1.00000
  6.310E+08 6.310E+08 3.811E+00 2.593E+00 5.184E+01 1.171E+02 1.716E+02 1.754E+02 1.688E+07 22.4331 1.00000
  7.079E+08 7.079E+08 3.828E+00 2.929E+00 5.820E+01 1.338E+02 1.950E+02 1.988E+02 1.729E+07 22.6634 1.00000
  7.943E+08 7.943E+08 3.845E+00 3.307E+00 6.535E+01 1.529E+02 2.216E+02 2.254E+02 1.770E+07 22.8937 1.00000
  8.913E+08 8.913E+08 3.862E+00 3.732E+00 7.337E+01 1.747E+02 2.518E+02 2.557E+02 1.811E+07 23.1239 1.00000
  1.000E+09 1.000E+09 3.879E+00 4.212E+00 8.236E+01 1.997E+02 2.863E+02 2.901E+02 1.851E+07 23.3542 1.00000
  1.122E+09 1.122E+09 3.896E+00 4.752E+00 9.246E+01 2.282E+02 3.254E+02 3.293E+02 1.890E+07 23.5844 1.00000
  1.259E+09 1.259E+09 3.913E+00 5.360E+00 1.038E+02 2.608E+02 3.700E+02 3.739E+02 1.929E+07 23.8147 1.00000
  1.413E+09 1.413E+09 3.930E+00 6.044E+00 1.165E+02 2.981E+02 4.206E+02 4.246E+02 1.968E+07 24.0449 1.00000
  1.585E+09 1.585E+09 3.947E+00 6.815E+00 1.308E+02 3.407E+02 4.783E+02 4.823E+02 2.006E+07 24.2752 1.00000
  1.778E+09 1.778E+09 3.964E+00 7.681E+00 1.468E+02 3.895E+02 5.439E+02 5.479E+02 2.044E+07 24.5055 1.00000
  1.995E+09 1.995E+09 3.982E+00 8.656E+00 1.647E+02 4.452E+02 6.186E+02 6.226E+02 2.081E+07 24.7357 1.00000
  2.239E+09 2.239E+09 3.999E+00 9.753E+00 1.849E+02 5.090E+02 7.036E+02 7.076E+02 2.118E+07 24.9660 1.00000
  2.512E+09 2.512E+09 4.017E+00 1.099E+01 2.075E+02 5.819E+02 8.004E+02 8.044E+02 2.154E+07 25.1962 1.00000
  2.818E+09 2.818E+09 4.035E+00 1.237E+01 2.329E+02 6.653E+02 9.106E+02 9.146E+02 2.190E+07 25.4265 1.00000
  3.162E+09 3.162E+09 4.053E+00 1.393E+01 2.613E+02 7.607E+02 1.036E+03 1.040E+03 2.225E+07 25.6568 1.00000
  3.548E+09 3.548E+09 4.071E+00 1.569E+01 2.933E+02 8.698E+02 1.179E+03 1.183E+03 2.260E+07 25.8870 1.00000
  3.981E+09 3.981E+09 4.089E+00 1.766E+01 3.291E+02 9.947E+02 1.341E+03 1.346E+03 2.294E+07 26.1173 1.00000
  4.467E+09 4.467E+09 4.107E+00 1.987E+01 3.693E+02 1.137E+03 1.527E+03 1.531E+03 2.328E+07 26.3475 1.00000
  5.012E+09 5.012E+09 4.125E+00 2.236E+01 4.145E+02 1.301E+03 1.738E+03 1.742E+03 2.362E+07 26.5778 1.00000
  5.623E+09 5.623E+09 4.144E+00 2.516E+01 4.651E+02 1.488E+03 1.978E+03 1.982E+03 2.395E+07 26.8080 1.00000
  6.310E+09 6.310E+09 4.162E+00 2.830E+01 5.219E+02 1.702E+03 2.252E+03 2.256E+03 2.427E+07 27.0383 1.00000
  7.079E+09 7.079E+09 4.181E+00 3.184E+01 5.857E+02 1.946E+03 2.564E+03 2.568E+03 2.459E+07 27.2686 1.00000
  7.943E+09 7.943E+09 4.199E+00 3.580E+01 6.572E+02 2.226E+03 2.919E+03 2.924E+03 2.491E+07 27.4988 1.00000
  8.913E+09 8.913E+09 4.218E+00 4.026E+01 7.374E+02 2.547E+03 3.324E+03 3.329E+03 2.522E+07 27.7291 1.00000
  1.000E+10 1.000E+10 4.237E+00 4.526E+01 8.275E+02 2.913E+03 3.786E+03 3.790E+03 2.553E+07 27.9593 1.00000
  1.122E+10 1.122E+10 4.256E+00 5.088E+01 9.285E+02 3.333E+03 4.313E+03 4.317E+03 2.583E+07 28.1896 1.00000
  1.259E+10 1.259E+10 4.275E+00 5.719E+01 1.042E+03 3.814E+03 4.913E+03 4.917E+03 2.613E+07 28.4199 1.00000
  1.413E+10 1.413E+10 4.294E+00 6.428E+01 1.169E+03 4.363E+03 5.597E+03 5.601E+03 2.642E+07 28.6501 1.00000
  1.585E+10 1.585E+10 4.313E+00 7.224E+01 1.312E+03 4.993E+03 6.377E+03 6.381E+03 2.671E+07 28.8804 1.00000
  1.778E+10 1.778E+10 4.333E+00 8.117E+01 1.472E+03 5.713E+03 7.266E+03 7.270E+03 2.699E+07 29.1106 1.00000
  1.995E+10 1.995E+10 4.352E+00 9.120E+01 1.651E+03 6.538E+03 8.280E+03 8.285E+03 2.727E+07 29.3409 1.00000
  2.239E+10 2.239E+10 4.372E+00 1.025E+02 1.853E+03 7.482E+03 9.437E+03 9.442E+03 2.755E+07 29.5712 1.00000
  2.512E+10 2.512E+10 4.392E+00 1.151E+02 2.079E+03 8.563E+03 1.076E+04 1.076E+04 2.782E+07 29.8014 1.00000
  2.818E+10 2.818E+10 4.412E+00 1.293E+02 2.333E+03 9.800E+03 1.226E+04 1.227E+04 2.809E+07 30.0317 1.00000
  3.162E+10 3.162E+10 4.432E+00 1.452E+02 2.617E+03 1.122E+04 1.398E+04 1.398E+04 2.835E+07 30.2619 1.00000
  3.548E+10 3.548E+10 4.452E+00 1.631E+02 2.937E+03 1.284E+04 1.594E+04 1.594E+04 2.861E+07 30.4922 1.00000
  3.981E+10 3.981E+10 4.472E+00 1.832E+02 3.295E+03 1.470E+04 1.818E+04 1.818E+04 2.887E+07 30.7224 1.00000
  4.467E+10 4.467E+10 4.492E+00 2.057E+02 3.697E+03 1.683E+04 2.073E+04 2.073E+04 2.912E+07 30.9527 1.00000
  5.012E+10 5.012E+10 4.513E+00 2.310E+02 4.148E+03 1.926E+04 2.364E+04 2.365E+04 2.936E+07 31.1830 1.00000
  5.623E+10 5.623E+10 4.533E+00 2.594E+02 4.655E+03 2.205E+04 2.697E+04 2.697E+04 2.961E+07 31.4132 1.00000
  6.310E+10 6.310E+10 4.554E+00 2.912E+02 5.223E+03 2.525E+04 3.076E+04 3.077E+04 2.985E+07 31.6435 1.00000
  7.079E+10 7.079E+10 4.575E+00 3.269E+02 5.860E+03 2.891E+04 3.510E+04 3.510E+04 3.008E+07 31.8737 1.00000
  7.943E+10 7.943E+10 4.596E+00 3.670E+02 6.575E+03 3.310E+04 4.005E+04 4.005E+04 3.031E+07 32.1040 1.00000
  8.913E+10 8.913E+10 4.617E+00 4.121E+02 7.377E+03 3.791E+04 4.570E+04 4.570E+04 3.054E+07 32.3343 1.00000
  1.000E+11 1.000E+11 4.638E+00 4.626E+02 8.277E+03 4.341E+04 5.215E+04 5.216E+04 3.076E+07 32.5645 1.00000
  1.122E+11 1.122E+11 4.659E+00 5.192E+02 9.286E+03 4.972E+04 5.952E+04 5.953E+04 3.098E+07 32.7948 1.00000
  1.259E+11 1.259E+11 4.680E+00 5.828E+02 1.042E+04 5.694E+04 6.794E+04 6.795E+04 3.120E+07 33.0250 1.00000
  1.413E+11 1.413E+11 4.702E+00 6.542E+02 1.169E+04 6.522E+04 7.756E+04 7.757E+04 3.141E+07 33.2553 1.00000
  1.585E+11 1.585E+11 4.723E+00 7.343E+02 1.312E+04 7.470E+04 8.856E+04 8.856E+04 3.162E+07 33.4855 1.00000
  1.778E+11 1.778E+11 4.745E+00 8.242E+02 1.472E+04 8.557E+04 1.011E+05 1.011E+05 3.182E+07 33.7158 1.00000
  1.995E+11 1.995E+11 4.767E+00 9.250E+02 1.651E+04 9.803E+04 1.155E+05 1.155E+05 3.202E+07 33.9461 1.00000
  2.239E+11 2.239E+11 4.789E+00 1.038E+03 1.853E+04 1.123E+05 1.319E+05 1.319E+05 3.222E+07 34.1763 1.00000
  2.512E+11 2.512E+11 4.811E+00 1.165E+03 2.079E+04 1.287E+05 1.506E+05 1.506E+05 3.241E+07 34.4066 1.00000
  2.818E+11 2.818E+11 4.833E+00 1.308E+03 2.332E+04 1.474E+05 1.720E+05 1.720E+05 3.261E+07 34.6368 1.00000
  3.162E+11 3.162E+11 4.856E+00 1.467E+03 2.617E+04 1.689E+05 1.965E+05 1.965E+05 3.279E+07 34.8671 1.00000
  3.548E+11 3.548E+11 4.878E+00 1.647E+03 2.936E+04 1.935E+05 2.245E+05 2.245E+05 3.298E+07 35.0974 1.00000
  3.981E+11 3.981E+11 4.901E+00 1.848E+03 3.294E+04 2.218E+05 2.565E+05 2.566E+05 3.316E+07 35.3276 1.00000
  4.467E+11 4.467E+11 4.924E+00 2.074E+03 3.696E+04 2.541E+05 2.932E+05 2.932E+05 3.334E+07 35.5579 1.00000
  5.012E+11 5.012E+11 4.946E+00 2.327E+03 4.147E+04 2.912E+05 3.350E+05 3.350E+05 3.351E+07 35.7881 1.00000
  5.623E+11 5.623E+11 4.969E+00 2.612E+03 4.653E+04 3.338E+05 3.829E+05 3.829E+05 3.368E+07 36.0184 1.00000
  6.310E+11 6.310E+11 4.992E+00 2.931E+03 5.220E+04 3.826E+05 4.377E+05 4.377E+05 3.385E+07 36.2486 1.00000
  7.079E+11 7.079E+11 5.016E+00 3.289E+03 5.857E+04 4.385E+05 5.003E+05 5.003E+05 3.401E+07 36.4789 1.00000
  7.943E+11 7.943E+11 5.039E+00 3.690E+03 6.571E+04 5.026E+05 5.720E+05 5.720E+05 3.418E+07 36.7092 1.00000
  8.913E+11 8.913E+11 5.063E+00 4.141E+03 7.373E+04 5.761E+05 6.540E+05 6.540E+05 3.433E+07 36.9394 1.00000
  1.000E+12 1.000E+12 5.086E+00 4.647E+03 8.272E+04 6.605E+05 7.478E+05 7.479E+05 3.449E+07 37.1697 1.00000
  1.122E+12 1.122E+12 5.110E+00 5.214E+03 9.281E+04 7.572E+05 8.552E+05 8.552E+05 3.464E+07 37.3999 1.00000
  1.259E+12 1.259E+12 5.134E+00 5.851E+03 1.041E+05 8.681E+05 9.781E+05 9.781E+05 3.479E+07 37.6302 1.00000
  1.413E+12 1.413E+12 5.158E+00 6.565E+03 1.168E+05 9.953E+05 1.119E+06 1.119E+06 3.494E+07 37.8605 1.00000
  1.585E+12 1.585E+12 5.182E+00 7.367E+03 1.311E+05 1.141E+06 1.280E+06 1.280E+06 3.508E+07 38.0907 1.00000
  1.778E+12 1.778E+12 5.206E+00 8.266E+03 1.471E+05 1.309E+06 1.464E+06 1.464E+06 3.523E+07 38.3210 1.00000
  1.995E+12 1.995E+12 5.231E+00 9.275E+03 1.650E+05 1.501E+06 1.675E+06 1.675E+06 3.537E+07 38.5512 1.00000
  2.239E+12 2.239E+12 5.255E+00 1.041E+04 1.851E+05 1.721E+06 1.916E+06 1.916E+06 3.550E+07 38.7815 1.00000
  2.512E+12 2.512E+12 5.280E+00 1.168E+04 2.077E+05 1.974E+06 2.193E+06 2.193E+06 3.563E+07 39.0117 1.00000
  2.818E+12 2.818E+12 5.305E+00 1.310E+04 2.331E+05 2.263E+06 2.510E+06 2.510E+06 3.577E+07 39.2420 1.00000
  3.162E+12 3.162E+12 5.330E+00 1.470E+04 2.615E+05 2.596E+06 2.872E+06 2.872E+06 3.589E+07 39.4723 1.00000
  3.548E+12 3.548E+12 5.355E+00 1.650E+04 2.934E+05 2.978E+06 3.288E+06 3.288E+06 3.602E+07 39.7025 1.00000
  3.981E+12 3.981E+12 5.380E+00 1.851E+04 3.292E+05 3.416E+06 3.763E+06 3.763E+06 3.614E+07 39.9328 1.00000
  4.467E+12 4.467E+12 5.406E+00 2.077E+04 3.693E+05 3.918E+06 4.308E+06 4.308E+06 3.626E+07 40.1630 1.00000
  5.012E+12 5.012E+12 5.431E+00 2.330E+04 4.143E+05 4.495E+06 4.932E+06 4.932E+06 3.638E+07 40.3933 1.00000
  5.623E+12 5.623E+12 5.457E+00 2.615E+04 4.649E+05 5.157E+06 5.648E+06 5.648E+06 3.650E+07 40.6236 1.00000
  6.310E+12 6.310E+12 5.483E+00 2.934E+04 5.216E+05 5.916E+06 6.467E+06 6.467E+06 3.661E+07 40.8538 1.00000
  7.079E+12 7.079E+12 5.509E+00 3.292E+04 5.852E+05 6.788E+06 7.406E+06 7.406E+06 3.672E+07 41.0841 1.00000
  7.943E+12 7.943E+12 5.535E+00 3.694E+04 6.566E+05 7.788E+06 8.482E+06 8.482E+06 3.683E+07 41.3143 1.00000
  8.913E+12 8.913E+12 5.561E+00 4.144E+04 7.367E+05 8.937E+06 9.715E+06 9.715E+06 3.694E+07 41.5446 1.00000
  1.000E+13 1.000E+13 5.587E+00 4.650E+04 8.265E+05 1.026E+07 1.113E+07 1.113E+07 3.705E+07 41.7749 1.00000
  1.122E+13 1.122E+13 5.614E+00 5.217E+04 9.273E+05 1.177E+07 1.275E+07 1.275E+07 3.715E+07 42.0051 1.00000
  1.259E+13 1.259E+13 5.641E+00 5.854E+04 1.040E+06 1.351E+07 1.461E+07 1.461E+07 3.725E+07 42.2354 1.00000
  1.413E+13 1.413E+13 5.667E+00 6.568E+04 1.167E+06 1.550E+07 1.673E+07 1.673E+07 3.735E+07 42.4656 1.00000
  1.585E+13 1.585E+13 5.694E+00 7.370E+04 1.310E+06 1.779E+07 1.917E+07 1.917E+07 3.744E+07 42.6959 1.00000
  1.778E+13 1.778E+13 5.721E+00 8.269E+04 1.469E+06 2.042E+07 2.197E+07 2.197E+07 3.754E+07 42.9261 1.00000
  1.995E+13 1.995E+13 5.749E+00 9.278E+04 1.649E+06 2.344E+07 2.518E+07 2.518E+07 3.763E+07 43.1564 1.00000
  2.239E+13 2.239E+13 5.776E+00 1.041E+05 1.850E+06 2.691E+07 2.886E+07 2.886E+07 3.772E+07 43.3867 1.00000
  2.512E+13 2.512E+13 5.804E+00 1.168E+05 2.075E+06 3.089E+07 3.308E+07 3.308E+07 3.781E+07 43.6169 1.00000
  2.818E+13 2.818E+13 5.831E+00 1.311E+05 2.328E+06 3.546E+07 3.792E+07 3.792E+07 3.790E+07 43.8472 1.00000
  3.162E+13 3.162E+13 5.859E+00 1.471E+05 2.612E+06 4.071E+07 4.347E+07 4.347E+07 3.798E+07 44.0774 1.00000
  3.548E+13 3.548E+13 5.887E+00 1.650E+05 2.931E+06 4.674E+07 4.984E+07 4.984E+07 3.806E+07 44.3077 1.00000
  3.981E+13 3.981E+13 5.915E+00 1.851E+05 3.288E+06 5.367E+07 5.714E+07 5.714E+07 3.815E+07 44.5380 1.00000
  4.467E+13 4.467E+13 5.944E+00 2.077E+05 3.689E+06 6.162E+07 6.552E+07 6.552E+07 3.823E+07 44.7682 1.00000
  5.012E+13 5.012E+13 5.972E+00 2.331E+05 4.139E+06 7.076E+07 7.513E+07 7.513E+07 3.830E+07 44.9985 1.00000
  5.623E+13 5.623E+13 6.001E+00 2.615E+05 4.644E+06 8.126E+07 8.616E+07 8.616E+07 3.838E+07 45.2287 1.00000
  6.310E+13 6.310E+13 6.029E+00 2.934E+05 5.210E+06 9.331E+07 9.882E+07 9.882E+07 3.845E+07 45.4590 1.00000
  7.079E+13 7.079E+13 6.058E+00 3.292E+05 5.846E+06 1.072E+08 1.133E+08 1.133E+08 3.853E+07 45.6892 1.00000
  7.943E+13 7.943E+13 6.087E+00 3.694E+05 6.559E+06 1.231E+08 1.300E+08 1.300E+08 3.860E+07 45.9195 1.00000
  8.913E+13 8.913E+13 6.116E+00 4.145E+05 7.359E+06 1.414E+08 1.491E+08 1.491E+08 3.867E+07 46.1498 1.00000
