 Incident particle is a Tau with M = 1776.82000 MeV
 Index = 0: Rubidium
      Absorber with <Z/A> = 0.43291
 Sternheimer coef:  a     k=m_s   x_0    x_1    I[eV]   Cbar  delta0
                 0.0726  3.4177  0.5737  3.7995  363.0  6.4776 0.14

 *** Table generated with PUMAS v1.00 ***

      T         p     Ionization  brems     pair     photonuc  Radloss    dE/dx   CSDA Range  delta   beta
    [MeV]    [MeV/c]  -----------------------[MeV cm^2/g]------------------------  [g/cm^2]
  1.000E+05 1.018E+05 1.846E+00 5.532E-04 9.318E-03 7.784E-03 1.765E-02 1.863E+00 2.683E+04  2.4503 0.99985
  1.122E+05 1.140E+05 1.866E+00 6.407E-04 1.117E-02 8.752E-03 2.056E-02 1.886E+00 3.334E+04  2.6103 0.99988
  1.259E+05 1.277E+05 1.885E+00 7.416E-04 1.335E-02 9.790E-03 2.388E-02 1.909E+00 4.056E+04  2.7744 0.99990
  1.413E+05 1.430E+05 1.905E+00 8.579E-04 1.590E-02 1.095E-02 2.772E-02 1.933E+00 4.855E+04  2.9425 0.99992
  1.585E+05 1.603E+05 1.924E+00 9.919E-04 1.890E-02 1.225E-02 3.215E-02 1.956E+00 5.742E+04  3.1145 0.99994
  1.778E+05 1.796E+05 1.943E+00 1.146E-03 2.241E-02 1.369E-02 3.725E-02 1.981E+00 6.724E+04  3.2901 0.99995
  1.995E+05 2.013E+05 1.962E+00 1.324E-03 2.651E-02 1.533E-02 4.316E-02 2.006E+00 7.813E+04  3.4694 0.99996
  2.239E+05 2.256E+05 1.981E+00 1.528E-03 3.129E-02 1.711E-02 4.993E-02 2.031E+00 9.019E+04  3.6520 0.99997
  2.512E+05 2.530E+05 2.000E+00 1.763E-03 3.684E-02 1.910E-02 5.771E-02 2.057E+00 1.036E+05  3.8380 0.99998
  2.818E+05 2.836E+05 2.018E+00 2.032E-03 4.329E-02 2.133E-02 6.666E-02 2.085E+00 1.184E+05  4.0271 0.99998
  3.162E+05 3.180E+05 2.036E+00 2.342E-03 5.077E-02 2.385E-02 7.696E-02 2.113E+00 1.347E+05  4.2192 0.99998
  3.548E+05 3.566E+05 2.054E+00 2.698E-03 5.942E-02 2.667E-02 8.878E-02 2.143E+00 1.529E+05  4.4142 0.99999
  3.981E+05 3.999E+05 2.072E+00 3.106E-03 6.941E-02 2.980E-02 1.023E-01 2.174E+00 1.729E+05  4.6119 0.99999
  4.467E+05 4.485E+05 2.090E+00 3.573E-03 8.094E-02 3.330E-02 1.178E-01 2.208E+00 1.951E+05  4.8122 0.99999
  5.012E+05 5.030E+05 2.107E+00 4.110E-03 9.422E-02 3.723E-02 1.356E-01 2.243E+00 2.196E+05  5.0150 0.99999
  5.623E+05 5.641E+05 2.124E+00 4.724E-03 1.095E-01 4.147E-02 1.557E-01 2.280E+00 2.466E+05  5.2202 1.00000
  6.310E+05 6.327E+05 2.142E+00 5.428E-03 1.271E-01 4.623E-02 1.787E-01 2.320E+00 2.765E+05  5.4276 1.00000
  7.079E+05 7.097E+05 2.158E+00 6.234E-03 1.472E-01 5.160E-02 2.050E-01 2.363E+00 3.094E+05  5.6371 1.00000
  7.943E+05 7.961E+05 2.175E+00 7.156E-03 1.703E-01 5.765E-02 2.351E-01 2.410E+00 3.455E+05  5.8486 1.00000
  8.913E+05 8.930E+05 2.192E+00 8.212E-03 1.967E-01 6.447E-02 2.694E-01 2.461E+00 3.853E+05  6.0620 1.00000
  1.000E+06 1.002E+06 2.208E+00 9.418E-03 2.269E-01 7.218E-02 3.085E-01 2.516E+00 4.290E+05  6.2771 1.00000
  1.122E+06 1.124E+06 2.224E+00 1.080E-02 2.614E-01 8.088E-02 3.531E-01 2.577E+00 4.770E+05  6.4939 1.00000
  1.259E+06 1.261E+06 2.240E+00 1.237E-02 3.008E-01 9.073E-02 4.039E-01 2.644E+00 5.294E+05  6.7122 1.00000
  1.413E+06 1.414E+06 2.256E+00 1.417E-02 3.457E-01 1.019E-01 4.617E-01 2.718E+00 5.867E+05  6.9319 1.00000
  1.585E+06 1.587E+06 2.271E+00 1.623E-02 3.967E-01 1.145E-01 5.275E-01 2.799E+00 6.492E+05  7.1530 1.00000
  1.778E+06 1.780E+06 2.287E+00 1.858E-02 4.548E-01 1.288E-01 6.022E-01 2.889E+00 7.172E+05  7.3752 1.00000
  1.995E+06 1.997E+06 2.302E+00 2.126E-02 5.209E-01 1.450E-01 6.871E-01 2.989E+00 7.911E+05  7.5986 1.00000
  2.239E+06 2.240E+06 2.317E+00 2.431E-02 5.959E-01 1.634E-01 7.836E-01 3.101E+00 8.711E+05  7.8230 1.00000
  2.512E+06 2.514E+06 2.332E+00 2.780E-02 6.809E-01 1.843E-01 8.930E-01 3.225E+00 9.575E+05  8.0483 1.00000
  2.818E+06 2.820E+06 2.347E+00 3.177E-02 7.774E-01 2.081E-01 1.017E+00 3.364E+00 1.051E+06  8.2744 1.00000
  3.162E+06 3.164E+06 2.361E+00 3.630E-02 8.866E-01 2.350E-01 1.158E+00 3.519E+00 1.151E+06  8.5013 1.00000
  3.548E+06 3.550E+06 2.376E+00 4.146E-02 1.010E+00 2.657E-01 1.317E+00 3.693E+00 1.258E+06  8.7288 1.00000
  3.981E+06 3.983E+06 2.390E+00 4.734E-02 1.150E+00 3.005E-01 1.498E+00 3.888E+00 1.372E+06  8.9570 1.00000
  4.467E+06 4.469E+06 2.404E+00 5.403E-02 1.308E+00 3.402E-01 1.703E+00 4.106E+00 1.493E+06  9.1856 1.00000
  5.012E+06 5.014E+06 2.418E+00 6.164E-02 1.487E+00 3.853E-01 1.934E+00 4.352E+00 1.622E+06  9.4146 1.00000
  5.623E+06 5.625E+06 2.431E+00 7.031E-02 1.689E+00 4.367E-01 2.196E+00 4.627E+00 1.759E+06  9.6439 1.00000
  6.310E+06 6.311E+06 2.445E+00 8.017E-02 1.917E+00 4.952E-01 2.492E+00 4.937E+00 1.902E+06  9.8736 1.00000
  7.079E+06 7.081E+06 2.458E+00 9.138E-02 2.174E+00 5.618E-01 2.827E+00 5.285E+00 2.053E+06 10.1034 1.00000
  7.943E+06 7.945E+06 2.471E+00 1.041E-01 2.464E+00 6.377E-01 3.206E+00 5.677E+00 2.211E+06 10.3335 1.00000
  8.913E+06 8.914E+06 2.484E+00 1.186E-01 2.791E+00 7.241E-01 3.633E+00 6.118E+00 2.376E+06 10.5636 1.00000
  1.000E+07 1.000E+07 2.497E+00 1.351E-01 3.159E+00 8.226E-01 4.117E+00 6.614E+00 2.547E+06 10.7938 1.00000
  1.122E+07 1.122E+07 2.510E+00 1.538E-01 3.574E+00 9.349E-01 4.662E+00 7.172E+00 2.724E+06 11.0240 1.00000
  1.259E+07 1.259E+07 2.523E+00 1.750E-01 4.041E+00 1.063E+00 5.279E+00 7.801E+00 2.907E+06 11.2542 1.00000
  1.413E+07 1.413E+07 2.536E+00 1.991E-01 4.566E+00 1.209E+00 5.974E+00 8.510E+00 3.096E+06 11.4845 1.00000
  1.585E+07 1.585E+07 2.548E+00 2.264E-01 5.158E+00 1.375E+00 6.760E+00 9.308E+00 3.290E+06 11.7147 1.00000
  1.778E+07 1.778E+07 2.560E+00 2.574E-01 5.824E+00 1.565E+00 7.646E+00 1.021E+01 3.488E+06 11.9449 1.00000
  1.995E+07 1.995E+07 2.573E+00 2.926E-01 6.572E+00 1.781E+00 8.646E+00 1.122E+01 3.691E+06 12.1752 1.00000
  2.239E+07 2.239E+07 2.585E+00 3.324E-01 7.414E+00 2.028E+00 9.775E+00 1.236E+01 3.898E+06 12.4054 1.00000
  2.512E+07 2.512E+07 2.597E+00 3.776E-01 8.361E+00 2.310E+00 1.105E+01 1.365E+01 4.109E+06 12.6356 1.00000
  2.818E+07 2.819E+07 2.610E+00 4.288E-01 9.425E+00 2.632E+00 1.249E+01 1.509E+01 4.323E+06 12.8659 1.00000
  3.162E+07 3.162E+07 2.622E+00 4.868E-01 1.062E+01 2.998E+00 1.411E+01 1.673E+01 4.540E+06 13.0961 1.00000
  3.548E+07 3.548E+07 2.634E+00 5.524E-01 1.196E+01 3.417E+00 1.593E+01 1.857E+01 4.759E+06 13.3264 1.00000
  3.981E+07 3.981E+07 2.646E+00 6.267E-01 1.348E+01 3.895E+00 1.800E+01 2.064E+01 4.980E+06 13.5566 1.00000
  4.467E+07 4.467E+07 2.658E+00 7.108E-01 1.517E+01 4.440E+00 2.032E+01 2.298E+01 5.204E+06 13.7869 1.00000
  5.012E+07 5.012E+07 2.670E+00 8.059E-01 1.708E+01 5.062E+00 2.295E+01 2.562E+01 5.429E+06 14.0171 1.00000
  5.623E+07 5.624E+07 2.682E+00 9.134E-01 1.922E+01 5.773E+00 2.590E+01 2.859E+01 5.655E+06 14.2474 1.00000
  6.310E+07 6.310E+07 2.694E+00 1.035E+00 2.162E+01 6.584E+00 2.924E+01 3.193E+01 5.882E+06 14.4776 1.00000
  7.079E+07 7.080E+07 2.706E+00 1.172E+00 2.432E+01 7.510E+00 3.300E+01 3.571E+01 6.111E+06 14.7079 1.00000
  7.943E+07 7.943E+07 2.718E+00 1.328E+00 2.735E+01 8.567E+00 3.725E+01 3.997E+01 6.340E+06 14.9381 1.00000
  8.913E+07 8.913E+07 2.730E+00 1.503E+00 3.076E+01 9.774E+00 4.203E+01 4.476E+01 6.569E+06 15.1684 1.00000
  1.000E+08 1.000E+08 2.742E+00 1.701E+00 3.458E+01 1.115E+01 4.743E+01 5.017E+01 6.799E+06 15.3986 1.00000
  1.122E+08 1.122E+08 2.754E+00 1.925E+00 3.887E+01 1.273E+01 5.352E+01 5.627E+01 7.029E+06 15.6289 1.00000
  1.259E+08 1.259E+08 2.766E+00 2.177E+00 4.368E+01 1.453E+01 6.039E+01 6.315E+01 7.259E+06 15.8591 1.00000
  1.413E+08 1.413E+08 2.779E+00 2.462E+00 4.909E+01 1.658E+01 6.813E+01 7.091E+01 7.489E+06 16.0894 1.00000
  1.585E+08 1.585E+08 2.791E+00 2.783E+00 5.516E+01 1.893E+01 7.687E+01 7.966E+01 7.719E+06 16.3197 1.00000
  1.778E+08 1.778E+08 2.803E+00 3.145E+00 6.197E+01 2.161E+01 8.672E+01 8.952E+01 7.948E+06 16.5499 1.00000
  1.995E+08 1.995E+08 2.815E+00 3.553E+00 6.962E+01 2.467E+01 9.784E+01 1.007E+02 8.177E+06 16.7802 1.00000
  2.239E+08 2.239E+08 2.828E+00 4.014E+00 7.820E+01 2.816E+01 1.104E+02 1.132E+02 8.406E+06 17.0104 1.00000
  2.512E+08 2.512E+08 2.840E+00 4.532E+00 8.783E+01 3.216E+01 1.245E+02 1.274E+02 8.633E+06 17.2407 1.00000
  2.818E+08 2.818E+08 2.852E+00 5.116E+00 9.864E+01 3.672E+01 1.405E+02 1.433E+02 8.861E+06 17.4709 1.00000
  3.162E+08 3.162E+08 2.865E+00 5.774E+00 1.108E+02 4.194E+01 1.585E+02 1.613E+02 9.087E+06 17.7012 1.00000
  3.548E+08 3.548E+08 2.878E+00 6.515E+00 1.244E+02 4.790E+01 1.788E+02 1.817E+02 9.313E+06 17.9315 1.00000
  3.981E+08 3.981E+08 2.890E+00 7.349E+00 1.397E+02 5.471E+01 2.017E+02 2.046E+02 9.538E+06 18.1617 1.00000
  4.467E+08 4.467E+08 2.903E+00 8.288E+00 1.568E+02 6.249E+01 2.276E+02 2.305E+02 9.762E+06 18.3920 1.00000
  5.012E+08 5.012E+08 2.916E+00 9.345E+00 1.760E+02 7.139E+01 2.568E+02 2.597E+02 9.985E+06 18.6222 1.00000
  5.623E+08 5.623E+08 2.928E+00 1.053E+01 1.976E+02 8.156E+01 2.897E+02 2.926E+02 1.021E+07 18.8525 1.00000
  6.310E+08 6.310E+08 2.941E+00 1.187E+01 2.218E+02 9.318E+01 3.269E+02 3.298E+02 1.043E+07 19.0827 1.00000
  7.079E+08 7.079E+08 2.954E+00 1.338E+01 2.490E+02 1.065E+02 3.689E+02 3.718E+02 1.065E+07 19.3130 1.00000
  7.943E+08 7.943E+08 2.967E+00 1.507E+01 2.795E+02 1.216E+02 4.162E+02 4.192E+02 1.087E+07 19.5433 1.00000
  8.913E+08 8.913E+08 2.980E+00 1.697E+01 3.138E+02 1.390E+02 4.697E+02 4.727E+02 1.109E+07 19.7735 1.00000
  1.000E+09 1.000E+09 2.993E+00 1.911E+01 3.522E+02 1.588E+02 5.301E+02 5.331E+02 1.130E+07 20.0038 1.00000
  1.122E+09 1.122E+09 3.006E+00 2.151E+01 3.953E+02 1.815E+02 5.983E+02 6.013E+02 1.152E+07 20.2340 1.00000
  1.259E+09 1.259E+09 3.020E+00 2.422E+01 4.436E+02 2.075E+02 6.753E+02 6.783E+02 1.173E+07 20.4643 1.00000
  1.413E+09 1.413E+09 3.033E+00 2.725E+01 4.979E+02 2.371E+02 7.622E+02 7.653E+02 1.195E+07 20.6945 1.00000
  1.585E+09 1.585E+09 3.046E+00 3.066E+01 5.588E+02 2.710E+02 8.604E+02 8.635E+02 1.216E+07 20.9248 1.00000
  1.778E+09 1.778E+09 3.060E+00 3.450E+01 6.271E+02 3.098E+02 9.714E+02 9.744E+02 1.237E+07 21.1551 1.00000
  1.995E+09 1.995E+09 3.074E+00 3.880E+01 7.037E+02 3.541E+02 1.097E+03 1.100E+03 1.258E+07 21.3853 1.00000
  2.239E+09 2.239E+09 3.087E+00 4.364E+01 7.897E+02 4.049E+02 1.238E+03 1.241E+03 1.279E+07 21.6156 1.00000
  2.512E+09 2.512E+09 3.101E+00 4.908E+01 8.862E+02 4.628E+02 1.398E+03 1.401E+03 1.300E+07 21.8458 1.00000
  2.818E+09 2.818E+09 3.115E+00 5.518E+01 9.945E+02 5.292E+02 1.579E+03 1.582E+03 1.320E+07 22.0761 1.00000
  3.162E+09 3.162E+09 3.128E+00 6.204E+01 1.116E+03 6.051E+02 1.783E+03 1.786E+03 1.341E+07 22.3064 1.00000
  3.548E+09 3.548E+09 3.142E+00 6.973E+01 1.252E+03 6.919E+02 2.014E+03 2.017E+03 1.361E+07 22.5366 1.00000
  3.981E+09 3.981E+09 3.156E+00 7.838E+01 1.405E+03 7.911E+02 2.275E+03 2.278E+03 1.381E+07 22.7669 1.00000
  4.467E+09 4.467E+09 3.171E+00 8.808E+01 1.577E+03 9.047E+02 2.570E+03 2.573E+03 1.402E+07 22.9971 1.00000
  5.012E+09 5.012E+09 3.185E+00 9.897E+01 1.769E+03 1.035E+03 2.903E+03 2.906E+03 1.422E+07 23.2274 1.00000
  5.623E+09 5.623E+09 3.199E+00 1.112E+02 1.985E+03 1.183E+03 3.280E+03 3.283E+03 1.441E+07 23.4576 1.00000
  6.310E+09 6.310E+09 3.213E+00 1.249E+02 2.228E+03 1.353E+03 3.706E+03 3.709E+03 1.461E+07 23.6879 1.00000
  7.079E+09 7.079E+09 3.228E+00 1.404E+02 2.500E+03 1.548E+03 4.188E+03 4.191E+03 1.481E+07 23.9182 1.00000
  7.943E+09 7.943E+09 3.242E+00 1.577E+02 2.805E+03 1.771E+03 4.733E+03 4.737E+03 1.500E+07 24.1484 1.00000
  8.913E+09 8.913E+09 3.257E+00 1.771E+02 3.147E+03 2.026E+03 5.350E+03 5.353E+03 1.519E+07 24.3787 1.00000
  1.000E+10 1.000E+10 3.271E+00 1.989E+02 3.532E+03 2.317E+03 6.048E+03 6.051E+03 1.538E+07 24.6089 1.00000
  1.122E+10 1.122E+10 3.286E+00 2.233E+02 3.963E+03 2.651E+03 6.837E+03 6.840E+03 1.557E+07 24.8392 1.00000
  1.259E+10 1.259E+10 3.301E+00 2.508E+02 4.446E+03 3.033E+03 7.730E+03 7.733E+03 1.576E+07 25.0695 1.00000
  1.413E+10 1.413E+10 3.316E+00 2.816E+02 4.989E+03 3.470E+03 8.741E+03 8.744E+03 1.595E+07 25.2997 1.00000
  1.585E+10 1.585E+10 3.331E+00 3.162E+02 5.598E+03 3.971E+03 9.885E+03 9.888E+03 1.614E+07 25.5300 1.00000
  1.778E+10 1.778E+10 3.346E+00 3.551E+02 6.281E+03 4.544E+03 1.118E+04 1.118E+04 1.632E+07 25.7602 1.00000
  1.995E+10 1.995E+10 3.361E+00 3.986E+02 7.047E+03 5.200E+03 1.265E+04 1.265E+04 1.650E+07 25.9905 1.00000
  2.239E+10 2.239E+10 3.376E+00 4.475E+02 7.907E+03 5.951E+03 1.431E+04 1.431E+04 1.668E+07 26.2208 1.00000
  2.512E+10 2.512E+10 3.392E+00 5.024E+02 8.872E+03 6.810E+03 1.618E+04 1.619E+04 1.686E+07 26.4510 1.00000
  2.818E+10 2.818E+10 3.407E+00 5.640E+02 9.954E+03 7.795E+03 1.831E+04 1.832E+04 1.704E+07 26.6813 1.00000
  3.162E+10 3.162E+10 3.423E+00 6.330E+02 1.117E+04 8.922E+03 2.072E+04 2.073E+04 1.722E+07 26.9115 1.00000
  3.548E+10 3.548E+10 3.438E+00 7.106E+02 1.253E+04 1.021E+04 2.345E+04 2.346E+04 1.739E+07 27.1418 1.00000
  3.981E+10 3.981E+10 3.454E+00 7.976E+02 1.406E+04 1.169E+04 2.655E+04 2.655E+04 1.757E+07 27.3720 1.00000
  4.467E+10 4.467E+10 3.470E+00 8.952E+02 1.578E+04 1.338E+04 3.005E+04 3.006E+04 1.774E+07 27.6023 1.00000
  5.012E+10 5.012E+10 3.485E+00 1.005E+03 1.770E+04 1.532E+04 3.403E+04 3.403E+04 1.791E+07 27.8326 1.00000
  5.623E+10 5.623E+10 3.501E+00 1.128E+03 1.986E+04 1.754E+04 3.853E+04 3.853E+04 1.808E+07 28.0628 1.00000
  6.310E+10 6.310E+10 3.517E+00 1.266E+03 2.228E+04 2.008E+04 4.363E+04 4.363E+04 1.825E+07 28.2931 1.00000
  7.079E+10 7.079E+10 3.534E+00 1.420E+03 2.500E+04 2.299E+04 4.942E+04 4.942E+04 1.841E+07 28.5233 1.00000
  7.943E+10 7.943E+10 3.550E+00 1.594E+03 2.805E+04 2.633E+04 5.598E+04 5.598E+04 1.858E+07 28.7536 1.00000
  8.913E+10 8.913E+10 3.566E+00 1.789E+03 3.147E+04 3.015E+04 6.341E+04 6.342E+04 1.874E+07 28.9839 1.00000
  1.000E+11 1.000E+11 3.583E+00 2.008E+03 3.531E+04 3.453E+04 7.185E+04 7.185E+04 1.890E+07 29.2141 1.00000
  1.122E+11 1.122E+11 3.599E+00 2.253E+03 3.962E+04 3.954E+04 8.142E+04 8.142E+04 1.906E+07 29.4444 1.00000
  1.259E+11 1.259E+11 3.616E+00 2.528E+03 4.446E+04 4.529E+04 9.227E+04 9.228E+04 1.922E+07 29.6746 1.00000
  1.413E+11 1.413E+11 3.632E+00 2.837E+03 4.988E+04 5.187E+04 1.046E+05 1.046E+05 1.938E+07 29.9049 1.00000
  1.585E+11 1.585E+11 3.649E+00 3.184E+03 5.596E+04 5.942E+04 1.186E+05 1.186E+05 1.953E+07 30.1351 1.00000
  1.778E+11 1.778E+11 3.666E+00 3.573E+03 6.279E+04 6.806E+04 1.344E+05 1.344E+05 1.969E+07 30.3654 1.00000
  1.995E+11 1.995E+11 3.683E+00 4.009E+03 7.045E+04 7.797E+04 1.524E+05 1.524E+05 1.984E+07 30.5957 1.00000
  2.239E+11 2.239E+11 3.700E+00 4.499E+03 7.905E+04 8.932E+04 1.729E+05 1.729E+05 1.999E+07 30.8259 1.00000
  2.512E+11 2.512E+11 3.717E+00 5.048E+03 8.869E+04 1.023E+05 1.961E+05 1.961E+05 2.014E+07 31.0562 1.00000
  2.818E+11 2.818E+11 3.734E+00 5.665E+03 9.951E+04 1.172E+05 2.224E+05 2.224E+05 2.028E+07 31.2864 1.00000
  3.162E+11 3.162E+11 3.752E+00 6.356E+03 1.116E+05 1.343E+05 2.523E+05 2.523E+05 2.043E+07 31.5167 1.00000
  3.548E+11 3.548E+11 3.769E+00 7.132E+03 1.253E+05 1.539E+05 2.863E+05 2.863E+05 2.057E+07 31.7470 1.00000
  3.981E+11 3.981E+11 3.787E+00 8.003E+03 1.405E+05 1.764E+05 3.249E+05 3.249E+05 2.072E+07 31.9772 1.00000
  4.467E+11 4.467E+11 3.804E+00 8.980E+03 1.577E+05 2.021E+05 3.688E+05 3.688E+05 2.086E+07 32.2075 1.00000
  5.012E+11 5.012E+11 3.822E+00 1.008E+04 1.769E+05 2.316E+05 4.186E+05 4.186E+05 2.100E+07 32.4377 1.00000
  5.623E+11 5.623E+11 3.840E+00 1.131E+04 1.985E+05 2.655E+05 4.753E+05 4.753E+05 2.113E+07 32.6680 1.00000
  6.310E+11 6.310E+11 3.858E+00 1.269E+04 2.227E+05 3.043E+05 5.397E+05 5.397E+05 2.127E+07 32.8982 1.00000
  7.079E+11 7.079E+11 3.876E+00 1.423E+04 2.499E+05 3.487E+05 6.129E+05 6.129E+05 2.140E+07 33.1285 1.00000
  7.943E+11 7.943E+11 3.894E+00 1.597E+04 2.804E+05 3.998E+05 6.961E+05 6.961E+05 2.154E+07 33.3588 1.00000
  8.913E+11 8.913E+11 3.912E+00 1.792E+04 3.146E+05 4.582E+05 7.907E+05 7.907E+05 2.167E+07 33.5890 1.00000
  1.000E+12 1.000E+12 3.931E+00 2.011E+04 3.529E+05 5.253E+05 8.984E+05 8.984E+05 2.180E+07 33.8193 1.00000
  1.122E+12 1.122E+12 3.949E+00 2.256E+04 3.960E+05 6.022E+05 1.021E+06 1.021E+06 2.192E+07 34.0495 1.00000
  1.259E+12 1.259E+12 3.968E+00 2.532E+04 4.443E+05 6.905E+05 1.160E+06 1.160E+06 2.205E+07 34.2798 1.00000
  1.413E+12 1.413E+12 3.986E+00 2.841E+04 4.985E+05 7.916E+05 1.319E+06 1.319E+06 2.217E+07 34.5101 1.00000
  1.585E+12 1.585E+12 4.005E+00 3.187E+04 5.593E+05 9.077E+05 1.499E+06 1.499E+06 2.230E+07 34.7403 1.00000
  1.778E+12 1.778E+12 4.024E+00 3.576E+04 6.275E+05 1.041E+06 1.704E+06 1.704E+06 2.242E+07 34.9706 1.00000
  1.995E+12 1.995E+12 4.043E+00 4.013E+04 7.040E+05 1.194E+06 1.938E+06 1.938E+06 2.254E+07 35.2008 1.00000
  2.239E+12 2.239E+12 4.062E+00 4.502E+04 7.899E+05 1.369E+06 2.204E+06 2.204E+06 2.266E+07 35.4311 1.00000
  2.512E+12 2.512E+12 4.081E+00 5.052E+04 8.862E+05 1.570E+06 2.506E+06 2.506E+06 2.277E+07 35.6613 1.00000
  2.818E+12 2.818E+12 4.100E+00 5.668E+04 9.943E+05 1.800E+06 2.851E+06 2.851E+06 2.289E+07 35.8916 1.00000
  3.162E+12 3.162E+12 4.120E+00 6.360E+04 1.116E+06 2.065E+06 3.244E+06 3.244E+06 2.300E+07 36.1219 1.00000
  3.548E+12 3.548E+12 4.139E+00 7.136E+04 1.252E+06 2.368E+06 3.691E+06 3.691E+06 2.311E+07 36.3521 1.00000
  3.981E+12 3.981E+12 4.159E+00 8.007E+04 1.404E+06 2.717E+06 4.201E+06 4.201E+06 2.322E+07 36.5824 1.00000
  4.467E+12 4.467E+12 4.179E+00 8.984E+04 1.576E+06 3.116E+06 4.782E+06 4.782E+06 2.333E+07 36.8126 1.00000
  5.012E+12 5.012E+12 4.198E+00 1.008E+05 1.768E+06 3.575E+06 5.444E+06 5.444E+06 2.344E+07 37.0429 1.00000
  5.623E+12 5.623E+12 4.218E+00 1.131E+05 1.983E+06 4.101E+06 6.198E+06 6.198E+06 2.354E+07 37.2732 1.00000
  6.310E+12 6.310E+12 4.238E+00 1.269E+05 2.225E+06 4.705E+06 7.058E+06 7.058E+06 2.365E+07 37.5034 1.00000
  7.079E+12 7.079E+12 4.258E+00 1.424E+05 2.497E+06 5.399E+06 8.038E+06 8.038E+06 2.375E+07 37.7337 1.00000
  7.943E+12 7.943E+12 4.279E+00 1.598E+05 2.801E+06 6.195E+06 9.156E+06 9.156E+06 2.385E+07 37.9639 1.00000
  8.913E+12 8.913E+12 4.299E+00 1.793E+05 3.143E+06 7.108E+06 1.043E+07 1.043E+07 2.395E+07 38.1942 1.00000
  1.000E+13 1.000E+13 4.320E+00 2.011E+05 3.526E+06 8.157E+06 1.188E+07 1.188E+07 2.405E+07 38.4245 1.00000
  1.122E+13 1.122E+13 4.340E+00 2.257E+05 3.956E+06 9.360E+06 1.354E+07 1.354E+07 2.414E+07 38.6547 1.00000
  1.259E+13 1.259E+13 4.361E+00 2.532E+05 4.439E+06 1.074E+07 1.543E+07 1.543E+07 2.424E+07 38.8850 1.00000
  1.413E+13 1.413E+13 4.382E+00 2.841E+05 4.980E+06 1.233E+07 1.759E+07 1.759E+07 2.433E+07 39.1152 1.00000
  1.585E+13 1.585E+13 4.403E+00 3.188E+05 5.588E+06 1.415E+07 2.006E+07 2.006E+07 2.443E+07 39.3455 1.00000
  1.778E+13 1.778E+13 4.424E+00 3.577E+05 6.269E+06 1.624E+07 2.287E+07 2.287E+07 2.452E+07 39.5757 1.00000
  1.995E+13 1.995E+13 4.445E+00 4.013E+05 7.034E+06 1.864E+07 2.608E+07 2.608E+07 2.460E+07 39.8060 1.00000
  2.239E+13 2.239E+13 4.466E+00 4.503E+05 7.892E+06 2.140E+07 2.974E+07 2.974E+07 2.469E+07 40.0363 1.00000
  2.512E+13 2.512E+13 4.487E+00 5.052E+05 8.854E+06 2.457E+07 3.393E+07 3.393E+07 2.478E+07 40.2665 1.00000
  2.818E+13 2.818E+13 4.509E+00 5.669E+05 9.934E+06 2.820E+07 3.870E+07 3.870E+07 2.486E+07 40.4968 1.00000
  3.162E+13 3.162E+13 4.530E+00 6.360E+05 1.115E+07 3.238E+07 4.416E+07 4.416E+07 2.495E+07 40.7270 1.00000
  3.548E+13 3.548E+13 4.552E+00 7.137E+05 1.250E+07 3.718E+07 5.039E+07 5.039E+07 2.503E+07 40.9573 1.00000
  3.981E+13 3.981E+13 4.574E+00 8.007E+05 1.403E+07 4.268E+07 5.751E+07 5.751E+07 2.511E+07 41.1876 1.00000
  4.467E+13 4.467E+13 4.596E+00 8.984E+05 1.574E+07 4.901E+07 6.565E+07 6.565E+07 2.519E+07 41.4178 1.00000
  5.012E+13 5.012E+13 4.618E+00 1.008E+06 1.766E+07 5.628E+07 7.495E+07 7.495E+07 2.527E+07 41.6481 1.00000
  5.623E+13 5.623E+13 4.640E+00 1.131E+06 1.981E+07 6.463E+07 8.557E+07 8.557E+07 2.534E+07 41.8783 1.00000
  6.310E+13 6.310E+13 4.663E+00 1.269E+06 2.223E+07 7.422E+07 9.772E+07 9.772E+07 2.542E+07 42.1086 1.00000
  7.079E+13 7.079E+13 4.685E+00 1.424E+06 2.494E+07 8.524E+07 1.116E+08 1.116E+08 2.549E+07 42.3388 1.00000
  7.943E+13 7.943E+13 4.708E+00 1.598E+06 2.798E+07 9.789E+07 1.275E+08 1.275E+08 2.556E+07 42.5691 1.00000
  8.913E+13 8.913E+13 4.730E+00 1.793E+06 3.140E+07 1.124E+08 1.456E+08 1.456E+08 2.564E+07 42.7994 1.00000
