 Incident particle is a Tau with M = 1776.82000 MeV
 Index = 0: Samarium
      Absorber with <Z/A> = 0.41234
 Sternheimer coef:  a     k=m_s   x_0    x_1    I[eV]   Cbar  delta0
                 0.2470  2.6403  0.1503  3.3443  574.0  5.8517 0.14

 *** Table generated with PUMAS v1.00 ***

      T         p     Ionization  brems     pair     photonuc  Radloss    dE/dx   CSDA Range  delta   beta
    [MeV]    [MeV/c]  -----------------------[MeV cm^2/g]------------------------  [g/cm^2]
  1.000E+05 1.018E+05 1.660E+00 8.439E-04 1.472E-02 7.631E-03 2.320E-02 1.683E+00 2.970E+04  3.0792 0.99985
  1.122E+05 1.140E+05 1.679E+00 9.782E-04 1.763E-02 8.570E-03 2.718E-02 1.706E+00 3.690E+04  3.2390 0.99988
  1.259E+05 1.277E+05 1.698E+00 1.133E-03 2.105E-02 9.574E-03 3.176E-02 1.730E+00 4.487E+04  3.4026 0.99990
  1.413E+05 1.430E+05 1.717E+00 1.312E-03 2.507E-02 1.070E-02 3.708E-02 1.754E+00 5.369E+04  3.5698 0.99992
  1.585E+05 1.603E+05 1.735E+00 1.518E-03 2.978E-02 1.195E-02 4.324E-02 1.778E+00 6.345E+04  3.7405 0.99994
  1.778E+05 1.796E+05 1.753E+00 1.756E-03 3.528E-02 1.334E-02 5.037E-02 1.804E+00 7.425E+04  3.9146 0.99995
  1.995E+05 2.013E+05 1.772E+00 2.029E-03 4.170E-02 1.492E-02 5.864E-02 1.830E+00 8.619E+04  4.0921 0.99996
  2.239E+05 2.256E+05 1.790E+00 2.344E-03 4.917E-02 1.663E-02 6.815E-02 1.858E+00 9.939E+04  4.2729 0.99997
  2.512E+05 2.530E+05 1.807E+00 2.707E-03 5.786E-02 1.854E-02 7.911E-02 1.887E+00 1.140E+05  4.4569 0.99998
  2.818E+05 2.836E+05 1.825E+00 3.123E-03 6.795E-02 2.068E-02 9.175E-02 1.917E+00 1.301E+05  4.6439 0.99998
  3.162E+05 3.180E+05 1.843E+00 3.601E-03 7.962E-02 2.309E-02 1.063E-01 1.949E+00 1.479E+05  4.8340 0.99998
  3.548E+05 3.566E+05 1.860E+00 4.151E-03 9.312E-02 2.579E-02 1.231E-01 1.983E+00 1.675E+05  5.0270 0.99999
  3.981E+05 3.999E+05 1.877E+00 4.782E-03 1.087E-01 2.878E-02 1.423E-01 2.019E+00 1.892E+05  5.2228 0.99999
  4.467E+05 4.485E+05 1.894E+00 5.506E-03 1.267E-01 3.213E-02 1.643E-01 2.058E+00 2.130E+05  5.4214 0.99999
  5.012E+05 5.030E+05 1.911E+00 6.336E-03 1.473E-01 3.588E-02 1.895E-01 2.100E+00 2.392E+05  5.6226 0.99999
  5.623E+05 5.641E+05 1.927E+00 7.287E-03 1.711E-01 3.992E-02 2.183E-01 2.145E+00 2.680E+05  5.8263 1.00000
  6.310E+05 6.327E+05 1.943E+00 8.377E-03 1.984E-01 4.446E-02 2.512E-01 2.195E+00 2.996E+05  6.0325 1.00000
  7.079E+05 7.097E+05 1.960E+00 9.626E-03 2.296E-01 4.957E-02 2.888E-01 2.248E+00 3.343E+05  6.2411 1.00000
  7.943E+05 7.961E+05 1.976E+00 1.105E-02 2.654E-01 5.532E-02 3.318E-01 2.307E+00 3.722E+05  6.4519 1.00000
  8.913E+05 8.930E+05 1.991E+00 1.269E-02 3.064E-01 6.180E-02 3.809E-01 2.372E+00 4.137E+05  6.6649 1.00000
  1.000E+06 1.002E+06 2.007E+00 1.456E-02 3.531E-01 6.912E-02 4.368E-01 2.444E+00 4.588E+05  6.8799 1.00000
  1.122E+06 1.124E+06 2.022E+00 1.670E-02 4.065E-01 7.739E-02 5.006E-01 2.523E+00 5.080E+05  7.0969 1.00000
  1.259E+06 1.261E+06 2.037E+00 1.915E-02 4.673E-01 8.673E-02 5.732E-01 2.611E+00 5.613E+05  7.3157 1.00000
  1.413E+06 1.414E+06 2.052E+00 2.194E-02 5.366E-01 9.730E-02 6.558E-01 2.708E+00 6.191E+05  7.5363 1.00000
  1.585E+06 1.587E+06 2.067E+00 2.513E-02 6.154E-01 1.093E-01 7.498E-01 2.817E+00 6.815E+05  7.7585 1.00000
  1.778E+06 1.780E+06 2.082E+00 2.877E-02 7.049E-01 1.228E-01 8.565E-01 2.938E+00 7.488E+05  7.9822 1.00000
  1.995E+06 1.997E+06 2.096E+00 3.293E-02 8.066E-01 1.382E-01 9.777E-01 3.074E+00 8.210E+05  8.2072 1.00000
  2.239E+06 2.240E+06 2.110E+00 3.767E-02 9.219E-01 1.556E-01 1.115E+00 3.226E+00 8.983E+05  8.4335 1.00000
  2.512E+06 2.514E+06 2.124E+00 4.308E-02 1.053E+00 1.754E-01 1.271E+00 3.396E+00 9.809E+05  8.6609 1.00000
  2.818E+06 2.820E+06 2.138E+00 4.925E-02 1.201E+00 1.979E-01 1.448E+00 3.586E+00 1.069E+06  8.8892 1.00000
  3.162E+06 3.164E+06 2.152E+00 5.628E-02 1.369E+00 2.234E-01 1.648E+00 3.800E+00 1.162E+06  9.1183 1.00000
  3.548E+06 3.550E+06 2.165E+00 6.429E-02 1.558E+00 2.524E-01 1.875E+00 4.041E+00 1.260E+06  9.3481 1.00000
  3.981E+06 3.983E+06 2.179E+00 7.341E-02 1.773E+00 2.854E-01 2.132E+00 4.311E+00 1.364E+06  9.5782 1.00000
  4.467E+06 4.469E+06 2.192E+00 8.379E-02 2.015E+00 3.230E-01 2.422E+00 4.614E+00 1.473E+06  9.8083 1.00000
  5.012E+06 5.014E+06 2.205E+00 9.561E-02 2.289E+00 3.657E-01 2.750E+00 4.955E+00 1.587E+06 10.0385 1.00000
  5.623E+06 5.625E+06 2.218E+00 1.091E-01 2.598E+00 4.142E-01 3.121E+00 5.339E+00 1.706E+06 10.2687 1.00000
  6.310E+06 6.311E+06 2.231E+00 1.244E-01 2.946E+00 4.696E-01 3.540E+00 5.771E+00 1.830E+06 10.4989 1.00000
  7.079E+06 7.081E+06 2.244E+00 1.418E-01 3.339E+00 5.326E-01 4.014E+00 6.257E+00 1.958E+06 10.7291 1.00000
  7.943E+06 7.945E+06 2.256E+00 1.615E-01 3.782E+00 6.043E-01 4.548E+00 6.804E+00 2.091E+06 10.9593 1.00000
  8.913E+06 8.914E+06 2.269E+00 1.840E-01 4.282E+00 6.860E-01 5.152E+00 7.420E+00 2.227E+06 11.1895 1.00000
  1.000E+07 1.000E+07 2.281E+00 2.095E-01 4.844E+00 7.792E-01 5.832E+00 8.113E+00 2.368E+06 11.4197 1.00000
  1.122E+07 1.122E+07 2.293E+00 2.385E-01 5.477E+00 8.854E-01 6.601E+00 8.894E+00 2.511E+06 11.6499 1.00000
  1.259E+07 1.259E+07 2.305E+00 2.714E-01 6.189E+00 1.006E+00 7.467E+00 9.773E+00 2.658E+06 11.8801 1.00000
  1.413E+07 1.413E+07 2.317E+00 3.087E-01 6.991E+00 1.144E+00 8.444E+00 1.076E+01 2.808E+06 12.1104 1.00000
  1.585E+07 1.585E+07 2.329E+00 3.511E-01 7.894E+00 1.302E+00 9.546E+00 1.188E+01 2.961E+06 12.3406 1.00000
  1.778E+07 1.778E+07 2.341E+00 3.991E-01 8.908E+00 1.481E+00 1.079E+01 1.313E+01 3.116E+06 12.5708 1.00000
  1.995E+07 1.995E+07 2.353E+00 4.535E-01 1.005E+01 1.686E+00 1.219E+01 1.454E+01 3.273E+06 12.8011 1.00000
  2.239E+07 2.239E+07 2.365E+00 5.153E-01 1.133E+01 1.919E+00 1.377E+01 1.613E+01 3.432E+06 13.0313 1.00000
  2.512E+07 2.512E+07 2.376E+00 5.852E-01 1.277E+01 2.185E+00 1.555E+01 1.792E+01 3.593E+06 13.2615 1.00000
  2.818E+07 2.819E+07 2.388E+00 6.644E-01 1.440E+01 2.489E+00 1.755E+01 1.994E+01 3.756E+06 13.4918 1.00000
  3.162E+07 3.162E+07 2.399E+00 7.540E-01 1.622E+01 2.836E+00 1.981E+01 2.221E+01 3.919E+06 13.7220 1.00000
  3.548E+07 3.548E+07 2.411E+00 8.555E-01 1.826E+01 3.231E+00 2.235E+01 2.476E+01 4.084E+06 13.9523 1.00000
  3.981E+07 3.981E+07 2.422E+00 9.704E-01 2.056E+01 3.683E+00 2.522E+01 2.764E+01 4.250E+06 14.1825 1.00000
  4.467E+07 4.467E+07 2.434E+00 1.100E+00 2.315E+01 4.198E+00 2.844E+01 3.088E+01 4.416E+06 14.4128 1.00000
  5.012E+07 5.012E+07 2.445E+00 1.247E+00 2.605E+01 4.787E+00 3.208E+01 3.453E+01 4.584E+06 14.6430 1.00000
  5.623E+07 5.624E+07 2.457E+00 1.413E+00 2.930E+01 5.458E+00 3.617E+01 3.863E+01 4.751E+06 14.8733 1.00000
  6.310E+07 6.310E+07 2.468E+00 1.601E+00 3.296E+01 6.225E+00 4.079E+01 4.326E+01 4.919E+06 15.1035 1.00000
  7.079E+07 7.080E+07 2.480E+00 1.813E+00 3.707E+01 7.100E+00 4.598E+01 4.846E+01 5.088E+06 15.3338 1.00000
  7.943E+07 7.943E+07 2.491E+00 2.053E+00 4.168E+01 8.099E+00 5.183E+01 5.433E+01 5.257E+06 15.5640 1.00000
  8.913E+07 8.913E+07 2.503E+00 2.323E+00 4.686E+01 9.240E+00 5.842E+01 6.093E+01 5.425E+06 15.7943 1.00000
  1.000E+08 1.000E+08 2.514E+00 2.628E+00 5.267E+01 1.054E+01 6.585E+01 6.836E+01 5.594E+06 16.0245 1.00000
  1.122E+08 1.122E+08 2.526E+00 2.973E+00 5.920E+01 1.203E+01 7.420E+01 7.673E+01 5.763E+06 16.2548 1.00000
  1.259E+08 1.259E+08 2.537E+00 3.362E+00 6.653E+01 1.373E+01 8.362E+01 8.616E+01 5.931E+06 16.4850 1.00000
  1.413E+08 1.413E+08 2.549E+00 3.800E+00 7.475E+01 1.567E+01 9.422E+01 9.677E+01 6.100E+06 16.7153 1.00000
  1.585E+08 1.585E+08 2.560E+00 4.294E+00 8.398E+01 1.789E+01 1.062E+02 1.087E+02 6.268E+06 16.9456 1.00000
  1.778E+08 1.778E+08 2.572E+00 4.852E+00 9.434E+01 2.042E+01 1.196E+02 1.222E+02 6.436E+06 17.1758 1.00000
  1.995E+08 1.995E+08 2.584E+00 5.480E+00 1.060E+02 2.331E+01 1.348E+02 1.373E+02 6.604E+06 17.4061 1.00000
  2.239E+08 2.239E+08 2.596E+00 6.187E+00 1.190E+02 2.662E+01 1.518E+02 1.544E+02 6.772E+06 17.6363 1.00000
  2.512E+08 2.512E+08 2.607E+00 6.985E+00 1.337E+02 3.040E+01 1.710E+02 1.737E+02 6.939E+06 17.8666 1.00000
  2.818E+08 2.818E+08 2.619E+00 7.882E+00 1.501E+02 3.471E+01 1.927E+02 1.953E+02 7.105E+06 18.0968 1.00000
  3.162E+08 3.162E+08 2.631E+00 8.893E+00 1.685E+02 3.964E+01 2.171E+02 2.197E+02 7.272E+06 18.3271 1.00000
  3.548E+08 3.548E+08 2.643E+00 1.003E+01 1.892E+02 4.527E+01 2.445E+02 2.472E+02 7.438E+06 18.5574 1.00000
  3.981E+08 3.981E+08 2.655E+00 1.131E+01 2.125E+02 5.171E+01 2.755E+02 2.782E+02 7.603E+06 18.7876 1.00000
  4.467E+08 4.467E+08 2.667E+00 1.275E+01 2.385E+02 5.907E+01 3.104E+02 3.130E+02 7.768E+06 19.0179 1.00000
  5.012E+08 5.012E+08 2.679E+00 1.437E+01 2.678E+02 6.747E+01 3.496E+02 3.523E+02 7.932E+06 19.2481 1.00000
  5.623E+08 5.623E+08 2.692E+00 1.620E+01 3.006E+02 7.708E+01 3.939E+02 3.966E+02 8.096E+06 19.4784 1.00000
  6.310E+08 6.310E+08 2.704E+00 1.825E+01 3.375E+02 8.806E+01 4.438E+02 4.465E+02 8.260E+06 19.7086 1.00000
  7.079E+08 7.079E+08 2.716E+00 2.056E+01 3.788E+02 1.006E+02 5.000E+02 5.027E+02 8.422E+06 19.9389 1.00000
  7.943E+08 7.943E+08 2.728E+00 2.315E+01 4.252E+02 1.150E+02 5.633E+02 5.660E+02 8.585E+06 20.1692 1.00000
  8.913E+08 8.913E+08 2.741E+00 2.606E+01 4.772E+02 1.314E+02 6.346E+02 6.374E+02 8.746E+06 20.3994 1.00000
  1.000E+09 1.000E+09 2.753E+00 2.934E+01 5.356E+02 1.501E+02 7.151E+02 7.178E+02 8.907E+06 20.6297 1.00000
  1.122E+09 1.122E+09 2.766E+00 3.302E+01 6.011E+02 1.716E+02 8.057E+02 8.085E+02 9.068E+06 20.8599 1.00000
  1.259E+09 1.259E+09 2.779E+00 3.716E+01 6.746E+02 1.961E+02 9.079E+02 9.106E+02 9.228E+06 21.0902 1.00000
  1.413E+09 1.413E+09 2.791E+00 4.181E+01 7.571E+02 2.241E+02 1.023E+03 1.026E+03 9.387E+06 21.3204 1.00000
  1.585E+09 1.585E+09 2.804E+00 4.703E+01 8.497E+02 2.561E+02 1.153E+03 1.156E+03 9.545E+06 21.5507 1.00000
  1.778E+09 1.778E+09 2.817E+00 5.290E+01 9.536E+02 2.928E+02 1.299E+03 1.302E+03 9.703E+06 21.7810 1.00000
  1.995E+09 1.995E+09 2.830E+00 5.949E+01 1.070E+03 3.347E+02 1.464E+03 1.467E+03 9.861E+06 22.0112 1.00000
  2.239E+09 2.239E+09 2.843E+00 6.689E+01 1.201E+03 3.826E+02 1.650E+03 1.653E+03 1.002E+07 22.2415 1.00000
  2.512E+09 2.512E+09 2.856E+00 7.521E+01 1.348E+03 4.374E+02 1.860E+03 1.863E+03 1.017E+07 22.4717 1.00000
  2.818E+09 2.818E+09 2.869E+00 8.454E+01 1.512E+03 5.001E+02 2.097E+03 2.100E+03 1.033E+07 22.7020 1.00000
  3.162E+09 3.162E+09 2.882E+00 9.502E+01 1.697E+03 5.718E+02 2.364E+03 2.367E+03 1.048E+07 22.9323 1.00000
  3.548E+09 3.548E+09 2.895E+00 1.068E+02 1.904E+03 6.539E+02 2.665E+03 2.668E+03 1.064E+07 23.1625 1.00000
  3.981E+09 3.981E+09 2.909E+00 1.200E+02 2.137E+03 7.477E+02 3.004E+03 3.007E+03 1.079E+07 23.3928 1.00000
  4.467E+09 4.467E+09 2.922E+00 1.348E+02 2.398E+03 8.550E+02 3.387E+03 3.390E+03 1.094E+07 23.6230 1.00000
  5.012E+09 5.012E+09 2.936E+00 1.515E+02 2.690E+03 9.778E+02 3.820E+03 3.823E+03 1.109E+07 23.8533 1.00000
  5.623E+09 5.623E+09 2.949E+00 1.702E+02 3.019E+03 1.118E+03 4.307E+03 4.310E+03 1.124E+07 24.0835 1.00000
  6.310E+09 6.310E+09 2.963E+00 1.912E+02 3.387E+03 1.279E+03 4.858E+03 4.860E+03 1.140E+07 24.3138 1.00000
  7.079E+09 7.079E+09 2.977E+00 2.147E+02 3.801E+03 1.463E+03 5.479E+03 5.481E+03 1.154E+07 24.5441 1.00000
  7.943E+09 7.943E+09 2.990E+00 2.412E+02 4.265E+03 1.674E+03 6.179E+03 6.182E+03 1.169E+07 24.7743 1.00000
  8.913E+09 8.913E+09 3.004E+00 2.709E+02 4.785E+03 1.914E+03 6.970E+03 6.973E+03 1.184E+07 25.0046 1.00000
  1.000E+10 1.000E+10 3.018E+00 3.042E+02 5.369E+03 2.190E+03 7.863E+03 7.866E+03 1.199E+07 25.2348 1.00000
  1.122E+10 1.122E+10 3.032E+00 3.415E+02 6.025E+03 2.505E+03 8.872E+03 8.875E+03 1.213E+07 25.4651 1.00000
  1.259E+10 1.259E+10 3.046E+00 3.835E+02 6.760E+03 2.867E+03 1.001E+04 1.001E+04 1.228E+07 25.6954 1.00000
  1.413E+10 1.413E+10 3.061E+00 4.306E+02 7.585E+03 3.280E+03 1.130E+04 1.130E+04 1.242E+07 25.9256 1.00000
  1.585E+10 1.585E+10 3.075E+00 4.834E+02 8.510E+03 3.753E+03 1.275E+04 1.275E+04 1.257E+07 26.1559 1.00000
  1.778E+10 1.778E+10 3.089E+00 5.427E+02 9.549E+03 4.294E+03 1.439E+04 1.439E+04 1.271E+07 26.3861 1.00000
  1.995E+10 1.995E+10 3.104E+00 6.093E+02 1.071E+04 4.914E+03 1.624E+04 1.624E+04 1.285E+07 26.6164 1.00000
  2.239E+10 2.239E+10 3.118E+00 6.840E+02 1.202E+04 5.624E+03 1.833E+04 1.833E+04 1.300E+07 26.8467 1.00000
  2.512E+10 2.512E+10 3.133E+00 7.678E+02 1.349E+04 6.436E+03 2.069E+04 2.070E+04 1.314E+07 27.0769 1.00000
  2.818E+10 2.818E+10 3.148E+00 8.618E+02 1.513E+04 7.367E+03 2.336E+04 2.337E+04 1.328E+07 27.3072 1.00000
  3.162E+10 3.162E+10 3.162E+00 9.673E+02 1.698E+04 8.432E+03 2.638E+04 2.638E+04 1.341E+07 27.5374 1.00000
  3.548E+10 3.548E+10 3.177E+00 1.086E+03 1.905E+04 9.651E+03 2.979E+04 2.979E+04 1.355E+07 27.7677 1.00000
  3.981E+10 3.981E+10 3.192E+00 1.219E+03 2.138E+04 1.105E+04 3.364E+04 3.365E+04 1.369E+07 27.9979 1.00000
  4.467E+10 4.467E+10 3.207E+00 1.368E+03 2.399E+04 1.265E+04 3.800E+04 3.800E+04 1.382E+07 28.2282 1.00000
  5.012E+10 5.012E+10 3.222E+00 1.535E+03 2.691E+04 1.448E+04 4.293E+04 4.293E+04 1.396E+07 28.4585 1.00000
  5.623E+10 5.623E+10 3.237E+00 1.723E+03 3.019E+04 1.658E+04 4.849E+04 4.850E+04 1.409E+07 28.6887 1.00000
  6.310E+10 6.310E+10 3.253E+00 1.933E+03 3.388E+04 1.898E+04 5.479E+04 5.479E+04 1.423E+07 28.9190 1.00000
  7.079E+10 7.079E+10 3.268E+00 2.170E+03 3.801E+04 2.173E+04 6.191E+04 6.192E+04 1.436E+07 29.1492 1.00000
  7.943E+10 7.943E+10 3.283E+00 2.435E+03 4.265E+04 2.488E+04 6.997E+04 6.997E+04 1.449E+07 29.3795 1.00000
  8.913E+10 8.913E+10 3.299E+00 2.732E+03 4.785E+04 2.850E+04 7.908E+04 7.908E+04 1.462E+07 29.6098 1.00000
  1.000E+11 1.000E+11 3.315E+00 3.066E+03 5.369E+04 3.263E+04 8.939E+04 8.939E+04 1.475E+07 29.8400 1.00000
  1.122E+11 1.122E+11 3.330E+00 3.441E+03 6.024E+04 3.737E+04 1.011E+05 1.011E+05 1.488E+07 30.0703 1.00000
  1.259E+11 1.259E+11 3.346E+00 3.861E+03 6.759E+04 4.280E+04 1.143E+05 1.143E+05 1.501E+07 30.3005 1.00000
  1.413E+11 1.413E+11 3.362E+00 4.333E+03 7.583E+04 4.902E+04 1.292E+05 1.292E+05 1.513E+07 30.5308 1.00000
  1.585E+11 1.585E+11 3.378E+00 4.862E+03 8.508E+04 5.615E+04 1.461E+05 1.461E+05 1.526E+07 30.7610 1.00000
  1.778E+11 1.778E+11 3.394E+00 5.456E+03 9.546E+04 6.432E+04 1.652E+05 1.652E+05 1.539E+07 30.9913 1.00000
  1.995E+11 1.995E+11 3.410E+00 6.122E+03 1.071E+05 7.368E+04 1.869E+05 1.869E+05 1.551E+07 31.2216 1.00000
  2.239E+11 2.239E+11 3.426E+00 6.870E+03 1.202E+05 8.441E+04 2.115E+05 2.115E+05 1.563E+07 31.4518 1.00000
  2.512E+11 2.512E+11 3.443E+00 7.709E+03 1.348E+05 9.671E+04 2.393E+05 2.393E+05 1.575E+07 31.6821 1.00000
  2.818E+11 2.818E+11 3.459E+00 8.650E+03 1.513E+05 1.108E+05 2.707E+05 2.707E+05 1.587E+07 31.9123 1.00000
  3.162E+11 3.162E+11 3.476E+00 9.706E+03 1.697E+05 1.270E+05 3.064E+05 3.064E+05 1.599E+07 32.1426 1.00000
  3.548E+11 3.548E+11 3.492E+00 1.089E+04 1.904E+05 1.455E+05 3.468E+05 3.468E+05 1.611E+07 32.3729 1.00000
  3.981E+11 3.981E+11 3.509E+00 1.222E+04 2.137E+05 1.667E+05 3.926E+05 3.926E+05 1.623E+07 32.6031 1.00000
  4.467E+11 4.467E+11 3.526E+00 1.371E+04 2.397E+05 1.910E+05 4.445E+05 4.445E+05 1.635E+07 32.8334 1.00000
  5.012E+11 5.012E+11 3.543E+00 1.539E+04 2.690E+05 2.189E+05 5.033E+05 5.033E+05 1.646E+07 33.0636 1.00000
  5.623E+11 5.623E+11 3.560E+00 1.726E+04 3.018E+05 2.509E+05 5.699E+05 5.699E+05 1.658E+07 33.2939 1.00000
  6.310E+11 6.310E+11 3.577E+00 1.937E+04 3.386E+05 2.876E+05 6.455E+05 6.455E+05 1.669E+07 33.5241 1.00000
  7.079E+11 7.079E+11 3.594E+00 2.174E+04 3.799E+05 3.296E+05 7.312E+05 7.312E+05 1.680E+07 33.7544 1.00000
  7.943E+11 7.943E+11 3.611E+00 2.439E+04 4.262E+05 3.778E+05 8.284E+05 8.284E+05 1.691E+07 33.9847 1.00000
  8.913E+11 8.913E+11 3.629E+00 2.736E+04 4.782E+05 4.331E+05 9.387E+05 9.387E+05 1.702E+07 34.2149 1.00000
  1.000E+12 1.000E+12 3.646E+00 3.070E+04 5.366E+05 4.965E+05 1.064E+06 1.064E+06 1.713E+07 34.4452 1.00000
  1.122E+12 1.122E+12 3.664E+00 3.445E+04 6.020E+05 5.692E+05 1.206E+06 1.206E+06 1.724E+07 34.6754 1.00000
  1.259E+12 1.259E+12 3.681E+00 3.866E+04 6.754E+05 6.525E+05 1.367E+06 1.367E+06 1.735E+07 34.9057 1.00000
  1.413E+12 1.413E+12 3.699E+00 4.337E+04 7.578E+05 7.482E+05 1.549E+06 1.549E+06 1.745E+07 35.1360 1.00000
  1.585E+12 1.585E+12 3.717E+00 4.867E+04 8.503E+05 8.578E+05 1.757E+06 1.757E+06 1.756E+07 35.3662 1.00000
  1.778E+12 1.778E+12 3.735E+00 5.460E+04 9.540E+05 9.837E+05 1.992E+06 1.992E+06 1.766E+07 35.5965 1.00000
  1.995E+12 1.995E+12 3.753E+00 6.127E+04 1.070E+06 1.128E+06 2.260E+06 2.260E+06 1.776E+07 35.8267 1.00000
  2.239E+12 2.239E+12 3.771E+00 6.874E+04 1.201E+06 1.294E+06 2.563E+06 2.563E+06 1.786E+07 36.0570 1.00000
  2.512E+12 2.512E+12 3.790E+00 7.713E+04 1.347E+06 1.483E+06 2.908E+06 2.908E+06 1.796E+07 36.2872 1.00000
  2.818E+12 2.818E+12 3.808E+00 8.654E+04 1.512E+06 1.701E+06 3.300E+06 3.300E+06 1.806E+07 36.5175 1.00000
  3.162E+12 3.162E+12 3.826E+00 9.711E+04 1.696E+06 1.951E+06 3.745E+06 3.745E+06 1.816E+07 36.7478 1.00000
  3.548E+12 3.548E+12 3.845E+00 1.090E+05 1.903E+06 2.238E+06 4.250E+06 4.250E+06 1.826E+07 36.9780 1.00000
  3.981E+12 3.981E+12 3.864E+00 1.222E+05 2.135E+06 2.567E+06 4.825E+06 4.825E+06 1.835E+07 37.2083 1.00000
  4.467E+12 4.467E+12 3.882E+00 1.372E+05 2.395E+06 2.945E+06 5.478E+06 5.478E+06 1.845E+07 37.4385 1.00000
  5.012E+12 5.012E+12 3.901E+00 1.539E+05 2.688E+06 3.379E+06 6.220E+06 6.220E+06 1.854E+07 37.6688 1.00000
  5.623E+12 5.623E+12 3.920E+00 1.727E+05 3.015E+06 3.876E+06 7.064E+06 7.064E+06 1.864E+07 37.8991 1.00000
  6.310E+12 6.310E+12 3.939E+00 1.938E+05 3.383E+06 4.447E+06 8.024E+06 8.024E+06 1.873E+07 38.1293 1.00000
  7.079E+12 7.079E+12 3.958E+00 2.174E+05 3.796E+06 5.102E+06 9.116E+06 9.116E+06 1.882E+07 38.3596 1.00000
  7.943E+12 7.943E+12 3.978E+00 2.439E+05 4.259E+06 5.854E+06 1.036E+07 1.036E+07 1.891E+07 38.5898 1.00000
  8.913E+12 8.913E+12 3.997E+00 2.737E+05 4.778E+06 6.718E+06 1.177E+07 1.177E+07 1.899E+07 38.8201 1.00000
  1.000E+13 1.000E+13 4.017E+00 3.071E+05 5.361E+06 7.709E+06 1.338E+07 1.338E+07 1.908E+07 39.0504 1.00000
  1.122E+13 1.122E+13 4.036E+00 3.446E+05 6.015E+06 8.846E+06 1.521E+07 1.521E+07 1.917E+07 39.2806 1.00000
  1.259E+13 1.259E+13 4.056E+00 3.866E+05 6.749E+06 1.015E+07 1.729E+07 1.729E+07 1.925E+07 39.5109 1.00000
  1.413E+13 1.413E+13 4.076E+00 4.338E+05 7.572E+06 1.165E+07 1.966E+07 1.966E+07 1.933E+07 39.7411 1.00000
  1.585E+13 1.585E+13 4.096E+00 4.867E+05 8.495E+06 1.337E+07 2.235E+07 2.235E+07 1.942E+07 39.9714 1.00000
  1.778E+13 1.778E+13 4.116E+00 5.461E+05 9.531E+06 1.535E+07 2.543E+07 2.543E+07 1.950E+07 40.2016 1.00000
  1.995E+13 1.995E+13 4.136E+00 6.127E+05 1.069E+07 1.762E+07 2.893E+07 2.893E+07 1.958E+07 40.4319 1.00000
  2.239E+13 2.239E+13 4.156E+00 6.875E+05 1.200E+07 2.022E+07 3.291E+07 3.291E+07 1.966E+07 40.6622 1.00000
  2.512E+13 2.512E+13 4.176E+00 7.714E+05 1.346E+07 2.322E+07 3.745E+07 3.745E+07 1.974E+07 40.8924 1.00000
  2.818E+13 2.818E+13 4.197E+00 8.655E+05 1.510E+07 2.665E+07 4.262E+07 4.262E+07 1.981E+07 41.1227 1.00000
  3.162E+13 3.162E+13 4.218E+00 9.711E+05 1.694E+07 3.060E+07 4.852E+07 4.852E+07 1.989E+07 41.3529 1.00000
  3.548E+13 3.548E+13 4.238E+00 1.090E+06 1.901E+07 3.513E+07 5.523E+07 5.523E+07 1.996E+07 41.5832 1.00000
  3.981E+13 3.981E+13 4.259E+00 1.223E+06 2.133E+07 4.034E+07 6.289E+07 6.289E+07 2.004E+07 41.8135 1.00000
  4.467E+13 4.467E+13 4.280E+00 1.372E+06 2.393E+07 4.632E+07 7.162E+07 7.162E+07 2.011E+07 42.0437 1.00000
  5.012E+13 5.012E+13 4.301E+00 1.539E+06 2.685E+07 5.319E+07 8.158E+07 8.158E+07 2.018E+07 42.2740 1.00000
  5.623E+13 5.623E+13 4.322E+00 1.727E+06 3.012E+07 6.108E+07 9.293E+07 9.293E+07 2.025E+07 42.5042 1.00000
  6.310E+13 6.310E+13 4.343E+00 1.938E+06 3.380E+07 7.014E+07 1.059E+08 1.059E+08 2.032E+07 42.7345 1.00000
  7.079E+13 7.079E+13 4.365E+00 2.174E+06 3.792E+07 8.055E+07 1.206E+08 1.206E+08 2.039E+07 42.9647 1.00000
  7.943E+13 7.943E+13 4.386E+00 2.439E+06 4.254E+07 9.252E+07 1.375E+08 1.375E+08 2.046E+07 43.1950 1.00000
  8.913E+13 8.913E+13 4.408E+00 2.737E+06 4.773E+07 1.063E+08 1.567E+08 1.567E+08 2.052E+07 43.4253 1.00000
