 Incident particle is a Tau with M = 1776.82000 MeV
 Index = 0: Scandium
      Absorber with <Z/A> = 0.46712
 Sternheimer coef:  a     k=m_s   x_0    x_1    I[eV]   Cbar  delta0
                 0.1575  3.0517  0.1640  3.0593  216.0  4.6949 0.10

 *** Table generated with PUMAS v1.00 ***

      T         p     Ionization  brems     pair     photonuc  Radloss    dE/dx   CSDA Range  delta   beta
    [MeV]    [MeV/c]  -----------------------[MeV cm^2/g]------------------------  [g/cm^2]
  1.000E+05 1.018E+05 1.973E+00 3.562E-04 5.781E-03 7.964E-03 1.410E-02 1.987E+00 2.517E+04  3.7526 0.99985
  1.122E+05 1.140E+05 1.992E+00 4.121E-04 6.939E-03 8.968E-03 1.632E-02 2.008E+00 3.128E+04  3.9401 0.99988
  1.259E+05 1.277E+05 2.012E+00 4.766E-04 8.303E-03 1.005E-02 1.883E-02 2.030E+00 3.805E+04  4.1309 0.99990
  1.413E+05 1.430E+05 2.031E+00 5.508E-04 9.906E-03 1.126E-02 2.171E-02 2.052E+00 4.558E+04  4.3250 0.99992
  1.585E+05 1.603E+05 2.050E+00 6.362E-04 1.179E-02 1.261E-02 2.503E-02 2.075E+00 5.393E+04  4.5221 0.99994
  1.778E+05 1.796E+05 2.069E+00 7.345E-04 1.399E-02 1.411E-02 2.883E-02 2.098E+00 6.320E+04  4.7221 0.99995
  1.995E+05 2.013E+05 2.088E+00 8.476E-04 1.656E-02 1.582E-02 3.323E-02 2.121E+00 7.349E+04  4.9250 0.99996
  2.239E+05 2.256E+05 2.106E+00 9.775E-04 1.957E-02 1.768E-02 3.823E-02 2.144E+00 8.491E+04  5.1304 0.99997
  2.512E+05 2.530E+05 2.125E+00 1.127E-03 2.306E-02 1.977E-02 4.396E-02 2.169E+00 9.757E+04  5.3384 0.99998
  2.818E+05 2.836E+05 2.143E+00 1.298E-03 2.713E-02 2.211E-02 5.054E-02 2.193E+00 1.116E+05  5.5487 0.99998
  3.162E+05 3.180E+05 2.161E+00 1.495E-03 3.184E-02 2.475E-02 5.809E-02 2.219E+00 1.272E+05  5.7613 0.99998
  3.548E+05 3.566E+05 2.179E+00 1.721E-03 3.730E-02 2.771E-02 6.673E-02 2.246E+00 1.445E+05  5.9759 0.99999
  3.981E+05 3.999E+05 2.197E+00 1.980E-03 4.361E-02 3.101E-02 7.660E-02 2.274E+00 1.637E+05  6.1925 0.99999
  4.467E+05 4.485E+05 2.215E+00 2.277E-03 5.090E-02 3.470E-02 8.787E-02 2.303E+00 1.849E+05  6.4108 0.99999
  5.012E+05 5.030E+05 2.232E+00 2.617E-03 5.930E-02 3.884E-02 1.008E-01 2.333E+00 2.084E+05  6.6309 0.99999
  5.623E+05 5.641E+05 2.250E+00 3.006E-03 6.898E-02 4.332E-02 1.153E-01 2.365E+00 2.344E+05  6.8525 1.00000
  6.310E+05 6.327E+05 2.267E+00 3.452E-03 8.012E-02 4.836E-02 1.319E-01 2.399E+00 2.632E+05  7.0754 1.00000
  7.079E+05 7.097E+05 2.284E+00 3.963E-03 9.290E-02 5.404E-02 1.509E-01 2.435E+00 2.951E+05  7.2997 1.00000
  7.943E+05 7.961E+05 2.301E+00 4.547E-03 1.076E-01 6.044E-02 1.726E-01 2.474E+00 3.303E+05  7.5251 1.00000
  8.913E+05 8.930E+05 2.318E+00 5.215E-03 1.244E-01 6.768E-02 1.973E-01 2.515E+00 3.692E+05  7.7515 1.00000
  1.000E+06 1.002E+06 2.335E+00 5.980E-03 1.436E-01 7.584E-02 2.254E-01 2.560E+00 4.120E+05  7.9788 1.00000
  1.122E+06 1.124E+06 2.352E+00 6.853E-03 1.656E-01 8.508E-02 2.576E-01 2.609E+00 4.592E+05  8.2069 1.00000
  1.259E+06 1.261E+06 2.368E+00 7.851E-03 1.907E-01 9.553E-02 2.941E-01 2.662E+00 5.112E+05  8.4356 1.00000
  1.413E+06 1.414E+06 2.384E+00 8.991E-03 2.194E-01 1.074E-01 3.358E-01 2.720E+00 5.683E+05  8.6648 1.00000
  1.585E+06 1.587E+06 2.401E+00 1.029E-02 2.521E-01 1.208E-01 3.831E-01 2.784E+00 6.309E+05  8.8944 1.00000
  1.778E+06 1.780E+06 2.417E+00 1.178E-02 2.893E-01 1.360E-01 4.370E-01 2.854E+00 6.995E+05  9.1243 1.00000
  1.995E+06 1.997E+06 2.433E+00 1.347E-02 3.316E-01 1.532E-01 4.983E-01 2.931E+00 7.746E+05  9.3543 1.00000
  2.239E+06 2.240E+06 2.448E+00 1.541E-02 3.797E-01 1.728E-01 5.679E-01 3.016E+00 8.564E+05  9.5844 1.00000
  2.512E+06 2.514E+06 2.464E+00 1.761E-02 4.343E-01 1.950E-01 6.469E-01 3.111E+00 9.456E+05  9.8144 1.00000
  2.818E+06 2.820E+06 2.480E+00 2.013E-02 4.962E-01 2.203E-01 7.367E-01 3.216E+00 1.043E+06 10.0445 1.00000
  3.162E+06 3.164E+06 2.495E+00 2.300E-02 5.665E-01 2.490E-01 8.385E-01 3.334E+00 1.148E+06 10.2747 1.00000
  3.548E+06 3.550E+06 2.510E+00 2.627E-02 6.461E-01 2.816E-01 9.540E-01 3.464E+00 1.261E+06 10.5048 1.00000
  3.981E+06 3.983E+06 2.526E+00 2.999E-02 7.362E-01 3.187E-01 1.085E+00 3.611E+00 1.384E+06 10.7350 1.00000
  4.467E+06 4.469E+06 2.541E+00 3.423E-02 8.382E-01 3.610E-01 1.233E+00 3.774E+00 1.515E+06 10.9651 1.00000
  5.012E+06 5.014E+06 2.555E+00 3.905E-02 9.535E-01 4.090E-01 1.402E+00 3.957E+00 1.656E+06 11.1953 1.00000
  5.623E+06 5.625E+06 2.570E+00 4.455E-02 1.084E+00 4.638E-01 1.592E+00 4.162E+00 1.807E+06 11.4255 1.00000
  6.310E+06 6.311E+06 2.585E+00 5.080E-02 1.231E+00 5.261E-01 1.808E+00 4.392E+00 1.968E+06 11.6557 1.00000
  7.079E+06 7.081E+06 2.599E+00 5.791E-02 1.397E+00 5.970E-01 2.052E+00 4.651E+00 2.138E+06 11.8859 1.00000
  7.943E+06 7.945E+06 2.613E+00 6.599E-02 1.585E+00 6.779E-01 2.329E+00 4.942E+00 2.318E+06 12.1161 1.00000
  8.913E+06 8.914E+06 2.627E+00 7.518E-02 1.796E+00 7.700E-01 2.641E+00 5.269E+00 2.508E+06 12.3463 1.00000
  1.000E+07 1.000E+07 2.641E+00 8.563E-02 2.034E+00 8.750E-01 2.995E+00 5.636E+00 2.708E+06 12.5765 1.00000
  1.122E+07 1.122E+07 2.655E+00 9.749E-02 2.303E+00 9.947E-01 3.395E+00 6.050E+00 2.917E+06 12.8067 1.00000
  1.259E+07 1.259E+07 2.669E+00 1.110E-01 2.606E+00 1.131E+00 3.848E+00 6.517E+00 3.135E+06 13.0369 1.00000
  1.413E+07 1.413E+07 2.683E+00 1.263E-01 2.946E+00 1.287E+00 4.359E+00 7.042E+00 3.362E+06 13.2672 1.00000
  1.585E+07 1.585E+07 2.696E+00 1.437E-01 3.330E+00 1.464E+00 4.938E+00 7.634E+00 3.597E+06 13.4974 1.00000
  1.778E+07 1.778E+07 2.709E+00 1.634E-01 3.762E+00 1.666E+00 5.592E+00 8.301E+00 3.841E+06 13.7276 1.00000
  1.995E+07 1.995E+07 2.723E+00 1.857E-01 4.248E+00 1.897E+00 6.331E+00 9.053E+00 4.091E+06 13.9579 1.00000
  2.239E+07 2.239E+07 2.736E+00 2.111E-01 4.794E+00 2.160E+00 7.166E+00 9.902E+00 4.348E+06 14.1881 1.00000
  2.512E+07 2.512E+07 2.749E+00 2.399E-01 5.409E+00 2.461E+00 8.109E+00 1.086E+01 4.612E+06 14.4183 1.00000
  2.818E+07 2.819E+07 2.762E+00 2.725E-01 6.100E+00 2.803E+00 9.176E+00 1.194E+01 4.882E+06 14.6486 1.00000
  3.162E+07 3.162E+07 2.775E+00 3.094E-01 6.877E+00 3.194E+00 1.038E+01 1.316E+01 5.156E+06 14.8788 1.00000
  3.548E+07 3.548E+07 2.788E+00 3.512E-01 7.750E+00 3.641E+00 1.174E+01 1.453E+01 5.436E+06 15.1091 1.00000
  3.981E+07 3.981E+07 2.801E+00 3.986E-01 8.731E+00 4.150E+00 1.328E+01 1.608E+01 5.719E+06 15.3393 1.00000
  4.467E+07 4.467E+07 2.814E+00 4.523E-01 9.834E+00 4.731E+00 1.502E+01 1.783E+01 6.007E+06 15.5696 1.00000
  5.012E+07 5.012E+07 2.827E+00 5.130E-01 1.107E+01 5.395E+00 1.698E+01 1.981E+01 6.297E+06 15.7998 1.00000
  5.623E+07 5.624E+07 2.840E+00 5.816E-01 1.246E+01 6.152E+00 1.920E+01 2.204E+01 6.590E+06 16.0301 1.00000
  6.310E+07 6.310E+07 2.853E+00 6.593E-01 1.403E+01 7.017E+00 2.170E+01 2.456E+01 6.886E+06 16.2603 1.00000
  7.079E+07 7.080E+07 2.866E+00 7.472E-01 1.578E+01 8.005E+00 2.453E+01 2.740E+01 7.183E+06 16.4906 1.00000
  7.943E+07 7.943E+07 2.879E+00 8.465E-01 1.775E+01 9.132E+00 2.773E+01 3.061E+01 7.482E+06 16.7208 1.00000
  8.913E+07 8.913E+07 2.892E+00 9.587E-01 1.997E+01 1.042E+01 3.135E+01 3.424E+01 7.781E+06 16.9511 1.00000
  1.000E+08 1.000E+08 2.905E+00 1.085E+00 2.245E+01 1.189E+01 3.543E+01 3.833E+01 8.082E+06 17.1813 1.00000
  1.122E+08 1.122E+08 2.918E+00 1.229E+00 2.524E+01 1.357E+01 4.004E+01 4.296E+01 8.383E+06 17.4116 1.00000
  1.259E+08 1.259E+08 2.932E+00 1.390E+00 2.838E+01 1.549E+01 4.525E+01 4.819E+01 8.685E+06 17.6418 1.00000
  1.413E+08 1.413E+08 2.945E+00 1.573E+00 3.190E+01 1.768E+01 5.114E+01 5.409E+01 8.986E+06 17.8721 1.00000
  1.585E+08 1.585E+08 2.958E+00 1.779E+00 3.584E+01 2.018E+01 5.780E+01 6.076E+01 9.287E+06 18.1024 1.00000
  1.778E+08 1.778E+08 2.971E+00 2.011E+00 4.028E+01 2.304E+01 6.532E+01 6.829E+01 9.588E+06 18.3326 1.00000
  1.995E+08 1.995E+08 2.984E+00 2.273E+00 4.525E+01 2.630E+01 7.382E+01 7.681E+01 9.888E+06 18.5629 1.00000
  2.239E+08 2.239E+08 2.998E+00 2.569E+00 5.084E+01 3.003E+01 8.343E+01 8.643E+01 1.019E+07 18.7931 1.00000
  2.512E+08 2.512E+08 3.011E+00 2.902E+00 5.710E+01 3.429E+01 9.429E+01 9.730E+01 1.049E+07 19.0234 1.00000
  2.818E+08 2.818E+08 3.024E+00 3.278E+00 6.414E+01 3.916E+01 1.066E+02 1.096E+02 1.078E+07 19.2536 1.00000
  3.162E+08 3.162E+08 3.038E+00 3.701E+00 7.203E+01 4.472E+01 1.205E+02 1.235E+02 1.108E+07 19.4839 1.00000
  3.548E+08 3.548E+08 3.052E+00 4.177E+00 8.089E+01 5.107E+01 1.361E+02 1.392E+02 1.137E+07 19.7142 1.00000
  3.981E+08 3.981E+08 3.065E+00 4.714E+00 9.083E+01 5.834E+01 1.539E+02 1.569E+02 1.167E+07 19.9444 1.00000
  4.467E+08 4.467E+08 3.079E+00 5.319E+00 1.020E+02 6.664E+01 1.739E+02 1.770E+02 1.196E+07 20.1747 1.00000
  5.012E+08 5.012E+08 3.093E+00 6.000E+00 1.145E+02 7.612E+01 1.966E+02 1.997E+02 1.225E+07 20.4049 1.00000
  5.623E+08 5.623E+08 3.106E+00 6.766E+00 1.286E+02 8.696E+01 2.223E+02 2.254E+02 1.254E+07 20.6352 1.00000
  6.310E+08 6.310E+08 3.120E+00 7.628E+00 1.443E+02 9.935E+01 2.513E+02 2.544E+02 1.283E+07 20.8654 1.00000
  7.079E+08 7.079E+08 3.134E+00 8.598E+00 1.620E+02 1.135E+02 2.841E+02 2.873E+02 1.311E+07 21.0957 1.00000
  7.943E+08 7.943E+08 3.148E+00 9.690E+00 1.819E+02 1.297E+02 3.213E+02 3.244E+02 1.339E+07 21.3260 1.00000
  8.913E+08 8.913E+08 3.162E+00 1.092E+01 2.042E+02 1.482E+02 3.633E+02 3.665E+02 1.368E+07 21.5562 1.00000
  1.000E+09 1.000E+09 3.176E+00 1.230E+01 2.292E+02 1.694E+02 4.108E+02 4.140E+02 1.396E+07 21.7865 1.00000
  1.122E+09 1.122E+09 3.191E+00 1.385E+01 2.572E+02 1.936E+02 4.646E+02 4.678E+02 1.423E+07 22.0167 1.00000
  1.259E+09 1.259E+09 3.205E+00 1.560E+01 2.887E+02 2.212E+02 5.255E+02 5.287E+02 1.451E+07 22.2470 1.00000
  1.413E+09 1.413E+09 3.219E+00 1.756E+01 3.240E+02 2.528E+02 5.944E+02 5.976E+02 1.478E+07 22.4772 1.00000
  1.585E+09 1.585E+09 3.234E+00 1.976E+01 3.636E+02 2.890E+02 6.724E+02 6.756E+02 1.505E+07 22.7075 1.00000
  1.778E+09 1.778E+09 3.248E+00 2.224E+01 4.081E+02 3.303E+02 7.607E+02 7.640E+02 1.532E+07 22.9378 1.00000
  1.995E+09 1.995E+09 3.263E+00 2.503E+01 4.580E+02 3.776E+02 8.607E+02 8.639E+02 1.559E+07 23.1680 1.00000
  2.239E+09 2.239E+09 3.278E+00 2.816E+01 5.140E+02 4.317E+02 9.739E+02 9.771E+02 1.586E+07 23.3983 1.00000
  2.512E+09 2.512E+09 3.293E+00 3.167E+01 5.768E+02 4.936E+02 1.102E+03 1.105E+03 1.612E+07 23.6285 1.00000
  2.818E+09 2.818E+09 3.307E+00 3.562E+01 6.473E+02 5.643E+02 1.247E+03 1.251E+03 1.638E+07 23.8588 1.00000
  3.162E+09 3.162E+09 3.322E+00 4.006E+01 7.264E+02 6.452E+02 1.412E+03 1.415E+03 1.664E+07 24.0891 1.00000
  3.548E+09 3.548E+09 3.337E+00 4.504E+01 8.151E+02 7.378E+02 1.598E+03 1.601E+03 1.690E+07 24.3193 1.00000
  3.981E+09 3.981E+09 3.353E+00 5.064E+01 9.147E+02 8.436E+02 1.809E+03 1.812E+03 1.715E+07 24.5496 1.00000
  4.467E+09 4.467E+09 3.368E+00 5.692E+01 1.026E+03 9.647E+02 2.048E+03 2.051E+03 1.740E+07 24.7798 1.00000
  5.012E+09 5.012E+09 3.383E+00 6.398E+01 1.152E+03 1.103E+03 2.319E+03 2.322E+03 1.766E+07 25.0101 1.00000
  5.623E+09 5.623E+09 3.398E+00 7.191E+01 1.292E+03 1.262E+03 2.626E+03 2.630E+03 1.790E+07 25.2403 1.00000
  6.310E+09 6.310E+09 3.414E+00 8.080E+01 1.450E+03 1.443E+03 2.974E+03 2.978E+03 1.815E+07 25.4706 1.00000
  7.079E+09 7.079E+09 3.429E+00 9.079E+01 1.627E+03 1.651E+03 3.369E+03 3.372E+03 1.839E+07 25.7009 1.00000
  7.943E+09 7.943E+09 3.445E+00 1.020E+02 1.826E+03 1.888E+03 3.816E+03 3.820E+03 1.863E+07 25.9311 1.00000
  8.913E+09 8.913E+09 3.461E+00 1.146E+02 2.049E+03 2.160E+03 4.323E+03 4.327E+03 1.887E+07 26.1614 1.00000
  1.000E+10 1.000E+10 3.477E+00 1.287E+02 2.299E+03 2.471E+03 4.899E+03 4.902E+03 1.911E+07 26.3916 1.00000
  1.122E+10 1.122E+10 3.492E+00 1.446E+02 2.579E+03 2.827E+03 5.551E+03 5.555E+03 1.934E+07 26.6219 1.00000
  1.259E+10 1.259E+10 3.508E+00 1.624E+02 2.894E+03 3.234E+03 6.291E+03 6.295E+03 1.958E+07 26.8522 1.00000
  1.413E+10 1.413E+10 3.525E+00 1.824E+02 3.248E+03 3.701E+03 7.131E+03 7.134E+03 1.980E+07 27.0824 1.00000
  1.585E+10 1.585E+10 3.541E+00 2.048E+02 3.644E+03 4.234E+03 8.083E+03 8.087E+03 2.003E+07 27.3127 1.00000
  1.778E+10 1.778E+10 3.557E+00 2.300E+02 4.089E+03 4.845E+03 9.164E+03 9.168E+03 2.026E+07 27.5429 1.00000
  1.995E+10 1.995E+10 3.573E+00 2.582E+02 4.588E+03 5.545E+03 1.039E+04 1.039E+04 2.048E+07 27.7732 1.00000
  2.239E+10 2.239E+10 3.590E+00 2.899E+02 5.147E+03 6.346E+03 1.178E+04 1.179E+04 2.070E+07 28.0035 1.00000
  2.512E+10 2.512E+10 3.606E+00 3.255E+02 5.775E+03 7.262E+03 1.336E+04 1.337E+04 2.092E+07 28.2337 1.00000
  2.818E+10 2.818E+10 3.623E+00 3.655E+02 6.480E+03 8.312E+03 1.516E+04 1.516E+04 2.113E+07 28.4640 1.00000
  3.162E+10 3.162E+10 3.640E+00 4.103E+02 7.271E+03 9.514E+03 1.719E+04 1.720E+04 2.135E+07 28.6942 1.00000
  3.548E+10 3.548E+10 3.656E+00 4.606E+02 8.158E+03 1.089E+04 1.951E+04 1.951E+04 2.156E+07 28.9245 1.00000
  3.981E+10 3.981E+10 3.673E+00 5.170E+02 9.153E+03 1.247E+04 2.214E+04 2.214E+04 2.177E+07 29.1547 1.00000
  4.467E+10 4.467E+10 3.690E+00 5.804E+02 1.027E+04 1.427E+04 2.512E+04 2.512E+04 2.197E+07 29.3850 1.00000
  5.012E+10 5.012E+10 3.708E+00 6.514E+02 1.152E+04 1.634E+04 2.851E+04 2.852E+04 2.218E+07 29.6153 1.00000
  5.623E+10 5.623E+10 3.725E+00 7.312E+02 1.293E+04 1.870E+04 3.236E+04 3.237E+04 2.238E+07 29.8455 1.00000
  6.310E+10 6.310E+10 3.742E+00 8.207E+02 1.451E+04 2.141E+04 3.674E+04 3.675E+04 2.258E+07 30.0758 1.00000
  7.079E+10 7.079E+10 3.759E+00 9.211E+02 1.628E+04 2.452E+04 4.172E+04 4.172E+04 2.278E+07 30.3060 1.00000
  7.943E+10 7.943E+10 3.777E+00 1.034E+03 1.826E+04 2.808E+04 4.737E+04 4.738E+04 2.297E+07 30.5363 1.00000
  8.913E+10 8.913E+10 3.795E+00 1.160E+03 2.049E+04 3.215E+04 5.380E+04 5.381E+04 2.316E+07 30.7666 1.00000
  1.000E+11 1.000E+11 3.812E+00 1.302E+03 2.299E+04 3.682E+04 6.111E+04 6.112E+04 2.335E+07 30.9968 1.00000
  1.122E+11 1.122E+11 3.830E+00 1.461E+03 2.579E+04 4.217E+04 6.942E+04 6.943E+04 2.354E+07 31.2271 1.00000
  1.259E+11 1.259E+11 3.848E+00 1.640E+03 2.894E+04 4.829E+04 7.888E+04 7.888E+04 2.373E+07 31.4573 1.00000
  1.413E+11 1.413E+11 3.866E+00 1.840E+03 3.247E+04 5.531E+04 8.963E+04 8.963E+04 2.391E+07 31.6876 1.00000
  1.585E+11 1.585E+11 3.884E+00 2.065E+03 3.643E+04 6.336E+04 1.019E+05 1.019E+05 2.409E+07 31.9178 1.00000
  1.778E+11 1.778E+11 3.902E+00 2.318E+03 4.088E+04 7.258E+04 1.158E+05 1.158E+05 2.427E+07 32.1481 1.00000
  1.995E+11 1.995E+11 3.921E+00 2.601E+03 4.586E+04 8.314E+04 1.316E+05 1.316E+05 2.444E+07 32.3784 1.00000
  2.239E+11 2.239E+11 3.939E+00 2.918E+03 5.146E+04 9.524E+04 1.496E+05 1.496E+05 2.462E+07 32.6086 1.00000
  2.512E+11 2.512E+11 3.957E+00 3.275E+03 5.774E+04 1.091E+05 1.701E+05 1.701E+05 2.479E+07 32.8389 1.00000
  2.818E+11 2.818E+11 3.976E+00 3.675E+03 6.478E+04 1.250E+05 1.935E+05 1.935E+05 2.496E+07 33.0691 1.00000
  3.162E+11 3.162E+11 3.995E+00 4.124E+03 7.268E+04 1.432E+05 2.201E+05 2.201E+05 2.513E+07 33.2994 1.00000
  3.548E+11 3.548E+11 4.014E+00 4.627E+03 8.155E+04 1.641E+05 2.503E+05 2.503E+05 2.529E+07 33.5297 1.00000
  3.981E+11 3.981E+11 4.033E+00 5.192E+03 9.150E+04 1.881E+05 2.848E+05 2.848E+05 2.545E+07 33.7599 1.00000
  4.467E+11 4.467E+11 4.052E+00 5.826E+03 1.027E+05 2.155E+05 3.240E+05 3.240E+05 2.561E+07 33.9902 1.00000
  5.012E+11 5.012E+11 4.071E+00 6.538E+03 1.152E+05 2.470E+05 3.687E+05 3.687E+05 2.577E+07 34.2204 1.00000
  5.623E+11 5.623E+11 4.090E+00 7.336E+03 1.292E+05 2.831E+05 4.197E+05 4.197E+05 2.593E+07 34.4507 1.00000
  6.310E+11 6.310E+11 4.109E+00 8.231E+03 1.450E+05 3.245E+05 4.777E+05 4.777E+05 2.608E+07 34.6809 1.00000
  7.079E+11 7.079E+11 4.129E+00 9.236E+03 1.627E+05 3.719E+05 5.438E+05 5.438E+05 2.623E+07 34.9112 1.00000
  7.943E+11 7.943E+11 4.148E+00 1.036E+04 1.825E+05 4.263E+05 6.192E+05 6.192E+05 2.638E+07 35.1415 1.00000
  8.913E+11 8.913E+11 4.168E+00 1.163E+04 2.048E+05 4.886E+05 7.051E+05 7.051E+05 2.653E+07 35.3717 1.00000
  1.000E+12 1.000E+12 4.188E+00 1.305E+04 2.298E+05 5.602E+05 8.030E+05 8.030E+05 2.667E+07 35.6020 1.00000
  1.122E+12 1.122E+12 4.208E+00 1.464E+04 2.578E+05 6.422E+05 9.146E+05 9.146E+05 2.682E+07 35.8322 1.00000
  1.259E+12 1.259E+12 4.228E+00 1.643E+04 2.892E+05 7.363E+05 1.042E+06 1.042E+06 2.696E+07 36.0625 1.00000
  1.413E+12 1.413E+12 4.248E+00 1.843E+04 3.245E+05 8.442E+05 1.187E+06 1.187E+06 2.709E+07 36.2928 1.00000
  1.585E+12 1.585E+12 4.268E+00 2.068E+04 3.641E+05 9.679E+05 1.353E+06 1.353E+06 2.723E+07 36.5230 1.00000
  1.778E+12 1.778E+12 4.289E+00 2.321E+04 4.085E+05 1.110E+06 1.542E+06 1.542E+06 2.737E+07 36.7533 1.00000
  1.995E+12 1.995E+12 4.309E+00 2.604E+04 4.583E+05 1.273E+06 1.757E+06 1.757E+06 2.750E+07 36.9835 1.00000
  2.239E+12 2.239E+12 4.330E+00 2.922E+04 5.142E+05 1.460E+06 2.003E+06 2.003E+06 2.763E+07 37.2138 1.00000
  2.512E+12 2.512E+12 4.350E+00 3.278E+04 5.770E+05 1.674E+06 2.284E+06 2.284E+06 2.776E+07 37.4440 1.00000
  2.818E+12 2.818E+12 4.371E+00 3.678E+04 6.473E+05 1.920E+06 2.604E+06 2.604E+06 2.788E+07 37.6743 1.00000
  3.162E+12 3.162E+12 4.392E+00 4.127E+04 7.263E+05 2.202E+06 2.969E+06 2.969E+06 2.801E+07 37.9046 1.00000
  3.548E+12 3.548E+12 4.413E+00 4.631E+04 8.149E+05 2.525E+06 3.387E+06 3.387E+06 2.813E+07 38.1348 1.00000
  3.981E+12 3.981E+12 4.434E+00 5.196E+04 9.143E+05 2.897E+06 3.863E+06 3.863E+06 2.825E+07 38.3651 1.00000
  4.467E+12 4.467E+12 4.455E+00 5.830E+04 1.026E+06 3.323E+06 4.407E+06 4.407E+06 2.837E+07 38.5953 1.00000
  5.012E+12 5.012E+12 4.477E+00 6.541E+04 1.151E+06 3.812E+06 5.028E+06 5.028E+06 2.848E+07 38.8256 1.00000
  5.623E+12 5.623E+12 4.498E+00 7.339E+04 1.291E+06 4.373E+06 5.738E+06 5.738E+06 2.860E+07 39.0559 1.00000
  6.310E+12 6.310E+12 4.520E+00 8.235E+04 1.449E+06 5.018E+06 6.549E+06 6.549E+06 2.871E+07 39.2861 1.00000
  7.079E+12 7.079E+12 4.542E+00 9.240E+04 1.625E+06 5.757E+06 7.475E+06 7.475E+06 2.882E+07 39.5164 1.00000
  7.943E+12 7.943E+12 4.563E+00 1.037E+05 1.824E+06 6.606E+06 8.533E+06 8.533E+06 2.893E+07 39.7466 1.00000
  8.913E+12 8.913E+12 4.585E+00 1.163E+05 2.046E+06 7.580E+06 9.742E+06 9.742E+06 2.903E+07 39.9769 1.00000
  1.000E+13 1.000E+13 4.608E+00 1.305E+05 2.296E+06 8.698E+06 1.112E+07 1.112E+07 2.914E+07 40.2072 1.00000
  1.122E+13 1.122E+13 4.630E+00 1.464E+05 2.576E+06 9.981E+06 1.270E+07 1.270E+07 2.924E+07 40.4374 1.00000
  1.259E+13 1.259E+13 4.652E+00 1.643E+05 2.890E+06 1.146E+07 1.451E+07 1.451E+07 2.934E+07 40.6677 1.00000
  1.413E+13 1.413E+13 4.675E+00 1.844E+05 3.242E+06 1.315E+07 1.657E+07 1.657E+07 2.944E+07 40.8979 1.00000
  1.585E+13 1.585E+13 4.697E+00 2.069E+05 3.638E+06 1.509E+07 1.893E+07 1.893E+07 2.954E+07 41.1282 1.00000
  1.778E+13 1.778E+13 4.720E+00 2.321E+05 4.081E+06 1.732E+07 2.163E+07 2.163E+07 2.963E+07 41.3584 1.00000
  1.995E+13 1.995E+13 4.743E+00 2.604E+05 4.579E+06 1.988E+07 2.472E+07 2.472E+07 2.973E+07 41.5887 1.00000
  2.239E+13 2.239E+13 4.766E+00 2.922E+05 5.138E+06 2.282E+07 2.825E+07 2.825E+07 2.982E+07 41.8190 1.00000
  2.512E+13 2.512E+13 4.789E+00 3.278E+05 5.764E+06 2.620E+07 3.229E+07 3.229E+07 2.991E+07 42.0492 1.00000
  2.818E+13 2.818E+13 4.812E+00 3.679E+05 6.467E+06 3.007E+07 3.691E+07 3.691E+07 3.000E+07 42.2795 1.00000
  3.162E+13 3.162E+13 4.835E+00 4.127E+05 7.256E+06 3.453E+07 4.220E+07 4.220E+07 3.009E+07 42.5097 1.00000
  3.548E+13 3.548E+13 4.859E+00 4.631E+05 8.141E+06 3.964E+07 4.825E+07 4.825E+07 3.017E+07 42.7400 1.00000
  3.981E+13 3.981E+13 4.882E+00 5.196E+05 9.133E+06 4.552E+07 5.517E+07 5.517E+07 3.026E+07 42.9703 1.00000
  4.467E+13 4.467E+13 4.906E+00 5.830E+05 1.025E+07 5.226E+07 6.309E+07 6.309E+07 3.034E+07 43.2005 1.00000
  5.012E+13 5.012E+13 4.930E+00 6.541E+05 1.150E+07 6.001E+07 7.216E+07 7.216E+07 3.042E+07 43.4308 1.00000
  5.623E+13 5.623E+13 4.954E+00 7.340E+05 1.290E+07 6.892E+07 8.255E+07 8.255E+07 3.050E+07 43.6610 1.00000
  6.310E+13 6.310E+13 4.978E+00 8.235E+05 1.447E+07 7.914E+07 9.444E+07 9.444E+07 3.058E+07 43.8913 1.00000
  7.079E+13 7.079E+13 5.002E+00 9.240E+05 1.624E+07 9.089E+07 1.081E+08 1.081E+08 3.065E+07 44.1215 1.00000
  7.943E+13 7.943E+13 5.026E+00 1.037E+06 1.822E+07 1.044E+08 1.236E+08 1.236E+08 3.073E+07 44.3518 1.00000
  8.913E+13 8.913E+13 5.051E+00 1.163E+06 2.044E+07 1.199E+08 1.415E+08 1.415E+08 3.080E+07 44.5821 1.00000
