 Incident particle is a Tau with M = 1776.82000 MeV
 Index = 0: Selenium
      Absorber with <Z/A> = 0.43053
 Sternheimer coef:  a     k=m_s   x_0    x_1    I[eV]   Cbar  delta0
                 0.0657  3.4317  0.2258  3.6264  348.0  5.3210 0.10

 *** Table generated with PUMAS v1.00 ***

      T         p     Ionization  brems     pair     photonuc  Radloss    dE/dx   CSDA Range  delta   beta
    [MeV]    [MeV/c]  -----------------------[MeV cm^2/g]------------------------  [g/cm^2]
  1.000E+05 1.018E+05 1.783E+00 5.088E-04 8.530E-03 7.806E-03 1.684E-02 1.799E+00 2.779E+04  3.3359 0.99985
  1.122E+05 1.140E+05 1.801E+00 5.891E-04 1.023E-02 8.778E-03 1.959E-02 1.821E+00 3.453E+04  3.5133 0.99988
  1.259E+05 1.277E+05 1.820E+00 6.818E-04 1.222E-02 9.821E-03 2.273E-02 1.843E+00 4.200E+04  3.6942 0.99990
  1.413E+05 1.430E+05 1.838E+00 7.886E-04 1.457E-02 1.099E-02 2.635E-02 1.864E+00 5.029E+04  3.8784 0.99992
  1.585E+05 1.603E+05 1.856E+00 9.117E-04 1.732E-02 1.229E-02 3.052E-02 1.887E+00 5.948E+04  4.0657 0.99994
  1.778E+05 1.796E+05 1.874E+00 1.053E-03 2.053E-02 1.374E-02 3.533E-02 1.910E+00 6.967E+04  4.2560 0.99995
  1.995E+05 2.013E+05 1.892E+00 1.216E-03 2.429E-02 1.539E-02 4.090E-02 1.933E+00 8.096E+04  4.4493 0.99996
  2.239E+05 2.256E+05 1.910E+00 1.404E-03 2.867E-02 1.718E-02 4.726E-02 1.957E+00 9.347E+04  4.6453 0.99997
  2.512E+05 2.530E+05 1.928E+00 1.619E-03 3.377E-02 1.918E-02 5.457E-02 1.982E+00 1.073E+05  4.8440 0.99998
  2.818E+05 2.836E+05 1.945E+00 1.867E-03 3.968E-02 2.143E-02 6.298E-02 2.008E+00 1.227E+05  5.0452 0.99998
  3.162E+05 3.180E+05 1.963E+00 2.151E-03 4.654E-02 2.396E-02 7.265E-02 2.035E+00 1.397E+05  5.2487 0.99998
  3.548E+05 3.566E+05 1.980E+00 2.478E-03 5.448E-02 2.679E-02 8.375E-02 2.064E+00 1.585E+05  5.4546 0.99999
  3.981E+05 3.999E+05 1.997E+00 2.852E-03 6.365E-02 2.994E-02 9.644E-02 2.093E+00 1.794E+05  5.6626 0.99999
  4.467E+05 4.485E+05 2.014E+00 3.282E-03 7.423E-02 3.347E-02 1.110E-01 2.125E+00 2.024E+05  5.8726 0.99999
  5.012E+05 5.030E+05 2.030E+00 3.774E-03 8.642E-02 3.742E-02 1.276E-01 2.158E+00 2.279E+05  6.0845 0.99999
  5.623E+05 5.641E+05 2.047E+00 4.338E-03 1.004E-01 4.169E-02 1.465E-01 2.194E+00 2.560E+05  6.2982 1.00000
  6.310E+05 6.327E+05 2.064E+00 4.984E-03 1.166E-01 4.649E-02 1.680E-01 2.232E+00 2.870E+05  6.5136 1.00000
  7.079E+05 7.097E+05 2.080E+00 5.724E-03 1.351E-01 5.189E-02 1.927E-01 2.273E+00 3.212E+05  6.7306 1.00000
  7.943E+05 7.961E+05 2.096E+00 6.570E-03 1.563E-01 5.799E-02 2.208E-01 2.317E+00 3.588E+05  6.9491 1.00000
  8.913E+05 8.930E+05 2.112E+00 7.538E-03 1.805E-01 6.486E-02 2.529E-01 2.365E+00 4.002E+05  7.1689 1.00000
  1.000E+06 1.002E+06 2.128E+00 8.646E-03 2.083E-01 7.262E-02 2.896E-01 2.417E+00 4.457E+05  7.3900 1.00000
  1.122E+06 1.124E+06 2.144E+00 9.912E-03 2.400E-01 8.139E-02 3.313E-01 2.475E+00 4.956E+05  7.6123 1.00000
  1.259E+06 1.261E+06 2.159E+00 1.136E-02 2.762E-01 9.130E-02 3.789E-01 2.538E+00 5.502E+05  7.8356 1.00000
  1.413E+06 1.414E+06 2.174E+00 1.301E-02 3.174E-01 1.025E-01 4.330E-01 2.607E+00 6.100E+05  8.0600 1.00000
  1.585E+06 1.587E+06 2.190E+00 1.490E-02 3.644E-01 1.152E-01 4.945E-01 2.684E+00 6.751E+05  8.2852 1.00000
  1.778E+06 1.780E+06 2.205E+00 1.705E-02 4.178E-01 1.297E-01 5.645E-01 2.769E+00 7.460E+05  8.5113 1.00000
  1.995E+06 1.997E+06 2.220E+00 1.951E-02 4.785E-01 1.460E-01 6.441E-01 2.864E+00 8.231E+05  8.7381 1.00000
  2.239E+06 2.240E+06 2.235E+00 2.231E-02 5.475E-01 1.645E-01 7.344E-01 2.969E+00 9.066E+05  8.9655 1.00000
  2.512E+06 2.514E+06 2.249E+00 2.551E-02 6.258E-01 1.856E-01 8.369E-01 3.086E+00 9.969E+05  9.1935 1.00000
  2.818E+06 2.820E+06 2.264E+00 2.916E-02 7.145E-01 2.095E-01 9.532E-01 3.217E+00 1.094E+06  9.4220 1.00000
  3.162E+06 3.164E+06 2.278E+00 3.331E-02 8.150E-01 2.367E-01 1.085E+00 3.363E+00 1.199E+06  9.6509 1.00000
  3.548E+06 3.550E+06 2.292E+00 3.805E-02 9.288E-01 2.676E-01 1.234E+00 3.526E+00 1.311E+06  9.8801 1.00000
  3.981E+06 3.983E+06 2.306E+00 4.344E-02 1.058E+00 3.027E-01 1.404E+00 3.710E+00 1.431E+06 10.1096 1.00000
  4.467E+06 4.469E+06 2.320E+00 4.958E-02 1.203E+00 3.427E-01 1.595E+00 3.915E+00 1.558E+06 10.3394 1.00000
  5.012E+06 5.014E+06 2.334E+00 5.657E-02 1.368E+00 3.882E-01 1.812E+00 4.146E+00 1.693E+06 10.5694 1.00000
  5.623E+06 5.625E+06 2.347E+00 6.453E-02 1.554E+00 4.399E-01 2.058E+00 4.405E+00 1.837E+06 10.7994 1.00000
  6.310E+06 6.311E+06 2.360E+00 7.358E-02 1.763E+00 4.989E-01 2.336E+00 4.696E+00 1.988E+06 11.0296 1.00000
  7.079E+06 7.081E+06 2.374E+00 8.387E-02 2.000E+00 5.660E-01 2.650E+00 5.024E+00 2.146E+06 11.2598 1.00000
  7.943E+06 7.945E+06 2.387E+00 9.557E-02 2.267E+00 6.425E-01 3.005E+00 5.392E+00 2.312E+06 11.4900 1.00000
  8.913E+06 8.914E+06 2.400E+00 1.089E-01 2.568E+00 7.296E-01 3.406E+00 5.806E+00 2.486E+06 11.7202 1.00000
  1.000E+07 1.000E+07 2.413E+00 1.240E-01 2.907E+00 8.289E-01 3.860E+00 6.273E+00 2.666E+06 11.9504 1.00000
  1.122E+07 1.122E+07 2.426E+00 1.411E-01 3.289E+00 9.420E-01 4.372E+00 6.798E+00 2.853E+06 12.1806 1.00000
  1.259E+07 1.259E+07 2.438E+00 1.606E-01 3.719E+00 1.071E+00 4.951E+00 7.389E+00 3.046E+06 12.4108 1.00000
  1.413E+07 1.413E+07 2.451E+00 1.827E-01 4.203E+00 1.218E+00 5.604E+00 8.055E+00 3.246E+06 12.6411 1.00000
  1.585E+07 1.585E+07 2.463E+00 2.078E-01 4.748E+00 1.386E+00 6.342E+00 8.805E+00 3.450E+06 12.8713 1.00000
  1.778E+07 1.778E+07 2.476E+00 2.363E-01 5.362E+00 1.577E+00 7.175E+00 9.651E+00 3.660E+06 13.1015 1.00000
  1.995E+07 1.995E+07 2.488E+00 2.686E-01 6.051E+00 1.795E+00 8.115E+00 1.060E+01 3.875E+06 13.3318 1.00000
  2.239E+07 2.239E+07 2.500E+00 3.052E-01 6.827E+00 2.044E+00 9.176E+00 1.168E+01 4.094E+06 13.5620 1.00000
  2.512E+07 2.512E+07 2.512E+00 3.467E-01 7.699E+00 2.328E+00 1.037E+01 1.289E+01 4.317E+06 13.7922 1.00000
  2.818E+07 2.819E+07 2.524E+00 3.937E-01 8.680E+00 2.652E+00 1.173E+01 1.425E+01 4.544E+06 14.0225 1.00000
  3.162E+07 3.162E+07 2.536E+00 4.469E-01 9.781E+00 3.022E+00 1.325E+01 1.579E+01 4.773E+06 14.2527 1.00000
  3.548E+07 3.548E+07 2.548E+00 5.072E-01 1.102E+01 3.444E+00 1.497E+01 1.752E+01 5.006E+06 14.4830 1.00000
  3.981E+07 3.981E+07 2.560E+00 5.755E-01 1.241E+01 3.925E+00 1.691E+01 1.947E+01 5.240E+06 14.7132 1.00000
  4.467E+07 4.467E+07 2.572E+00 6.527E-01 1.397E+01 4.475E+00 1.910E+01 2.167E+01 5.477E+06 14.9435 1.00000
  5.012E+07 5.012E+07 2.584E+00 7.401E-01 1.573E+01 5.102E+00 2.157E+01 2.416E+01 5.716E+06 15.1737 1.00000
  5.623E+07 5.624E+07 2.596E+00 8.389E-01 1.770E+01 5.818E+00 2.436E+01 2.696E+01 5.956E+06 15.4040 1.00000
  6.310E+07 6.310E+07 2.608E+00 9.506E-01 1.992E+01 6.635E+00 2.750E+01 3.011E+01 6.197E+06 15.6342 1.00000
  7.079E+07 7.080E+07 2.620E+00 1.077E+00 2.241E+01 7.569E+00 3.105E+01 3.367E+01 6.439E+06 15.8645 1.00000
  7.943E+07 7.943E+07 2.632E+00 1.220E+00 2.520E+01 8.635E+00 3.505E+01 3.769E+01 6.682E+06 16.0947 1.00000
  8.913E+07 8.913E+07 2.644E+00 1.381E+00 2.834E+01 9.851E+00 3.957E+01 4.221E+01 6.925E+06 16.3250 1.00000
  1.000E+08 1.000E+08 2.656E+00 1.563E+00 3.186E+01 1.124E+01 4.466E+01 4.732E+01 7.169E+06 16.5552 1.00000
  1.122E+08 1.122E+08 2.668E+00 1.768E+00 3.581E+01 1.283E+01 5.041E+01 5.308E+01 7.413E+06 16.7855 1.00000
  1.259E+08 1.259E+08 2.680E+00 2.000E+00 4.025E+01 1.464E+01 5.689E+01 5.957E+01 7.657E+06 17.0157 1.00000
  1.413E+08 1.413E+08 2.692E+00 2.262E+00 4.523E+01 1.671E+01 6.420E+01 6.690E+01 7.900E+06 17.2460 1.00000
  1.585E+08 1.585E+08 2.705E+00 2.557E+00 5.082E+01 1.908E+01 7.246E+01 7.516E+01 8.144E+06 17.4763 1.00000
  1.778E+08 1.778E+08 2.717E+00 2.890E+00 5.710E+01 2.178E+01 8.177E+01 8.449E+01 8.387E+06 17.7065 1.00000
  1.995E+08 1.995E+08 2.729E+00 3.266E+00 6.415E+01 2.486E+01 9.228E+01 9.500E+01 8.630E+06 17.9368 1.00000
  2.239E+08 2.239E+08 2.741E+00 3.689E+00 7.206E+01 2.839E+01 1.041E+02 1.069E+02 8.872E+06 18.1670 1.00000
  2.512E+08 2.512E+08 2.754E+00 4.166E+00 8.093E+01 3.241E+01 1.175E+02 1.203E+02 9.113E+06 18.3973 1.00000
  2.818E+08 2.818E+08 2.766E+00 4.703E+00 9.089E+01 3.702E+01 1.326E+02 1.354E+02 9.354E+06 18.6275 1.00000
  3.162E+08 3.162E+08 2.778E+00 5.308E+00 1.021E+02 4.227E+01 1.497E+02 1.524E+02 9.594E+06 18.8578 1.00000
  3.548E+08 3.548E+08 2.791E+00 5.989E+00 1.146E+02 4.828E+01 1.689E+02 1.717E+02 9.832E+06 19.0881 1.00000
  3.981E+08 3.981E+08 2.803E+00 6.757E+00 1.287E+02 5.514E+01 1.906E+02 1.934E+02 1.007E+07 19.3183 1.00000
  4.467E+08 4.467E+08 2.816E+00 7.620E+00 1.445E+02 6.299E+01 2.151E+02 2.179E+02 1.031E+07 19.5486 1.00000
  5.012E+08 5.012E+08 2.829E+00 8.592E+00 1.622E+02 7.196E+01 2.428E+02 2.456E+02 1.054E+07 19.7788 1.00000
  5.623E+08 5.623E+08 2.841E+00 9.686E+00 1.821E+02 8.220E+01 2.740E+02 2.769E+02 1.078E+07 20.0091 1.00000
  6.310E+08 6.310E+08 2.854E+00 1.092E+01 2.044E+02 9.392E+01 3.093E+02 3.121E+02 1.101E+07 20.2393 1.00000
  7.079E+08 7.079E+08 2.867E+00 1.230E+01 2.295E+02 1.073E+02 3.491E+02 3.520E+02 1.125E+07 20.4696 1.00000
  7.943E+08 7.943E+08 2.880E+00 1.386E+01 2.576E+02 1.226E+02 3.941E+02 3.970E+02 1.148E+07 20.6999 1.00000
  8.913E+08 8.913E+08 2.893E+00 1.561E+01 2.892E+02 1.401E+02 4.449E+02 4.478E+02 1.171E+07 20.9301 1.00000
  1.000E+09 1.000E+09 2.906E+00 1.758E+01 3.246E+02 1.601E+02 5.022E+02 5.051E+02 1.194E+07 21.1604 1.00000
  1.122E+09 1.122E+09 2.919E+00 1.979E+01 3.643E+02 1.830E+02 5.670E+02 5.699E+02 1.216E+07 21.3906 1.00000
  1.259E+09 1.259E+09 2.932E+00 2.227E+01 4.088E+02 2.091E+02 6.402E+02 6.431E+02 1.239E+07 21.6209 1.00000
  1.413E+09 1.413E+09 2.946E+00 2.507E+01 4.588E+02 2.390E+02 7.229E+02 7.259E+02 1.262E+07 21.8511 1.00000
  1.585E+09 1.585E+09 2.959E+00 2.821E+01 5.150E+02 2.732E+02 8.163E+02 8.193E+02 1.284E+07 22.0814 1.00000
  1.778E+09 1.778E+09 2.972E+00 3.174E+01 5.779E+02 3.123E+02 9.219E+02 9.249E+02 1.306E+07 22.3117 1.00000
  1.995E+09 1.995E+09 2.986E+00 3.570E+01 6.486E+02 3.569E+02 1.041E+03 1.044E+03 1.328E+07 22.5419 1.00000
  2.239E+09 2.239E+09 2.999E+00 4.016E+01 7.278E+02 4.081E+02 1.176E+03 1.179E+03 1.350E+07 22.7722 1.00000
  2.512E+09 2.512E+09 3.013E+00 4.516E+01 8.168E+02 4.665E+02 1.328E+03 1.331E+03 1.372E+07 23.0024 1.00000
  2.818E+09 2.818E+09 3.027E+00 5.078E+01 9.165E+02 5.334E+02 1.501E+03 1.504E+03 1.394E+07 23.2327 1.00000
  3.162E+09 3.162E+09 3.040E+00 5.708E+01 1.029E+03 6.099E+02 1.695E+03 1.699E+03 1.415E+07 23.4630 1.00000
  3.548E+09 3.548E+09 3.054E+00 6.417E+01 1.154E+03 6.973E+02 1.916E+03 1.919E+03 1.437E+07 23.6932 1.00000
  3.981E+09 3.981E+09 3.068E+00 7.213E+01 1.295E+03 7.974E+02 2.165E+03 2.168E+03 1.458E+07 23.9235 1.00000
  4.467E+09 4.467E+09 3.082E+00 8.106E+01 1.453E+03 9.119E+02 2.446E+03 2.449E+03 1.479E+07 24.1537 1.00000
  5.012E+09 5.012E+09 3.096E+00 9.109E+01 1.631E+03 1.043E+03 2.765E+03 2.768E+03 1.500E+07 24.3840 1.00000
  5.623E+09 5.623E+09 3.111E+00 1.023E+02 1.830E+03 1.193E+03 3.125E+03 3.128E+03 1.521E+07 24.6142 1.00000
  6.310E+09 6.310E+09 3.125E+00 1.150E+02 2.053E+03 1.364E+03 3.532E+03 3.536E+03 1.542E+07 24.8445 1.00000
  7.079E+09 7.079E+09 3.139E+00 1.292E+02 2.304E+03 1.560E+03 3.993E+03 3.997E+03 1.562E+07 25.0748 1.00000
  7.943E+09 7.943E+09 3.153E+00 1.451E+02 2.585E+03 1.785E+03 4.515E+03 4.518E+03 1.583E+07 25.3050 1.00000
  8.913E+09 8.913E+09 3.168E+00 1.630E+02 2.901E+03 2.042E+03 5.105E+03 5.109E+03 1.603E+07 25.5353 1.00000
  1.000E+10 1.000E+10 3.183E+00 1.831E+02 3.255E+03 2.336E+03 5.774E+03 5.777E+03 1.623E+07 25.7655 1.00000
  1.122E+10 1.122E+10 3.197E+00 2.056E+02 3.652E+03 2.672E+03 6.530E+03 6.533E+03 1.643E+07 25.9958 1.00000
  1.259E+10 1.259E+10 3.212E+00 2.309E+02 4.098E+03 3.057E+03 7.386E+03 7.389E+03 1.662E+07 26.2261 1.00000
  1.413E+10 1.413E+10 3.227E+00 2.593E+02 4.598E+03 3.498E+03 8.355E+03 8.358E+03 1.682E+07 26.4563 1.00000
  1.585E+10 1.585E+10 3.242E+00 2.911E+02 5.159E+03 4.002E+03 9.453E+03 9.456E+03 1.701E+07 26.6866 1.00000
  1.778E+10 1.778E+10 3.257E+00 3.268E+02 5.789E+03 4.580E+03 1.070E+04 1.070E+04 1.721E+07 26.9168 1.00000
  1.995E+10 1.995E+10 3.272E+00 3.670E+02 6.495E+03 5.241E+03 1.210E+04 1.211E+04 1.740E+07 27.1471 1.00000
  2.239E+10 2.239E+10 3.287E+00 4.120E+02 7.287E+03 5.998E+03 1.370E+04 1.370E+04 1.759E+07 27.3774 1.00000
  2.512E+10 2.512E+10 3.302E+00 4.625E+02 8.177E+03 6.864E+03 1.550E+04 1.551E+04 1.778E+07 27.6076 1.00000
  2.818E+10 2.818E+10 3.317E+00 5.192E+02 9.174E+03 7.856E+03 1.755E+04 1.755E+04 1.796E+07 27.8379 1.00000
  3.162E+10 3.162E+10 3.333E+00 5.828E+02 1.029E+04 8.992E+03 1.987E+04 1.987E+04 1.815E+07 28.0681 1.00000
  3.548E+10 3.548E+10 3.348E+00 6.542E+02 1.155E+04 1.029E+04 2.250E+04 2.250E+04 1.833E+07 28.2984 1.00000
  3.981E+10 3.981E+10 3.364E+00 7.343E+02 1.296E+04 1.178E+04 2.548E+04 2.548E+04 1.851E+07 28.5286 1.00000
  4.467E+10 4.467E+10 3.380E+00 8.242E+02 1.454E+04 1.349E+04 2.885E+04 2.886E+04 1.869E+07 28.7589 1.00000
  5.012E+10 5.012E+10 3.395E+00 9.251E+02 1.631E+04 1.544E+04 3.268E+04 3.268E+04 1.887E+07 28.9892 1.00000
  5.623E+10 5.623E+10 3.411E+00 1.038E+03 1.830E+04 1.768E+04 3.702E+04 3.703E+04 1.904E+07 29.2194 1.00000
  6.310E+10 6.310E+10 3.427E+00 1.165E+03 2.054E+04 2.024E+04 4.194E+04 4.195E+04 1.922E+07 29.4497 1.00000
  7.079E+10 7.079E+10 3.443E+00 1.308E+03 2.304E+04 2.318E+04 4.753E+04 4.753E+04 1.939E+07 29.6799 1.00000
  7.943E+10 7.943E+10 3.459E+00 1.468E+03 2.585E+04 2.654E+04 5.386E+04 5.386E+04 1.956E+07 29.9102 1.00000
  8.913E+10 8.913E+10 3.476E+00 1.647E+03 2.901E+04 3.039E+04 6.105E+04 6.105E+04 1.973E+07 30.1405 1.00000
  1.000E+11 1.000E+11 3.492E+00 1.848E+03 3.255E+04 3.480E+04 6.920E+04 6.920E+04 1.990E+07 30.3707 1.00000
  1.122E+11 1.122E+11 3.508E+00 2.074E+03 3.652E+04 3.986E+04 7.845E+04 7.845E+04 2.006E+07 30.6010 1.00000
  1.259E+11 1.259E+11 3.525E+00 2.328E+03 4.097E+04 4.565E+04 8.895E+04 8.895E+04 2.023E+07 30.8312 1.00000
  1.413E+11 1.413E+11 3.541E+00 2.612E+03 4.597E+04 5.228E+04 1.009E+05 1.009E+05 2.039E+07 31.0615 1.00000
  1.585E+11 1.585E+11 3.558E+00 2.932E+03 5.158E+04 5.989E+04 1.144E+05 1.144E+05 2.055E+07 31.2917 1.00000
  1.778E+11 1.778E+11 3.575E+00 3.290E+03 5.787E+04 6.860E+04 1.298E+05 1.298E+05 2.071E+07 31.5220 1.00000
  1.995E+11 1.995E+11 3.592E+00 3.691E+03 6.493E+04 7.859E+04 1.472E+05 1.472E+05 2.087E+07 31.7523 1.00000
  2.239E+11 2.239E+11 3.609E+00 4.142E+03 7.285E+04 9.003E+04 1.670E+05 1.670E+05 2.102E+07 31.9825 1.00000
  2.512E+11 2.512E+11 3.626E+00 4.648E+03 8.174E+04 1.031E+05 1.895E+05 1.895E+05 2.118E+07 32.2128 1.00000
  2.818E+11 2.818E+11 3.643E+00 5.216E+03 9.171E+04 1.182E+05 2.151E+05 2.151E+05 2.133E+07 32.4430 1.00000
  3.162E+11 3.162E+11 3.660E+00 5.853E+03 1.029E+05 1.354E+05 2.441E+05 2.442E+05 2.148E+07 32.6733 1.00000
  3.548E+11 3.548E+11 3.678E+00 6.567E+03 1.154E+05 1.551E+05 2.772E+05 2.772E+05 2.163E+07 32.9036 1.00000
  3.981E+11 3.981E+11 3.695E+00 7.369E+03 1.295E+05 1.778E+05 3.147E+05 3.147E+05 2.178E+07 33.1338 1.00000
  4.467E+11 4.467E+11 3.713E+00 8.268E+03 1.453E+05 2.037E+05 3.573E+05 3.573E+05 2.192E+07 33.3641 1.00000
  5.012E+11 5.012E+11 3.730E+00 9.278E+03 1.631E+05 2.335E+05 4.058E+05 4.058E+05 2.206E+07 33.5943 1.00000
  5.623E+11 5.623E+11 3.748E+00 1.041E+04 1.830E+05 2.676E+05 4.609E+05 4.609E+05 2.221E+07 33.8246 1.00000
  6.310E+11 6.310E+11 3.766E+00 1.168E+04 2.053E+05 3.067E+05 5.236E+05 5.236E+05 2.235E+07 34.0548 1.00000
  7.079E+11 7.079E+11 3.784E+00 1.311E+04 2.303E+05 3.515E+05 5.949E+05 5.949E+05 2.248E+07 34.2851 1.00000
  7.943E+11 7.943E+11 3.802E+00 1.471E+04 2.584E+05 4.029E+05 6.760E+05 6.760E+05 2.262E+07 34.5154 1.00000
  8.913E+11 8.913E+11 3.820E+00 1.650E+04 2.899E+05 4.619E+05 7.683E+05 7.683E+05 2.276E+07 34.7456 1.00000
  1.000E+12 1.000E+12 3.838E+00 1.852E+04 3.253E+05 5.295E+05 8.733E+05 8.733E+05 2.289E+07 34.9759 1.00000
  1.122E+12 1.122E+12 3.857E+00 2.078E+04 3.650E+05 6.070E+05 9.927E+05 9.928E+05 2.302E+07 35.2061 1.00000
  1.259E+12 1.259E+12 3.875E+00 2.331E+04 4.095E+05 6.959E+05 1.129E+06 1.129E+06 2.315E+07 35.4364 1.00000
  1.413E+12 1.413E+12 3.894E+00 2.616E+04 4.594E+05 7.979E+05 1.283E+06 1.284E+06 2.328E+07 35.6667 1.00000
  1.585E+12 1.585E+12 3.912E+00 2.935E+04 5.155E+05 9.149E+05 1.460E+06 1.460E+06 2.340E+07 35.8969 1.00000
  1.778E+12 1.778E+12 3.931E+00 3.293E+04 5.783E+05 1.049E+06 1.660E+06 1.660E+06 2.353E+07 36.1272 1.00000
  1.995E+12 1.995E+12 3.950E+00 3.695E+04 6.489E+05 1.203E+06 1.889E+06 1.889E+06 2.365E+07 36.3574 1.00000
  2.239E+12 2.239E+12 3.969E+00 4.146E+04 7.280E+05 1.380E+06 2.149E+06 2.149E+06 2.377E+07 36.5877 1.00000
  2.512E+12 2.512E+12 3.988E+00 4.652E+04 8.168E+05 1.582E+06 2.445E+06 2.445E+06 2.389E+07 36.8179 1.00000
  2.818E+12 2.818E+12 4.007E+00 5.219E+04 9.164E+05 1.815E+06 2.783E+06 2.783E+06 2.401E+07 37.0482 1.00000
  3.162E+12 3.162E+12 4.026E+00 5.856E+04 1.028E+06 2.081E+06 3.168E+06 3.168E+06 2.413E+07 37.2785 1.00000
  3.548E+12 3.548E+12 4.046E+00 6.571E+04 1.154E+06 2.387E+06 3.606E+06 3.606E+06 2.424E+07 37.5087 1.00000
  3.981E+12 3.981E+12 4.065E+00 7.373E+04 1.294E+06 2.738E+06 4.106E+06 4.106E+06 2.435E+07 37.7390 1.00000
  4.467E+12 4.467E+12 4.085E+00 8.272E+04 1.452E+06 3.141E+06 4.676E+06 4.676E+06 2.446E+07 37.9692 1.00000
  5.012E+12 5.012E+12 4.104E+00 9.282E+04 1.629E+06 3.603E+06 5.325E+06 5.326E+06 2.457E+07 38.1995 1.00000
  5.623E+12 5.623E+12 4.124E+00 1.041E+05 1.828E+06 4.134E+06 6.066E+06 6.066E+06 2.468E+07 38.4298 1.00000
  6.310E+12 6.310E+12 4.144E+00 1.168E+05 2.051E+06 4.743E+06 6.911E+06 6.911E+06 2.479E+07 38.6600 1.00000
  7.079E+12 7.079E+12 4.164E+00 1.311E+05 2.301E+06 5.442E+06 7.874E+06 7.874E+06 2.489E+07 38.8903 1.00000
  7.943E+12 7.943E+12 4.184E+00 1.471E+05 2.582E+06 6.244E+06 8.973E+06 8.973E+06 2.499E+07 39.1205 1.00000
  8.913E+12 8.913E+12 4.205E+00 1.651E+05 2.897E+06 7.164E+06 1.023E+07 1.023E+07 2.510E+07 39.3508 1.00000
  1.000E+13 1.000E+13 4.225E+00 1.852E+05 3.250E+06 8.221E+06 1.166E+07 1.166E+07 2.520E+07 39.5811 1.00000
  1.122E+13 1.122E+13 4.245E+00 2.078E+05 3.646E+06 9.435E+06 1.329E+07 1.329E+07 2.529E+07 39.8113 1.00000
  1.259E+13 1.259E+13 4.266E+00 2.331E+05 4.091E+06 1.083E+07 1.515E+07 1.515E+07 2.539E+07 40.0416 1.00000
  1.413E+13 1.413E+13 4.287E+00 2.616E+05 4.590E+06 1.243E+07 1.728E+07 1.728E+07 2.549E+07 40.2718 1.00000
  1.585E+13 1.585E+13 4.308E+00 2.935E+05 5.150E+06 1.426E+07 1.971E+07 1.971E+07 2.558E+07 40.5021 1.00000
  1.778E+13 1.778E+13 4.328E+00 3.293E+05 5.778E+06 1.637E+07 2.248E+07 2.248E+07 2.567E+07 40.7323 1.00000
  1.995E+13 1.995E+13 4.349E+00 3.695E+05 6.483E+06 1.879E+07 2.564E+07 2.564E+07 2.576E+07 40.9626 1.00000
  2.239E+13 2.239E+13 4.371E+00 4.146E+05 7.273E+06 2.157E+07 2.926E+07 2.926E+07 2.585E+07 41.1929 1.00000
  2.512E+13 2.512E+13 4.392E+00 4.652E+05 8.160E+06 2.476E+07 3.339E+07 3.339E+07 2.594E+07 41.4231 1.00000
  2.818E+13 2.818E+13 4.413E+00 5.220E+05 9.156E+06 2.843E+07 3.810E+07 3.810E+07 2.602E+07 41.6534 1.00000
  3.162E+13 3.162E+13 4.435E+00 5.857E+05 1.027E+07 3.264E+07 4.349E+07 4.349E+07 2.611E+07 41.8836 1.00000
  3.548E+13 3.548E+13 4.456E+00 6.571E+05 1.152E+07 3.747E+07 4.965E+07 4.965E+07 2.619E+07 42.1139 1.00000
  3.981E+13 3.981E+13 4.478E+00 7.373E+05 1.293E+07 4.302E+07 5.669E+07 5.669E+07 2.627E+07 42.3442 1.00000
  4.467E+13 4.467E+13 4.500E+00 8.273E+05 1.451E+07 4.940E+07 6.473E+07 6.473E+07 2.635E+07 42.5744 1.00000
  5.012E+13 5.012E+13 4.522E+00 9.282E+05 1.628E+07 5.673E+07 7.393E+07 7.393E+07 2.643E+07 42.8047 1.00000
  5.623E+13 5.623E+13 4.544E+00 1.041E+06 1.826E+07 6.514E+07 8.444E+07 8.444E+07 2.651E+07 43.0349 1.00000
  6.310E+13 6.310E+13 4.566E+00 1.169E+06 2.049E+07 7.481E+07 9.646E+07 9.646E+07 2.659E+07 43.2652 1.00000
  7.079E+13 7.079E+13 4.588E+00 1.311E+06 2.299E+07 8.591E+07 1.102E+08 1.102E+08 2.666E+07 43.4954 1.00000
  7.943E+13 7.943E+13 4.611E+00 1.471E+06 2.579E+07 9.867E+07 1.259E+08 1.259E+08 2.674E+07 43.7257 1.00000
  8.913E+13 8.913E+13 4.633E+00 1.651E+06 2.894E+07 1.133E+08 1.439E+08 1.439E+08 2.681E+07 43.9560 1.00000
