 Incident particle is a Tau with M = 1776.82000 MeV
 Index = 0: ShieldingConcrete
      Absorber with <Z/A> = 0.50273
 Sternheimer coef:  a     k=m_s   x_0    x_1    I[eV]   Cbar  delta0
                 0.0751  3.5467  0.1301  3.0466  135.2  3.9464 0.00

 *** Table generated with PUMAS v1.00 ***

      T         p     Ionization  brems     pair     photonuc  Radloss    dE/dx   CSDA Range  delta   beta
    [MeV]    [MeV/c]  -----------------------[MeV cm^2/g]------------------------  [g/cm^2]
  1.000E+05 1.018E+05 2.150E+00 2.105E-04 3.319E-03 8.195E-03 1.172E-02 2.162E+00 2.312E+04  4.3338 0.99985
  1.122E+05 1.140E+05 2.170E+00 2.433E-04 3.994E-03 9.245E-03 1.348E-02 2.184E+00 2.874E+04  4.5365 0.99988
  1.259E+05 1.277E+05 2.190E+00 2.810E-04 4.790E-03 1.037E-02 1.545E-02 2.205E+00 3.498E+04  4.7419 0.99990
  1.413E+05 1.430E+05 2.210E+00 3.245E-04 5.727E-03 1.164E-02 1.770E-02 2.227E+00 4.191E+04  4.9498 0.99992
  1.585E+05 1.603E+05 2.229E+00 3.745E-04 6.827E-03 1.306E-02 2.027E-02 2.249E+00 4.961E+04  5.1599 0.99994
  1.778E+05 1.796E+05 2.249E+00 4.321E-04 8.117E-03 1.465E-02 2.320E-02 2.272E+00 5.816E+04  5.3723 0.99995
  1.995E+05 2.013E+05 2.268E+00 4.982E-04 9.626E-03 1.645E-02 2.658E-02 2.294E+00 6.767E+04  5.5866 0.99996
  2.239E+05 2.256E+05 2.287E+00 5.742E-04 1.139E-02 1.842E-02 3.039E-02 2.317E+00 7.823E+04  5.8028 0.99997
  2.512E+05 2.530E+05 2.306E+00 6.614E-04 1.344E-02 2.063E-02 3.474E-02 2.341E+00 8.995E+04  6.0207 0.99998
  2.818E+05 2.836E+05 2.325E+00 7.616E-04 1.583E-02 2.312E-02 3.971E-02 2.365E+00 1.030E+05  6.2402 0.99998
  3.162E+05 3.180E+05 2.344E+00 8.765E-04 1.861E-02 2.592E-02 4.541E-02 2.390E+00 1.174E+05  6.4612 0.99998
  3.548E+05 3.566E+05 2.363E+00 1.008E-03 2.182E-02 2.907E-02 5.190E-02 2.415E+00 1.335E+05  6.6834 0.99999
  3.981E+05 3.999E+05 2.382E+00 1.159E-03 2.555E-02 3.258E-02 5.929E-02 2.441E+00 1.513E+05  6.9069 0.99999
  4.467E+05 4.485E+05 2.400E+00 1.333E-03 2.986E-02 3.652E-02 6.770E-02 2.468E+00 1.711E+05  7.1314 0.99999
  5.012E+05 5.030E+05 2.419E+00 1.531E-03 3.483E-02 4.094E-02 7.730E-02 2.496E+00 1.931E+05  7.3569 0.99999
  5.623E+05 5.641E+05 2.437E+00 1.758E-03 4.056E-02 4.573E-02 8.805E-02 2.525E+00 2.175E+05  7.5832 1.00000
  6.310E+05 6.327E+05 2.455E+00 2.019E-03 4.716E-02 5.113E-02 1.003E-01 2.556E+00 2.445E+05  7.8102 1.00000
  7.079E+05 7.097E+05 2.474E+00 2.316E-03 5.475E-02 5.722E-02 1.143E-01 2.588E+00 2.744E+05  8.0379 1.00000
  7.943E+05 7.961E+05 2.492E+00 2.657E-03 6.347E-02 6.409E-02 1.302E-01 2.622E+00 3.076E+05  8.2662 1.00000
  8.913E+05 8.930E+05 2.510E+00 3.047E-03 7.347E-02 7.185E-02 1.484E-01 2.658E+00 3.443E+05  8.4949 1.00000
  1.000E+06 1.002E+06 2.528E+00 3.493E-03 8.493E-02 8.063E-02 1.691E-01 2.697E+00 3.849E+05  8.7240 1.00000
  1.122E+06 1.124E+06 2.545E+00 4.002E-03 9.805E-02 9.056E-02 1.926E-01 2.738E+00 4.298E+05  8.9534 1.00000
  1.259E+06 1.261E+06 2.563E+00 4.585E-03 1.130E-01 1.018E-01 2.194E-01 2.783E+00 4.794E+05  9.1830 1.00000
  1.413E+06 1.414E+06 2.581E+00 5.250E-03 1.302E-01 1.146E-01 2.500E-01 2.831E+00 5.341E+05  9.4128 1.00000
  1.585E+06 1.587E+06 2.598E+00 6.011E-03 1.497E-01 1.290E-01 2.847E-01 2.883E+00 5.945E+05  9.6428 1.00000
  1.778E+06 1.780E+06 2.615E+00 6.879E-03 1.720E-01 1.454E-01 3.243E-01 2.940E+00 6.609E+05  9.8728 1.00000
  1.995E+06 1.997E+06 2.633E+00 7.870E-03 1.974E-01 1.640E-01 3.692E-01 3.002E+00 7.340E+05 10.1028 1.00000
  2.239E+06 2.240E+06 2.650E+00 9.001E-03 2.263E-01 1.851E-01 4.204E-01 3.070E+00 8.142E+05 10.3329 1.00000
  2.512E+06 2.514E+06 2.667E+00 1.029E-02 2.591E-01 2.091E-01 4.785E-01 3.145E+00 9.021E+05 10.5629 1.00000
  2.818E+06 2.820E+06 2.683E+00 1.176E-02 2.964E-01 2.363E-01 5.445E-01 3.228E+00 9.983E+05 10.7930 1.00000
  3.162E+06 3.164E+06 2.700E+00 1.344E-02 3.388E-01 2.673E-01 6.195E-01 3.319E+00 1.103E+06 11.0232 1.00000
  3.548E+06 3.550E+06 2.716E+00 1.536E-02 3.868E-01 3.026E-01 7.047E-01 3.421E+00 1.218E+06 11.2533 1.00000
  3.981E+06 3.983E+06 2.733E+00 1.754E-02 4.412E-01 3.427E-01 8.014E-01 3.534E+00 1.342E+06 11.4835 1.00000
  4.467E+06 4.469E+06 2.749E+00 2.002E-02 5.028E-01 3.883E-01 9.111E-01 3.660E+00 1.477E+06 11.7136 1.00000
  5.012E+06 5.014E+06 2.765E+00 2.286E-02 5.726E-01 4.402E-01 1.036E+00 3.800E+00 1.624E+06 11.9438 1.00000
  5.623E+06 5.625E+06 2.781E+00 2.608E-02 6.515E-01 4.993E-01 1.177E+00 3.957E+00 1.781E+06 12.1740 1.00000
  6.310E+06 6.311E+06 2.796E+00 2.975E-02 7.407E-01 5.667E-01 1.337E+00 4.133E+00 1.951E+06 12.4042 1.00000
  7.079E+06 7.081E+06 2.812E+00 3.393E-02 8.415E-01 6.434E-01 1.519E+00 4.330E+00 2.133E+06 12.6344 1.00000
  7.943E+06 7.945E+06 2.827E+00 3.869E-02 9.553E-01 7.308E-01 1.725E+00 4.552E+00 2.328E+06 12.8646 1.00000
  8.913E+06 8.914E+06 2.842E+00 4.410E-02 1.084E+00 8.304E-01 1.958E+00 4.800E+00 2.535E+06 13.0948 1.00000
  1.000E+07 1.000E+07 2.857E+00 5.025E-02 1.229E+00 9.439E-01 2.223E+00 5.080E+00 2.755E+06 13.3250 1.00000
  1.122E+07 1.122E+07 2.872E+00 5.725E-02 1.392E+00 1.073E+00 2.523E+00 5.395E+00 2.989E+06 13.5552 1.00000
  1.259E+07 1.259E+07 2.887E+00 6.520E-02 1.576E+00 1.221E+00 2.862E+00 5.749E+00 3.235E+06 13.7854 1.00000
  1.413E+07 1.413E+07 2.902E+00 7.423E-02 1.784E+00 1.389E+00 3.247E+00 6.149E+00 3.493E+06 14.0157 1.00000
  1.585E+07 1.585E+07 2.916E+00 8.449E-02 2.018E+00 1.581E+00 3.683E+00 6.599E+00 3.764E+06 14.2459 1.00000
  1.778E+07 1.778E+07 2.931E+00 9.615E-02 2.281E+00 1.800E+00 4.177E+00 7.107E+00 4.046E+06 14.4761 1.00000
  1.995E+07 1.995E+07 2.945E+00 1.094E-01 2.577E+00 2.049E+00 4.736E+00 7.681E+00 4.340E+06 14.7064 1.00000
  2.239E+07 2.239E+07 2.959E+00 1.244E-01 2.911E+00 2.334E+00 5.369E+00 8.328E+00 4.645E+06 14.9366 1.00000
  2.512E+07 2.512E+07 2.973E+00 1.414E-01 3.286E+00 2.659E+00 6.086E+00 9.060E+00 4.960E+06 15.1668 1.00000
  2.818E+07 2.819E+07 2.987E+00 1.608E-01 3.708E+00 3.030E+00 6.898E+00 9.886E+00 5.284E+06 15.3971 1.00000
  3.162E+07 3.162E+07 3.002E+00 1.827E-01 4.183E+00 3.453E+00 7.818E+00 1.082E+01 5.617E+06 15.6273 1.00000
  3.548E+07 3.548E+07 3.016E+00 2.075E-01 4.716E+00 3.935E+00 8.859E+00 1.187E+01 5.958E+06 15.8576 1.00000
  3.981E+07 3.981E+07 3.030E+00 2.357E-01 5.316E+00 4.486E+00 1.004E+01 1.307E+01 6.305E+06 16.0878 1.00000
  4.467E+07 4.467E+07 3.044E+00 2.675E-01 5.990E+00 5.115E+00 1.137E+01 1.442E+01 6.660E+06 16.3181 1.00000
  5.012E+07 5.012E+07 3.058E+00 3.037E-01 6.748E+00 5.833E+00 1.288E+01 1.594E+01 7.020E+06 16.5483 1.00000
  5.623E+07 5.624E+07 3.071E+00 3.446E-01 7.599E+00 6.653E+00 1.460E+01 1.767E+01 7.385E+06 16.7786 1.00000
  6.310E+07 6.310E+07 3.085E+00 3.908E-01 8.556E+00 7.588E+00 1.654E+01 1.962E+01 7.754E+06 17.0088 1.00000
  7.079E+07 7.080E+07 3.099E+00 4.432E-01 9.630E+00 8.657E+00 1.873E+01 2.183E+01 8.126E+06 17.2391 1.00000
  7.943E+07 7.943E+07 3.113E+00 5.025E-01 1.084E+01 9.877E+00 2.122E+01 2.433E+01 8.502E+06 17.4693 1.00000
  8.913E+07 8.913E+07 3.127E+00 5.695E-01 1.219E+01 1.127E+01 2.403E+01 2.716E+01 8.879E+06 17.6996 1.00000
  1.000E+08 1.000E+08 3.141E+00 6.453E-01 1.371E+01 1.286E+01 2.722E+01 3.036E+01 9.259E+06 17.9298 1.00000
  1.122E+08 1.122E+08 3.155E+00 7.309E-01 1.542E+01 1.468E+01 3.083E+01 3.399E+01 9.639E+06 18.1601 1.00000
  1.259E+08 1.259E+08 3.170E+00 8.277E-01 1.734E+01 1.675E+01 3.492E+01 3.809E+01 1.002E+07 18.3903 1.00000
  1.413E+08 1.413E+08 3.184E+00 9.370E-01 1.950E+01 1.912E+01 3.955E+01 4.274E+01 1.040E+07 18.6206 1.00000
  1.585E+08 1.585E+08 3.198E+00 1.060E+00 2.191E+01 2.183E+01 4.480E+01 4.800E+01 1.078E+07 18.8509 1.00000
  1.778E+08 1.778E+08 3.212E+00 1.200E+00 2.463E+01 2.492E+01 5.075E+01 5.396E+01 1.116E+07 19.0811 1.00000
  1.995E+08 1.995E+08 3.226E+00 1.357E+00 2.768E+01 2.845E+01 5.748E+01 6.071E+01 1.154E+07 19.3114 1.00000
  2.239E+08 2.239E+08 3.241E+00 1.535E+00 3.110E+01 3.249E+01 6.512E+01 6.836E+01 1.192E+07 19.5416 1.00000
  2.512E+08 2.512E+08 3.255E+00 1.735E+00 3.494E+01 3.709E+01 7.377E+01 7.702E+01 1.230E+07 19.7719 1.00000
  2.818E+08 2.818E+08 3.270E+00 1.961E+00 3.925E+01 4.236E+01 8.357E+01 8.684E+01 1.267E+07 20.0021 1.00000
  3.162E+08 3.162E+08 3.284E+00 2.216E+00 4.408E+01 4.838E+01 9.468E+01 9.796E+01 1.305E+07 20.2324 1.00000
  3.548E+08 3.548E+08 3.299E+00 2.503E+00 4.951E+01 5.526E+01 1.073E+02 1.106E+02 1.342E+07 20.4627 1.00000
  3.981E+08 3.981E+08 3.313E+00 2.826E+00 5.560E+01 6.311E+01 1.215E+02 1.249E+02 1.379E+07 20.6929 1.00000
  4.467E+08 4.467E+08 3.328E+00 3.191E+00 6.244E+01 7.209E+01 1.377E+02 1.411E+02 1.416E+07 20.9232 1.00000
  5.012E+08 5.012E+08 3.343E+00 3.602E+00 7.011E+01 8.236E+01 1.561E+02 1.594E+02 1.452E+07 21.1534 1.00000
  5.623E+08 5.623E+08 3.358E+00 4.065E+00 7.872E+01 9.409E+01 1.769E+02 1.802E+02 1.488E+07 21.3837 1.00000
  6.310E+08 6.310E+08 3.373E+00 4.586E+00 8.839E+01 1.075E+02 2.005E+02 2.038E+02 1.524E+07 21.6139 1.00000
  7.079E+08 7.079E+08 3.388E+00 5.172E+00 9.923E+01 1.228E+02 2.272E+02 2.306E+02 1.560E+07 21.8442 1.00000
  7.943E+08 7.943E+08 3.403E+00 5.832E+00 1.114E+02 1.403E+02 2.576E+02 2.610E+02 1.595E+07 22.0745 1.00000
  8.913E+08 8.913E+08 3.418E+00 6.576E+00 1.251E+02 1.604E+02 2.920E+02 2.954E+02 1.630E+07 22.3047 1.00000
  1.000E+09 1.000E+09 3.433E+00 7.412E+00 1.404E+02 1.833E+02 3.310E+02 3.345E+02 1.664E+07 22.5350 1.00000
  1.122E+09 1.122E+09 3.448E+00 8.353E+00 1.576E+02 2.094E+02 3.753E+02 3.788E+02 1.699E+07 22.7652 1.00000
  1.259E+09 1.259E+09 3.464E+00 9.411E+00 1.769E+02 2.393E+02 4.256E+02 4.291E+02 1.733E+07 22.9955 1.00000
  1.413E+09 1.413E+09 3.479E+00 1.060E+01 1.985E+02 2.736E+02 4.827E+02 4.861E+02 1.767E+07 23.2257 1.00000
  1.585E+09 1.585E+09 3.495E+00 1.194E+01 2.228E+02 3.127E+02 5.474E+02 5.509E+02 1.800E+07 23.4560 1.00000
  1.778E+09 1.778E+09 3.511E+00 1.344E+01 2.500E+02 3.574E+02 6.209E+02 6.244E+02 1.833E+07 23.6863 1.00000
  1.995E+09 1.995E+09 3.526E+00 1.514E+01 2.806E+02 4.086E+02 7.044E+02 7.079E+02 1.866E+07 23.9165 1.00000
  2.239E+09 2.239E+09 3.542E+00 1.704E+01 3.149E+02 4.671E+02 7.991E+02 8.026E+02 1.898E+07 24.1468 1.00000
  2.512E+09 2.512E+09 3.558E+00 1.917E+01 3.534E+02 5.340E+02 9.066E+02 9.102E+02 1.930E+07 24.3770 1.00000
  2.818E+09 2.818E+09 3.574E+00 2.157E+01 3.966E+02 6.105E+02 1.029E+03 1.032E+03 1.962E+07 24.6073 1.00000
  3.162E+09 3.162E+09 3.590E+00 2.427E+01 4.451E+02 6.981E+02 1.167E+03 1.171E+03 1.993E+07 24.8376 1.00000
  3.548E+09 3.548E+09 3.606E+00 2.730E+01 4.995E+02 7.982E+02 1.325E+03 1.329E+03 2.024E+07 25.0678 1.00000
  3.981E+09 3.981E+09 3.623E+00 3.071E+01 5.605E+02 9.128E+02 1.504E+03 1.508E+03 2.055E+07 25.2981 1.00000
  4.467E+09 4.467E+09 3.639E+00 3.454E+01 6.290E+02 1.044E+03 1.707E+03 1.711E+03 2.085E+07 25.5283 1.00000
  5.012E+09 5.012E+09 3.655E+00 3.883E+01 7.058E+02 1.194E+03 1.938E+03 1.942E+03 2.115E+07 25.7586 1.00000
  5.623E+09 5.623E+09 3.672E+00 4.366E+01 7.920E+02 1.365E+03 2.201E+03 2.205E+03 2.145E+07 25.9888 1.00000
  6.310E+09 6.310E+09 3.689E+00 4.908E+01 8.888E+02 1.562E+03 2.499E+03 2.503E+03 2.174E+07 26.2191 1.00000
  7.079E+09 7.079E+09 3.705E+00 5.516E+01 9.973E+02 1.786E+03 2.839E+03 2.842E+03 2.203E+07 26.4494 1.00000
  7.943E+09 7.943E+09 3.722E+00 6.200E+01 1.119E+03 2.043E+03 3.224E+03 3.228E+03 2.231E+07 26.6796 1.00000
  8.913E+09 8.913E+09 3.739E+00 6.967E+01 1.256E+03 2.337E+03 3.662E+03 3.666E+03 2.260E+07 26.9099 1.00000
  1.000E+10 1.000E+10 3.756E+00 7.829E+01 1.409E+03 2.674E+03 4.161E+03 4.165E+03 2.287E+07 27.1401 1.00000
  1.122E+10 1.122E+10 3.773E+00 8.796E+01 1.581E+03 3.059E+03 4.728E+03 4.731E+03 2.315E+07 27.3704 1.00000
  1.259E+10 1.259E+10 3.790E+00 9.882E+01 1.774E+03 3.500E+03 5.372E+03 5.376E+03 2.342E+07 27.6007 1.00000
  1.413E+10 1.413E+10 3.808E+00 1.110E+02 1.990E+03 4.004E+03 6.105E+03 6.109E+03 2.369E+07 27.8309 1.00000
  1.585E+10 1.585E+10 3.825E+00 1.247E+02 2.233E+03 4.582E+03 6.940E+03 6.943E+03 2.396E+07 28.0612 1.00000
  1.778E+10 1.778E+10 3.843E+00 1.400E+02 2.506E+03 5.243E+03 7.889E+03 7.892E+03 2.422E+07 28.2914 1.00000
  1.995E+10 1.995E+10 3.860E+00 1.573E+02 2.812E+03 5.999E+03 8.968E+03 8.972E+03 2.448E+07 28.5217 1.00000
  2.239E+10 2.239E+10 3.878E+00 1.766E+02 3.155E+03 6.866E+03 1.020E+04 1.020E+04 2.473E+07 28.7520 1.00000
  2.512E+10 2.512E+10 3.896E+00 1.984E+02 3.540E+03 7.858E+03 1.160E+04 1.160E+04 2.498E+07 28.9822 1.00000
  2.818E+10 2.818E+10 3.914E+00 2.227E+02 3.972E+03 8.993E+03 1.319E+04 1.319E+04 2.523E+07 29.2125 1.00000
  3.162E+10 3.162E+10 3.932E+00 2.501E+02 4.456E+03 1.029E+04 1.500E+04 1.500E+04 2.548E+07 29.4427 1.00000
  3.548E+10 3.548E+10 3.950E+00 2.808E+02 5.000E+03 1.178E+04 1.706E+04 1.707E+04 2.572E+07 29.6730 1.00000
  3.981E+10 3.981E+10 3.968E+00 3.152E+02 5.610E+03 1.349E+04 1.941E+04 1.942E+04 2.596E+07 29.9032 1.00000
  4.467E+10 4.467E+10 3.986E+00 3.539E+02 6.295E+03 1.544E+04 2.209E+04 2.209E+04 2.619E+07 30.1335 1.00000
  5.012E+10 5.012E+10 4.005E+00 3.973E+02 7.063E+03 1.768E+04 2.514E+04 2.514E+04 2.642E+07 30.3638 1.00000
  5.623E+10 5.623E+10 4.023E+00 4.460E+02 7.925E+03 2.024E+04 2.861E+04 2.861E+04 2.665E+07 30.5940 1.00000
  6.310E+10 6.310E+10 4.042E+00 5.006E+02 8.892E+03 2.317E+04 3.256E+04 3.257E+04 2.688E+07 30.8243 1.00000
  7.079E+10 7.079E+10 4.061E+00 5.620E+02 9.976E+03 2.653E+04 3.707E+04 3.707E+04 2.710E+07 31.0545 1.00000
  7.943E+10 7.943E+10 4.079E+00 6.308E+02 1.119E+04 3.038E+04 4.220E+04 4.221E+04 2.732E+07 31.2848 1.00000
  8.913E+10 8.913E+10 4.098E+00 7.080E+02 1.256E+04 3.479E+04 4.805E+04 4.806E+04 2.753E+07 31.5151 1.00000
  1.000E+11 1.000E+11 4.117E+00 7.946E+02 1.409E+04 3.984E+04 5.472E+04 5.473E+04 2.774E+07 31.7453 1.00000
  1.122E+11 1.122E+11 4.137E+00 8.919E+02 1.581E+04 4.562E+04 6.233E+04 6.233E+04 2.795E+07 31.9756 1.00000
  1.259E+11 1.259E+11 4.156E+00 1.001E+03 1.774E+04 5.225E+04 7.099E+04 7.100E+04 2.816E+07 32.2058 1.00000
  1.413E+11 1.413E+11 4.175E+00 1.123E+03 1.990E+04 5.985E+04 8.088E+04 8.088E+04 2.836E+07 32.4361 1.00000
  1.585E+11 1.585E+11 4.195E+00 1.261E+03 2.233E+04 6.855E+04 9.215E+04 9.215E+04 2.856E+07 32.6663 1.00000
  1.778E+11 1.778E+11 4.214E+00 1.415E+03 2.506E+04 7.853E+04 1.050E+05 1.050E+05 2.876E+07 32.8966 1.00000
  1.995E+11 1.995E+11 4.234E+00 1.588E+03 2.811E+04 8.996E+04 1.197E+05 1.197E+05 2.895E+07 33.1269 1.00000
  2.239E+11 2.239E+11 4.254E+00 1.782E+03 3.154E+04 1.031E+05 1.364E+05 1.364E+05 2.915E+07 33.3571 1.00000
  2.512E+11 2.512E+11 4.274E+00 2.000E+03 3.539E+04 1.181E+05 1.555E+05 1.555E+05 2.933E+07 33.5874 1.00000
  2.818E+11 2.818E+11 4.294E+00 2.244E+03 3.971E+04 1.353E+05 1.772E+05 1.772E+05 2.952E+07 33.8176 1.00000
  3.162E+11 3.162E+11 4.314E+00 2.518E+03 4.455E+04 1.550E+05 2.021E+05 2.021E+05 2.970E+07 34.0479 1.00000
  3.548E+11 3.548E+11 4.334E+00 2.826E+03 4.998E+04 1.776E+05 2.304E+05 2.304E+05 2.988E+07 34.2782 1.00000
  3.981E+11 3.981E+11 4.355E+00 3.171E+03 5.608E+04 2.035E+05 2.628E+05 2.628E+05 3.006E+07 34.5084 1.00000
  4.467E+11 4.467E+11 4.375E+00 3.558E+03 6.292E+04 2.332E+05 2.997E+05 2.997E+05 3.023E+07 34.7387 1.00000
  5.012E+11 5.012E+11 4.396E+00 3.993E+03 7.060E+04 2.673E+05 3.418E+05 3.419E+05 3.040E+07 34.9689 1.00000
  5.623E+11 5.623E+11 4.416E+00 4.480E+03 7.921E+04 3.063E+05 3.900E+05 3.900E+05 3.057E+07 35.1992 1.00000
  6.310E+11 6.310E+11 4.437E+00 5.027E+03 8.887E+04 3.511E+05 4.450E+05 4.450E+05 3.073E+07 35.4294 1.00000
  7.079E+11 7.079E+11 4.458E+00 5.641E+03 9.971E+04 4.024E+05 5.077E+05 5.077E+05 3.090E+07 35.6597 1.00000
  7.943E+11 7.943E+11 4.479E+00 6.330E+03 1.119E+05 4.612E+05 5.794E+05 5.794E+05 3.106E+07 35.8900 1.00000
  8.913E+11 8.913E+11 4.500E+00 7.103E+03 1.255E+05 5.287E+05 6.613E+05 6.613E+05 3.121E+07 36.1202 1.00000
  1.000E+12 1.000E+12 4.522E+00 7.970E+03 1.408E+05 6.061E+05 7.549E+05 7.549E+05 3.137E+07 36.3505 1.00000
  1.122E+12 1.122E+12 4.543E+00 8.942E+03 1.580E+05 6.948E+05 8.618E+05 8.618E+05 3.152E+07 36.5807 1.00000
  1.259E+12 1.259E+12 4.565E+00 1.003E+04 1.773E+05 7.966E+05 9.839E+05 9.840E+05 3.167E+07 36.8110 1.00000
  1.413E+12 1.413E+12 4.586E+00 1.126E+04 1.989E+05 9.134E+05 1.124E+06 1.124E+06 3.181E+07 37.0413 1.00000
  1.585E+12 1.585E+12 4.608E+00 1.263E+04 2.232E+05 1.047E+06 1.283E+06 1.283E+06 3.196E+07 37.2715 1.00000
  1.778E+12 1.778E+12 4.630E+00 1.417E+04 2.504E+05 1.201E+06 1.465E+06 1.465E+06 3.210E+07 37.5018 1.00000
  1.995E+12 1.995E+12 4.652E+00 1.590E+04 2.809E+05 1.377E+06 1.674E+06 1.674E+06 3.224E+07 37.7320 1.00000
  2.239E+12 2.239E+12 4.674E+00 1.785E+04 3.152E+05 1.579E+06 1.912E+06 1.912E+06 3.237E+07 37.9623 1.00000
  2.512E+12 2.512E+12 4.696E+00 2.002E+04 3.536E+05 1.811E+06 2.185E+06 2.185E+06 3.251E+07 38.1925 1.00000
  2.818E+12 2.818E+12 4.719E+00 2.247E+04 3.968E+05 2.077E+06 2.496E+06 2.496E+06 3.264E+07 38.4228 1.00000
  3.162E+12 3.162E+12 4.741E+00 2.521E+04 4.452E+05 2.382E+06 2.853E+06 2.853E+06 3.277E+07 38.6531 1.00000
  3.548E+12 3.548E+12 4.764E+00 2.829E+04 4.995E+05 2.733E+06 3.260E+06 3.260E+06 3.290E+07 38.8833 1.00000
  3.981E+12 3.981E+12 4.787E+00 3.174E+04 5.604E+05 3.134E+06 3.727E+06 3.727E+06 3.302E+07 39.1136 1.00000
  4.467E+12 4.467E+12 4.810E+00 3.561E+04 6.287E+05 3.596E+06 4.260E+06 4.260E+06 3.314E+07 39.3438 1.00000
  5.012E+12 5.012E+12 4.833E+00 3.996E+04 7.054E+05 4.125E+06 4.870E+06 4.870E+06 3.326E+07 39.5741 1.00000
  5.623E+12 5.623E+12 4.856E+00 4.483E+04 7.915E+05 4.732E+06 5.568E+06 5.568E+06 3.338E+07 39.8044 1.00000
  6.310E+12 6.310E+12 4.879E+00 5.030E+04 8.880E+05 5.429E+06 6.367E+06 6.367E+06 3.350E+07 40.0346 1.00000
  7.079E+12 7.079E+12 4.902E+00 5.644E+04 9.963E+05 6.229E+06 7.282E+06 7.282E+06 3.361E+07 40.2649 1.00000
  7.943E+12 7.943E+12 4.926E+00 6.333E+04 1.118E+06 7.147E+06 8.328E+06 8.328E+06 3.372E+07 40.4951 1.00000
  8.913E+12 8.913E+12 4.950E+00 7.106E+04 1.254E+06 8.201E+06 9.526E+06 9.526E+06 3.383E+07 40.7254 1.00000
  1.000E+13 1.000E+13 4.973E+00 7.973E+04 1.407E+06 9.411E+06 1.090E+07 1.090E+07 3.394E+07 40.9557 1.00000
  1.122E+13 1.122E+13 4.997E+00 8.946E+04 1.579E+06 1.080E+07 1.247E+07 1.247E+07 3.404E+07 41.1859 1.00000
  1.259E+13 1.259E+13 5.021E+00 1.004E+05 1.771E+06 1.239E+07 1.427E+07 1.427E+07 3.414E+07 41.4162 1.00000
  1.413E+13 1.413E+13 5.045E+00 1.126E+05 1.987E+06 1.422E+07 1.632E+07 1.632E+07 3.424E+07 41.6464 1.00000
  1.585E+13 1.585E+13 5.070E+00 1.264E+05 2.230E+06 1.633E+07 1.868E+07 1.868E+07 3.434E+07 41.8767 1.00000
  1.778E+13 1.778E+13 5.094E+00 1.418E+05 2.502E+06 1.874E+07 2.138E+07 2.138E+07 3.444E+07 42.1069 1.00000
  1.995E+13 1.995E+13 5.119E+00 1.591E+05 2.807E+06 2.151E+07 2.448E+07 2.448E+07 3.454E+07 42.3372 1.00000
  2.239E+13 2.239E+13 5.143E+00 1.785E+05 3.149E+06 2.469E+07 2.802E+07 2.802E+07 3.463E+07 42.5675 1.00000
  2.512E+13 2.512E+13 5.168E+00 2.003E+05 3.533E+06 2.834E+07 3.208E+07 3.208E+07 3.472E+07 42.7977 1.00000
  2.818E+13 2.818E+13 5.193E+00 2.247E+05 3.964E+06 3.254E+07 3.673E+07 3.673E+07 3.481E+07 43.0280 1.00000
  3.162E+13 3.162E+13 5.218E+00 2.521E+05 4.447E+06 3.736E+07 4.206E+07 4.206E+07 3.490E+07 43.2582 1.00000
  3.548E+13 3.548E+13 5.243E+00 2.829E+05 4.990E+06 4.289E+07 4.816E+07 4.816E+07 3.498E+07 43.4885 1.00000
  3.981E+13 3.981E+13 5.269E+00 3.174E+05 5.598E+06 4.925E+07 5.516E+07 5.516E+07 3.507E+07 43.7188 1.00000
  4.467E+13 4.467E+13 5.294E+00 3.561E+05 6.281E+06 5.655E+07 6.319E+07 6.319E+07 3.515E+07 43.9490 1.00000
  5.012E+13 5.012E+13 5.320E+00 3.996E+05 7.047E+06 6.493E+07 7.238E+07 7.238E+07 3.523E+07 44.1793 1.00000
  5.623E+13 5.623E+13 5.346E+00 4.484E+05 7.906E+06 7.457E+07 8.292E+07 8.292E+07 3.531E+07 44.4095 1.00000
  6.310E+13 6.310E+13 5.372E+00 5.031E+05 8.871E+06 8.563E+07 9.500E+07 9.500E+07 3.539E+07 44.6398 1.00000
  7.079E+13 7.079E+13 5.398E+00 5.645E+05 9.952E+06 9.834E+07 1.089E+08 1.089E+08 3.546E+07 44.8700 1.00000
  7.943E+13 7.943E+13 5.424E+00 6.333E+05 1.117E+07 1.129E+08 1.247E+08 1.247E+08 3.554E+07 45.1003 1.00000
  8.913E+13 8.913E+13 5.450E+00 7.106E+05 1.253E+07 1.297E+08 1.430E+08 1.430E+08 3.561E+07 45.3306 1.00000
