 Incident particle is a Tau with M = 1776.82000 MeV
 Index = 0: Silicon
      Absorber with <Z/A> = 0.49848
 Sternheimer coef:  a     k=m_s   x_0    x_1    I[eV]   Cbar  delta0
                 0.1492  3.2546  0.2015  2.8716  173.0  4.4355 0.14

 *** Table generated with PUMAS v1.00 ***

      T         p     Ionization  brems     pair     photonuc  Radloss    dE/dx   CSDA Range  delta   beta
    [MeV]    [MeV/c]  -----------------------[MeV cm^2/g]------------------------  [g/cm^2]
  1.000E+05 1.018E+05 2.130E+00 2.627E-04 4.163E-03 8.101E-03 1.253E-02 2.142E+00 2.334E+04  3.8719 0.99985
  1.122E+05 1.140E+05 2.150E+00 3.037E-04 5.004E-03 9.132E-03 1.444E-02 2.164E+00 2.900E+04  4.0695 0.99988
  1.259E+05 1.277E+05 2.170E+00 3.509E-04 5.995E-03 1.024E-02 1.659E-02 2.186E+00 3.530E+04  4.2703 0.99990
  1.413E+05 1.430E+05 2.190E+00 4.053E-04 7.161E-03 1.149E-02 1.905E-02 2.209E+00 4.229E+04  4.4741 0.99992
  1.585E+05 1.603E+05 2.209E+00 4.679E-04 8.530E-03 1.288E-02 2.188E-02 2.231E+00 5.005E+04  4.6807 0.99994
  1.778E+05 1.796E+05 2.229E+00 5.399E-04 1.013E-02 1.443E-02 2.510E-02 2.254E+00 5.868E+04  4.8900 0.99995
  1.995E+05 2.013E+05 2.248E+00 6.226E-04 1.201E-02 1.619E-02 2.883E-02 2.277E+00 6.825E+04  5.1018 0.99996
  2.239E+05 2.256E+05 2.267E+00 7.177E-04 1.420E-02 1.812E-02 3.304E-02 2.300E+00 7.889E+04  5.3159 0.99997
  2.512E+05 2.530E+05 2.286E+00 8.268E-04 1.675E-02 2.028E-02 3.786E-02 2.324E+00 9.071E+04  5.5321 0.99998
  2.818E+05 2.836E+05 2.305E+00 9.522E-04 1.972E-02 2.271E-02 4.338E-02 2.349E+00 1.038E+05  5.7503 0.99998
  3.162E+05 3.180E+05 2.324E+00 1.096E-03 2.316E-02 2.544E-02 4.970E-02 2.374E+00 1.184E+05  5.9702 0.99998
  3.548E+05 3.566E+05 2.343E+00 1.261E-03 2.715E-02 2.851E-02 5.693E-02 2.400E+00 1.346E+05  6.1918 0.99999
  3.981E+05 3.999E+05 2.361E+00 1.450E-03 3.177E-02 3.194E-02 6.516E-02 2.427E+00 1.525E+05  6.4149 0.99999
  4.467E+05 4.485E+05 2.380E+00 1.667E-03 3.711E-02 3.577E-02 7.455E-02 2.454E+00 1.724E+05  6.6392 0.99999
  5.012E+05 5.030E+05 2.398E+00 1.915E-03 4.327E-02 4.008E-02 8.527E-02 2.483E+00 1.945E+05  6.8647 0.99999
  5.623E+05 5.641E+05 2.416E+00 2.199E-03 5.037E-02 4.474E-02 9.732E-02 2.514E+00 2.190E+05  7.0912 1.00000
  6.310E+05 6.327E+05 2.435E+00 2.525E-03 5.855E-02 4.999E-02 1.111E-01 2.546E+00 2.461E+05  7.3186 1.00000
  7.079E+05 7.097E+05 2.453E+00 2.898E-03 6.794E-02 5.591E-02 1.268E-01 2.579E+00 2.761E+05  7.5467 1.00000
  7.943E+05 7.961E+05 2.471E+00 3.324E-03 7.873E-02 6.259E-02 1.446E-01 2.615E+00 3.094E+05  7.7754 1.00000
  8.913E+05 8.930E+05 2.488E+00 3.812E-03 9.110E-02 7.014E-02 1.650E-01 2.653E+00 3.462E+05  8.0046 1.00000
  1.000E+06 1.002E+06 2.506E+00 4.369E-03 1.053E-01 7.867E-02 1.883E-01 2.694E+00 3.869E+05  8.2341 1.00000
  1.122E+06 1.124E+06 2.524E+00 5.006E-03 1.215E-01 8.831E-02 2.148E-01 2.738E+00 4.318E+05  8.4638 1.00000
  1.259E+06 1.261E+06 2.541E+00 5.735E-03 1.400E-01 9.923E-02 2.450E-01 2.786E+00 4.813E+05  8.6937 1.00000
  1.413E+06 1.414E+06 2.559E+00 6.566E-03 1.612E-01 1.116E-01 2.793E-01 2.838E+00 5.360E+05  8.9236 1.00000
  1.585E+06 1.587E+06 2.576E+00 7.516E-03 1.853E-01 1.256E-01 3.184E-01 2.894E+00 5.961E+05  9.1536 1.00000
  1.778E+06 1.780E+06 2.593E+00 8.601E-03 2.128E-01 1.415E-01 3.629E-01 2.956E+00 6.622E+05  9.3836 1.00000
  1.995E+06 1.997E+06 2.610E+00 9.839E-03 2.441E-01 1.596E-01 4.135E-01 3.024E+00 7.348E+05  9.6137 1.00000
  2.239E+06 2.240E+06 2.627E+00 1.125E-02 2.797E-01 1.800E-01 4.710E-01 3.098E+00 8.144E+05  9.8438 1.00000
  2.512E+06 2.514E+06 2.644E+00 1.286E-02 3.202E-01 2.033E-01 5.363E-01 3.180E+00 9.014E+05 10.0738 1.00000
  2.818E+06 2.820E+06 2.660E+00 1.470E-02 3.661E-01 2.297E-01 6.105E-01 3.271E+00 9.965E+05 10.3039 1.00000
  3.162E+06 3.164E+06 2.677E+00 1.680E-02 4.182E-01 2.598E-01 6.948E-01 3.372E+00 1.100E+06 10.5341 1.00000
  3.548E+06 3.550E+06 2.693E+00 1.918E-02 4.773E-01 2.939E-01 7.905E-01 3.484E+00 1.213E+06 10.7642 1.00000
  3.981E+06 3.983E+06 2.709E+00 2.190E-02 5.443E-01 3.328E-01 8.990E-01 3.608E+00 1.335E+06 10.9944 1.00000
  4.467E+06 4.469E+06 2.725E+00 2.500E-02 6.201E-01 3.770E-01 1.022E+00 3.747E+00 1.467E+06 11.2245 1.00000
  5.012E+06 5.014E+06 2.741E+00 2.853E-02 7.059E-01 4.274E-01 1.162E+00 3.903E+00 1.609E+06 11.4547 1.00000
  5.623E+06 5.625E+06 2.757E+00 3.255E-02 8.029E-01 4.847E-01 1.320E+00 4.077E+00 1.763E+06 11.6849 1.00000
  6.310E+06 6.311E+06 2.772E+00 3.713E-02 9.125E-01 5.500E-01 1.500E+00 4.272E+00 1.927E+06 11.9151 1.00000
  7.079E+06 7.081E+06 2.788E+00 4.233E-02 1.036E+00 6.243E-01 1.703E+00 4.490E+00 2.103E+06 12.1453 1.00000
  7.943E+06 7.945E+06 2.803E+00 4.825E-02 1.176E+00 7.090E-01 1.933E+00 4.736E+00 2.290E+06 12.3755 1.00000
  8.913E+06 8.914E+06 2.818E+00 5.499E-02 1.334E+00 8.055E-01 2.194E+00 5.012E+00 2.489E+06 12.6057 1.00000
  1.000E+07 1.000E+07 2.833E+00 6.264E-02 1.512E+00 9.155E-01 2.490E+00 5.322E+00 2.700E+06 12.8359 1.00000
  1.122E+07 1.122E+07 2.848E+00 7.134E-02 1.712E+00 1.041E+00 2.824E+00 5.672E+00 2.922E+06 13.0661 1.00000
  1.259E+07 1.259E+07 2.862E+00 8.123E-02 1.938E+00 1.184E+00 3.203E+00 6.065E+00 3.156E+06 13.2963 1.00000
  1.413E+07 1.413E+07 2.877E+00 9.246E-02 2.193E+00 1.347E+00 3.632E+00 6.509E+00 3.401E+06 13.5266 1.00000
  1.585E+07 1.585E+07 2.891E+00 1.052E-01 2.479E+00 1.533E+00 4.117E+00 7.008E+00 3.656E+06 13.7568 1.00000
  1.778E+07 1.778E+07 2.905E+00 1.197E-01 2.802E+00 1.745E+00 4.666E+00 7.572E+00 3.922E+06 13.9870 1.00000
  1.995E+07 1.995E+07 2.920E+00 1.361E-01 3.165E+00 1.987E+00 5.288E+00 8.208E+00 4.197E+06 14.2173 1.00000
  2.239E+07 2.239E+07 2.934E+00 1.548E-01 3.574E+00 2.262E+00 5.991E+00 8.925E+00 4.482E+06 14.4475 1.00000
  2.512E+07 2.512E+07 2.948E+00 1.759E-01 4.034E+00 2.577E+00 6.787E+00 9.735E+00 4.775E+06 14.6777 1.00000
  2.818E+07 2.819E+07 2.962E+00 1.999E-01 4.551E+00 2.936E+00 7.687E+00 1.065E+01 5.076E+06 14.9080 1.00000
  3.162E+07 3.162E+07 2.976E+00 2.270E-01 5.132E+00 3.346E+00 8.705E+00 1.168E+01 5.385E+06 15.1382 1.00000
  3.548E+07 3.548E+07 2.990E+00 2.578E-01 5.785E+00 3.814E+00 9.857E+00 1.285E+01 5.700E+06 15.3685 1.00000
  3.981E+07 3.981E+07 3.004E+00 2.927E-01 6.520E+00 4.348E+00 1.116E+01 1.416E+01 6.022E+06 15.5987 1.00000
  4.467E+07 4.467E+07 3.018E+00 3.323E-01 7.346E+00 4.957E+00 1.263E+01 1.565E+01 6.348E+06 15.8290 1.00000
  5.012E+07 5.012E+07 3.031E+00 3.770E-01 8.273E+00 5.653E+00 1.430E+01 1.733E+01 6.680E+06 16.0592 1.00000
  5.623E+07 5.624E+07 3.045E+00 4.276E-01 9.315E+00 6.446E+00 1.619E+01 1.923E+01 7.015E+06 16.2895 1.00000
  6.310E+07 6.310E+07 3.059E+00 4.849E-01 1.049E+01 7.353E+00 1.832E+01 2.138E+01 7.354E+06 16.5197 1.00000
  7.079E+07 7.080E+07 3.073E+00 5.498E-01 1.180E+01 8.388E+00 2.074E+01 2.381E+01 7.696E+06 16.7500 1.00000
  7.943E+07 7.943E+07 3.087E+00 6.231E-01 1.328E+01 9.570E+00 2.347E+01 2.656E+01 8.040E+06 16.9802 1.00000
  8.913E+07 8.913E+07 3.101E+00 7.060E-01 1.494E+01 1.092E+01 2.656E+01 2.966E+01 8.385E+06 17.2105 1.00000
  1.000E+08 1.000E+08 3.115E+00 7.996E-01 1.680E+01 1.246E+01 3.006E+01 3.317E+01 8.733E+06 17.4407 1.00000
  1.122E+08 1.122E+08 3.128E+00 9.055E-01 1.889E+01 1.422E+01 3.401E+01 3.714E+01 9.081E+06 17.6710 1.00000
  1.259E+08 1.259E+08 3.142E+00 1.025E+00 2.124E+01 1.623E+01 3.849E+01 4.163E+01 9.430E+06 17.9012 1.00000
  1.413E+08 1.413E+08 3.156E+00 1.160E+00 2.387E+01 1.852E+01 4.356E+01 4.671E+01 9.778E+06 18.1315 1.00000
  1.585E+08 1.585E+08 3.171E+00 1.313E+00 2.683E+01 2.115E+01 4.929E+01 5.246E+01 1.013E+07 18.3618 1.00000
  1.778E+08 1.778E+08 3.185E+00 1.485E+00 3.015E+01 2.414E+01 5.578E+01 5.897E+01 1.048E+07 18.5920 1.00000
  1.995E+08 1.995E+08 3.199E+00 1.679E+00 3.388E+01 2.756E+01 6.313E+01 6.632E+01 1.082E+07 18.8223 1.00000
  2.239E+08 2.239E+08 3.213E+00 1.898E+00 3.807E+01 3.147E+01 7.144E+01 7.465E+01 1.117E+07 19.0525 1.00000
  2.512E+08 2.512E+08 3.227E+00 2.145E+00 4.277E+01 3.594E+01 8.085E+01 8.408E+01 1.152E+07 19.2828 1.00000
  2.818E+08 2.818E+08 3.242E+00 2.424E+00 4.804E+01 4.104E+01 9.150E+01 9.474E+01 1.186E+07 19.5130 1.00000
  3.162E+08 3.162E+08 3.256E+00 2.738E+00 5.396E+01 4.687E+01 1.036E+02 1.068E+02 1.220E+07 19.7433 1.00000
  3.548E+08 3.548E+08 3.270E+00 3.091E+00 6.060E+01 5.353E+01 1.172E+02 1.205E+02 1.254E+07 19.9736 1.00000
  3.981E+08 3.981E+08 3.285E+00 3.490E+00 6.805E+01 6.114E+01 1.327E+02 1.360E+02 1.288E+07 20.2038 1.00000
  4.467E+08 4.467E+08 3.300E+00 3.939E+00 7.641E+01 6.984E+01 1.502E+02 1.535E+02 1.322E+07 20.4341 1.00000
  5.012E+08 5.012E+08 3.314E+00 4.445E+00 8.580E+01 7.979E+01 1.700E+02 1.733E+02 1.355E+07 20.6643 1.00000
  5.623E+08 5.623E+08 3.329E+00 5.015E+00 9.633E+01 9.115E+01 1.925E+02 1.958E+02 1.389E+07 20.8946 1.00000
  6.310E+08 6.310E+08 3.344E+00 5.656E+00 1.082E+02 1.041E+02 2.179E+02 2.213E+02 1.422E+07 21.1248 1.00000
  7.079E+08 7.079E+08 3.359E+00 6.378E+00 1.214E+02 1.190E+02 2.468E+02 2.501E+02 1.454E+07 21.3551 1.00000
  7.943E+08 7.943E+08 3.374E+00 7.191E+00 1.363E+02 1.360E+02 2.794E+02 2.828E+02 1.487E+07 21.5854 1.00000
  8.913E+08 8.913E+08 3.389E+00 8.105E+00 1.530E+02 1.554E+02 3.165E+02 3.199E+02 1.519E+07 21.8156 1.00000
  1.000E+09 1.000E+09 3.404E+00 9.133E+00 1.717E+02 1.775E+02 3.584E+02 3.618E+02 1.551E+07 22.0459 1.00000
  1.122E+09 1.122E+09 3.419E+00 1.029E+01 1.928E+02 2.029E+02 4.060E+02 4.094E+02 1.583E+07 22.2761 1.00000
  1.259E+09 1.259E+09 3.434E+00 1.159E+01 2.164E+02 2.319E+02 4.598E+02 4.633E+02 1.614E+07 22.5064 1.00000
  1.413E+09 1.413E+09 3.450E+00 1.305E+01 2.429E+02 2.650E+02 5.209E+02 5.244E+02 1.646E+07 22.7366 1.00000
  1.585E+09 1.585E+09 3.465E+00 1.470E+01 2.726E+02 3.029E+02 5.902E+02 5.937E+02 1.677E+07 22.9669 1.00000
  1.778E+09 1.778E+09 3.481E+00 1.655E+01 3.059E+02 3.463E+02 6.687E+02 6.722E+02 1.707E+07 23.1972 1.00000
  1.995E+09 1.995E+09 3.496E+00 1.862E+01 3.433E+02 3.958E+02 7.578E+02 7.613E+02 1.738E+07 23.4274 1.00000
  2.239E+09 2.239E+09 3.512E+00 2.096E+01 3.853E+02 4.525E+02 8.588E+02 8.623E+02 1.768E+07 23.6577 1.00000
  2.512E+09 2.512E+09 3.528E+00 2.358E+01 4.324E+02 5.173E+02 9.733E+02 9.768E+02 1.798E+07 23.8879 1.00000
  2.818E+09 2.818E+09 3.544E+00 2.653E+01 4.852E+02 5.915E+02 1.103E+03 1.107E+03 1.827E+07 24.1182 1.00000
  3.162E+09 3.162E+09 3.559E+00 2.984E+01 5.445E+02 6.763E+02 1.251E+03 1.254E+03 1.856E+07 24.3485 1.00000
  3.548E+09 3.548E+09 3.576E+00 3.356E+01 6.111E+02 7.733E+02 1.418E+03 1.421E+03 1.885E+07 24.5787 1.00000
  3.981E+09 3.981E+09 3.592E+00 3.774E+01 6.857E+02 8.843E+02 1.608E+03 1.611E+03 1.914E+07 24.8090 1.00000
  4.467E+09 4.467E+09 3.608E+00 4.244E+01 7.695E+02 1.011E+03 1.823E+03 1.827E+03 1.942E+07 25.0392 1.00000
  5.012E+09 5.012E+09 3.624E+00 4.771E+01 8.634E+02 1.156E+03 2.068E+03 2.071E+03 1.970E+07 25.2695 1.00000
  5.623E+09 5.623E+09 3.641E+00 5.363E+01 9.689E+02 1.323E+03 2.345E+03 2.349E+03 1.998E+07 25.4997 1.00000
  6.310E+09 6.310E+09 3.657E+00 6.028E+01 1.087E+03 1.513E+03 2.660E+03 2.664E+03 2.026E+07 25.7300 1.00000
  7.079E+09 7.079E+09 3.674E+00 6.774E+01 1.220E+03 1.730E+03 3.018E+03 3.022E+03 2.053E+07 25.9603 1.00000
  7.943E+09 7.943E+09 3.690E+00 7.613E+01 1.369E+03 1.979E+03 3.424E+03 3.428E+03 2.080E+07 26.1905 1.00000
  8.913E+09 8.913E+09 3.707E+00 8.554E+01 1.536E+03 2.264E+03 3.886E+03 3.889E+03 2.106E+07 26.4208 1.00000
  1.000E+10 1.000E+10 3.724E+00 9.610E+01 1.724E+03 2.590E+03 4.410E+03 4.413E+03 2.133E+07 26.6510 1.00000
  1.122E+10 1.122E+10 3.741E+00 1.080E+02 1.934E+03 2.963E+03 5.005E+03 5.009E+03 2.159E+07 26.8813 1.00000
  1.259E+10 1.259E+10 3.758E+00 1.213E+02 2.170E+03 3.390E+03 5.681E+03 5.685E+03 2.184E+07 27.1116 1.00000
  1.413E+10 1.413E+10 3.775E+00 1.362E+02 2.435E+03 3.879E+03 6.450E+03 6.454E+03 2.210E+07 27.3418 1.00000
  1.585E+10 1.585E+10 3.792E+00 1.530E+02 2.732E+03 4.438E+03 7.323E+03 7.327E+03 2.235E+07 27.5721 1.00000
  1.778E+10 1.778E+10 3.810E+00 1.718E+02 3.065E+03 5.079E+03 8.316E+03 8.320E+03 2.260E+07 27.8023 1.00000
  1.995E+10 1.995E+10 3.827E+00 1.930E+02 3.439E+03 5.812E+03 9.444E+03 9.448E+03 2.284E+07 28.0326 1.00000
  2.239E+10 2.239E+10 3.845E+00 2.167E+02 3.859E+03 6.651E+03 1.073E+04 1.073E+04 2.309E+07 28.2629 1.00000
  2.512E+10 2.512E+10 3.862E+00 2.433E+02 4.330E+03 7.612E+03 1.219E+04 1.219E+04 2.332E+07 28.4931 1.00000
  2.818E+10 2.818E+10 3.880E+00 2.732E+02 4.858E+03 8.712E+03 1.384E+04 1.385E+04 2.356E+07 28.7234 1.00000
  3.162E+10 3.162E+10 3.898E+00 3.067E+02 5.451E+03 9.972E+03 1.573E+04 1.573E+04 2.379E+07 28.9536 1.00000
  3.548E+10 3.548E+10 3.916E+00 3.443E+02 6.116E+03 1.141E+04 1.788E+04 1.788E+04 2.402E+07 29.1839 1.00000
  3.981E+10 3.981E+10 3.934E+00 3.866E+02 6.863E+03 1.307E+04 2.032E+04 2.032E+04 2.425E+07 29.4141 1.00000
  4.467E+10 4.467E+10 3.952E+00 4.339E+02 7.700E+03 1.496E+04 2.309E+04 2.310E+04 2.448E+07 29.6444 1.00000
  5.012E+10 5.012E+10 3.971E+00 4.871E+02 8.640E+03 1.712E+04 2.625E+04 2.625E+04 2.470E+07 29.8747 1.00000
  5.623E+10 5.623E+10 3.989E+00 5.468E+02 9.694E+03 1.960E+04 2.985E+04 2.985E+04 2.492E+07 30.1049 1.00000
  6.310E+10 6.310E+10 4.007E+00 6.138E+02 1.088E+04 2.245E+04 3.394E+04 3.394E+04 2.513E+07 30.3352 1.00000
  7.079E+10 7.079E+10 4.026E+00 6.889E+02 1.220E+04 2.570E+04 3.859E+04 3.860E+04 2.535E+07 30.5654 1.00000
  7.943E+10 7.943E+10 4.045E+00 7.732E+02 1.369E+04 2.943E+04 4.389E+04 4.390E+04 2.556E+07 30.7957 1.00000
  8.913E+10 8.913E+10 4.063E+00 8.679E+02 1.536E+04 3.370E+04 4.993E+04 4.993E+04 2.576E+07 31.0260 1.00000
  1.000E+11 1.000E+11 4.082E+00 9.740E+02 1.724E+04 3.859E+04 5.680E+04 5.681E+04 2.597E+07 31.2562 1.00000
  1.122E+11 1.122E+11 4.101E+00 1.093E+03 1.934E+04 4.420E+04 6.463E+04 6.464E+04 2.617E+07 31.4865 1.00000
  1.259E+11 1.259E+11 4.120E+00 1.227E+03 2.170E+04 5.062E+04 7.355E+04 7.355E+04 2.637E+07 31.7167 1.00000
  1.413E+11 1.413E+11 4.140E+00 1.377E+03 2.435E+04 5.798E+04 8.370E+04 8.371E+04 2.657E+07 31.9470 1.00000
  1.585E+11 1.585E+11 4.159E+00 1.545E+03 2.732E+04 6.641E+04 9.527E+04 9.528E+04 2.676E+07 32.1772 1.00000
  1.778E+11 1.778E+11 4.178E+00 1.734E+03 3.065E+04 7.607E+04 1.085E+05 1.085E+05 2.695E+07 32.4075 1.00000
  1.995E+11 1.995E+11 4.198E+00 1.946E+03 3.439E+04 8.714E+04 1.235E+05 1.235E+05 2.714E+07 32.6378 1.00000
  2.239E+11 2.239E+11 4.217E+00 2.184E+03 3.858E+04 9.983E+04 1.406E+05 1.406E+05 2.732E+07 32.8680 1.00000
  2.512E+11 2.512E+11 4.237E+00 2.451E+03 4.329E+04 1.144E+05 1.601E+05 1.601E+05 2.751E+07 33.0983 1.00000
  2.818E+11 2.818E+11 4.257E+00 2.750E+03 4.857E+04 1.310E+05 1.824E+05 1.824E+05 2.769E+07 33.3285 1.00000
  3.162E+11 3.162E+11 4.277E+00 3.086E+03 5.449E+04 1.501E+05 2.077E+05 2.077E+05 2.786E+07 33.5588 1.00000
  3.548E+11 3.548E+11 4.297E+00 3.463E+03 6.114E+04 1.720E+05 2.366E+05 2.366E+05 2.804E+07 33.7891 1.00000
  3.981E+11 3.981E+11 4.317E+00 3.886E+03 6.860E+04 1.971E+05 2.696E+05 2.696E+05 2.821E+07 34.0193 1.00000
  4.467E+11 4.467E+11 4.338E+00 4.360E+03 7.697E+04 2.259E+05 3.072E+05 3.072E+05 2.838E+07 34.2496 1.00000
  5.012E+11 5.012E+11 4.358E+00 4.892E+03 8.636E+04 2.589E+05 3.502E+05 3.502E+05 2.854E+07 34.4798 1.00000
  5.623E+11 5.623E+11 4.379E+00 5.490E+03 9.689E+04 2.967E+05 3.991E+05 3.991E+05 2.871E+07 34.7101 1.00000
  6.310E+11 6.310E+11 4.399E+00 6.160E+03 1.087E+05 3.401E+05 4.550E+05 4.550E+05 2.887E+07 34.9403 1.00000
  7.079E+11 7.079E+11 4.420E+00 6.912E+03 1.220E+05 3.898E+05 5.187E+05 5.187E+05 2.903E+07 35.1706 1.00000
  7.943E+11 7.943E+11 4.441E+00 7.756E+03 1.368E+05 4.468E+05 5.914E+05 5.914E+05 2.919E+07 35.4009 1.00000
  8.913E+11 8.913E+11 4.462E+00 8.703E+03 1.535E+05 5.122E+05 6.744E+05 6.744E+05 2.934E+07 35.6311 1.00000
  1.000E+12 1.000E+12 4.483E+00 9.765E+03 1.723E+05 5.872E+05 7.692E+05 7.692E+05 2.949E+07 35.8614 1.00000
  1.122E+12 1.122E+12 4.504E+00 1.096E+04 1.933E+05 6.731E+05 8.774E+05 8.774E+05 2.964E+07 36.0916 1.00000
  1.259E+12 1.259E+12 4.526E+00 1.229E+04 2.169E+05 7.717E+05 1.001E+06 1.001E+06 2.979E+07 36.3219 1.00000
  1.413E+12 1.413E+12 4.547E+00 1.380E+04 2.433E+05 8.848E+05 1.142E+06 1.142E+06 2.993E+07 36.5522 1.00000
  1.585E+12 1.585E+12 4.569E+00 1.548E+04 2.730E+05 1.015E+06 1.303E+06 1.303E+06 3.007E+07 36.7824 1.00000
  1.778E+12 1.778E+12 4.590E+00 1.737E+04 3.063E+05 1.163E+06 1.487E+06 1.487E+06 3.021E+07 37.0127 1.00000
  1.995E+12 1.995E+12 4.612E+00 1.949E+04 3.436E+05 1.334E+06 1.697E+06 1.697E+06 3.035E+07 37.2429 1.00000
  2.239E+12 2.239E+12 4.634E+00 2.187E+04 3.856E+05 1.530E+06 1.937E+06 1.937E+06 3.048E+07 37.4732 1.00000
  2.512E+12 2.512E+12 4.656E+00 2.453E+04 4.326E+05 1.754E+06 2.212E+06 2.212E+06 3.061E+07 37.7034 1.00000
  2.818E+12 2.818E+12 4.679E+00 2.753E+04 4.853E+05 2.012E+06 2.525E+06 2.525E+06 3.074E+07 37.9337 1.00000
  3.162E+12 3.162E+12 4.701E+00 3.089E+04 5.445E+05 2.308E+06 2.883E+06 2.883E+06 3.087E+07 38.1640 1.00000
  3.548E+12 3.548E+12 4.723E+00 3.466E+04 6.110E+05 2.647E+06 3.293E+06 3.293E+06 3.100E+07 38.3942 1.00000
  3.981E+12 3.981E+12 4.746E+00 3.889E+04 6.855E+05 3.036E+06 3.761E+06 3.761E+06 3.112E+07 38.6245 1.00000
  4.467E+12 4.467E+12 4.769E+00 4.363E+04 7.691E+05 3.483E+06 4.296E+06 4.296E+06 3.124E+07 38.8547 1.00000
  5.012E+12 5.012E+12 4.791E+00 4.896E+04 8.629E+05 3.996E+06 4.908E+06 4.908E+06 3.136E+07 39.0850 1.00000
  5.623E+12 5.623E+12 4.814E+00 5.493E+04 9.681E+05 4.584E+06 5.607E+06 5.607E+06 3.148E+07 39.3153 1.00000
  6.310E+12 6.310E+12 4.837E+00 6.163E+04 1.086E+06 5.259E+06 6.407E+06 6.407E+06 3.159E+07 39.5455 1.00000
  7.079E+12 7.079E+12 4.861E+00 6.916E+04 1.219E+06 6.034E+06 7.322E+06 7.322E+06 3.170E+07 39.7758 1.00000
  7.943E+12 7.943E+12 4.884E+00 7.759E+04 1.367E+06 6.924E+06 8.369E+06 8.369E+06 3.182E+07 40.0060 1.00000
  8.913E+12 8.913E+12 4.907E+00 8.706E+04 1.534E+06 7.945E+06 9.566E+06 9.566E+06 3.192E+07 40.2363 1.00000
  1.000E+13 1.000E+13 4.931E+00 9.769E+04 1.721E+06 9.117E+06 1.094E+07 1.094E+07 3.203E+07 40.4666 1.00000
  1.122E+13 1.122E+13 4.955E+00 1.096E+05 1.931E+06 1.046E+07 1.250E+07 1.250E+07 3.214E+07 40.6968 1.00000
  1.259E+13 1.259E+13 4.978E+00 1.230E+05 2.167E+06 1.201E+07 1.430E+07 1.430E+07 3.224E+07 40.9271 1.00000
  1.413E+13 1.413E+13 5.002E+00 1.380E+05 2.431E+06 1.378E+07 1.635E+07 1.635E+07 3.234E+07 41.1573 1.00000
  1.585E+13 1.585E+13 5.027E+00 1.548E+05 2.727E+06 1.582E+07 1.870E+07 1.870E+07 3.244E+07 41.3876 1.00000
  1.778E+13 1.778E+13 5.051E+00 1.737E+05 3.060E+06 1.815E+07 2.139E+07 2.139E+07 3.253E+07 41.6178 1.00000
  1.995E+13 1.995E+13 5.075E+00 1.949E+05 3.433E+06 2.084E+07 2.447E+07 2.447E+07 3.263E+07 41.8481 1.00000
  2.239E+13 2.239E+13 5.100E+00 2.187E+05 3.852E+06 2.392E+07 2.799E+07 2.799E+07 3.272E+07 42.0784 1.00000
  2.512E+13 2.512E+13 5.124E+00 2.454E+05 4.322E+06 2.746E+07 3.203E+07 3.203E+07 3.281E+07 42.3086 1.00000
  2.818E+13 2.818E+13 5.149E+00 2.753E+05 4.849E+06 3.152E+07 3.665E+07 3.665E+07 3.290E+07 42.5389 1.00000
  3.162E+13 3.162E+13 5.174E+00 3.089E+05 5.440E+06 3.619E+07 4.194E+07 4.194E+07 3.299E+07 42.7691 1.00000
  3.548E+13 3.548E+13 5.199E+00 3.466E+05 6.103E+06 4.155E+07 4.800E+07 4.800E+07 3.308E+07 42.9994 1.00000
  3.981E+13 3.981E+13 5.224E+00 3.889E+05 6.848E+06 4.771E+07 5.495E+07 5.495E+07 3.316E+07 43.2297 1.00000
  4.467E+13 4.467E+13 5.249E+00 4.364E+05 7.683E+06 5.478E+07 6.290E+07 6.290E+07 3.325E+07 43.4599 1.00000
  5.012E+13 5.012E+13 5.275E+00 4.896E+05 8.620E+06 6.290E+07 7.201E+07 7.201E+07 3.333E+07 43.6902 1.00000
  5.623E+13 5.623E+13 5.300E+00 5.493E+05 9.671E+06 7.224E+07 8.246E+07 8.246E+07 3.341E+07 43.9204 1.00000
  6.310E+13 6.310E+13 5.326E+00 6.164E+05 1.085E+07 8.295E+07 9.442E+07 9.442E+07 3.348E+07 44.1507 1.00000
  7.079E+13 7.079E+13 5.352E+00 6.916E+05 1.217E+07 9.527E+07 1.081E+08 1.081E+08 3.356E+07 44.3809 1.00000
  7.943E+13 7.943E+13 5.378E+00 7.760E+05 1.366E+07 1.094E+08 1.239E+08 1.239E+08 3.363E+07 44.6112 1.00000
  8.913E+13 8.913E+13 5.404E+00 8.707E+05 1.532E+07 1.257E+08 1.419E+08 1.419E+08 3.371E+07 44.8415 1.00000
