 Incident particle is a Tau with M = 1776.82000 MeV
 Index = 0: SilicaAerogel
      Absorber with <Z/A> = 0.50097
 Sternheimer coef:  a     k=m_s   x_0    x_1    I[eV]   Cbar  delta0
                 0.2668  3.0000  0.6029  3.0000  139.2  6.4507 0.00

 *** Table generated with PUMAS v1.00 ***

      T         p     Ionization  brems     pair     photonuc  Radloss    dE/dx   CSDA Range  delta   beta
    [MeV]    [MeV/c]  -----------------------[MeV cm^2/g]------------------------  [g/cm^2]
  1.000E+05 1.018E+05 2.306E+00 2.046E-04 3.217E-03 8.197E-03 1.162E-02 2.318E+00 2.157E+04  2.1561 0.99985
  1.122E+05 1.140E+05 2.328E+00 2.365E-04 3.872E-03 9.247E-03 1.336E-02 2.342E+00 2.681E+04  2.3243 0.99988
  1.259E+05 1.277E+05 2.351E+00 2.732E-04 4.644E-03 1.038E-02 1.529E-02 2.366E+00 3.263E+04  2.4974 0.99990
  1.413E+05 1.430E+05 2.372E+00 3.154E-04 5.553E-03 1.165E-02 1.752E-02 2.390E+00 3.909E+04  2.6752 0.99992
  1.585E+05 1.603E+05 2.394E+00 3.640E-04 6.621E-03 1.307E-02 2.005E-02 2.414E+00 4.626E+04  2.8575 0.99994
  1.778E+05 1.796E+05 2.415E+00 4.199E-04 7.873E-03 1.465E-02 2.294E-02 2.438E+00 5.423E+04  3.0442 0.99995
  1.995E+05 2.013E+05 2.436E+00 4.841E-04 9.337E-03 1.646E-02 2.628E-02 2.463E+00 6.309E+04  3.2349 0.99996
  2.239E+05 2.256E+05 2.457E+00 5.579E-04 1.105E-02 1.843E-02 3.004E-02 2.487E+00 7.293E+04  3.4296 0.99997
  2.512E+05 2.530E+05 2.478E+00 6.426E-04 1.304E-02 2.064E-02 3.432E-02 2.512E+00 8.386E+04  3.6280 0.99998
  2.818E+05 2.836E+05 2.498E+00 7.399E-04 1.536E-02 2.312E-02 3.922E-02 2.537E+00 9.600E+04  3.8299 0.99998
  3.162E+05 3.180E+05 2.518E+00 8.515E-04 1.805E-02 2.593E-02 4.484E-02 2.563E+00 1.095E+05  4.0351 0.99998
  3.548E+05 3.566E+05 2.538E+00 9.795E-04 2.118E-02 2.908E-02 5.124E-02 2.589E+00 1.245E+05  4.2433 0.99999
  3.981E+05 3.999E+05 2.557E+00 1.126E-03 2.480E-02 3.259E-02 5.852E-02 2.616E+00 1.411E+05  4.4545 0.99999
  4.467E+05 4.485E+05 2.577E+00 1.294E-03 2.898E-02 3.653E-02 6.680E-02 2.644E+00 1.596E+05  4.6683 0.99999
  5.012E+05 5.030E+05 2.596E+00 1.487E-03 3.381E-02 4.096E-02 7.625E-02 2.672E+00 1.801E+05  4.8846 0.99999
  5.623E+05 5.641E+05 2.615E+00 1.708E-03 3.937E-02 4.575E-02 8.683E-02 2.702E+00 2.028E+05  5.1032 1.00000
  6.310E+05 6.327E+05 2.634E+00 1.960E-03 4.578E-02 5.115E-02 9.889E-02 2.733E+00 2.281E+05  5.3238 1.00000
  7.079E+05 7.097E+05 2.652E+00 2.250E-03 5.316E-02 5.724E-02 1.126E-01 2.765E+00 2.561E+05  5.5463 1.00000
  7.943E+05 7.961E+05 2.671E+00 2.580E-03 6.163E-02 6.412E-02 1.283E-01 2.799E+00 2.872E+05  5.7704 1.00000
  8.913E+05 8.930E+05 2.689E+00 2.959E-03 7.134E-02 7.188E-02 1.462E-01 2.835E+00 3.216E+05  5.9960 1.00000
  1.000E+06 1.002E+06 2.707E+00 3.392E-03 8.248E-02 8.067E-02 1.665E-01 2.873E+00 3.597E+05  6.2228 1.00000
  1.122E+06 1.124E+06 2.725E+00 3.886E-03 9.523E-02 9.060E-02 1.897E-01 2.914E+00 4.018E+05  6.4507 1.00000
  1.259E+06 1.261E+06 2.742E+00 4.452E-03 1.098E-01 1.019E-01 2.161E-01 2.958E+00 4.485E+05  6.6794 1.00000
  1.413E+06 1.414E+06 2.760E+00 5.098E-03 1.265E-01 1.146E-01 2.462E-01 3.006E+00 5.000E+05  6.9087 1.00000
  1.585E+06 1.587E+06 2.777E+00 5.836E-03 1.455E-01 1.291E-01 2.804E-01 3.058E+00 5.568E+05  7.1385 1.00000
  1.778E+06 1.780E+06 2.794E+00 6.679E-03 1.671E-01 1.454E-01 3.193E-01 3.114E+00 6.195E+05  7.3684 1.00000
  1.995E+06 1.997E+06 2.812E+00 7.641E-03 1.918E-01 1.640E-01 3.635E-01 3.175E+00 6.885E+05  7.5985 1.00000
  2.239E+06 2.240E+06 2.829E+00 8.739E-03 2.199E-01 1.852E-01 4.138E-01 3.242E+00 7.644E+05  7.8286 1.00000
  2.512E+06 2.514E+06 2.845E+00 9.992E-03 2.518E-01 2.092E-01 4.710E-01 3.316E+00 8.477E+05  8.0586 1.00000
  2.818E+06 2.820E+06 2.862E+00 1.142E-02 2.881E-01 2.364E-01 5.360E-01 3.398E+00 9.390E+05  8.2887 1.00000
  3.162E+06 3.164E+06 2.879E+00 1.305E-02 3.293E-01 2.674E-01 6.098E-01 3.488E+00 1.039E+06  8.5189 1.00000
  3.548E+06 3.550E+06 2.895E+00 1.491E-02 3.760E-01 3.027E-01 6.936E-01 3.589E+00 1.148E+06  8.7490 1.00000
  3.981E+06 3.983E+06 2.911E+00 1.703E-02 4.289E-01 3.428E-01 7.888E-01 3.700E+00 1.267E+06  8.9792 1.00000
  4.467E+06 4.469E+06 2.927E+00 1.944E-02 4.889E-01 3.885E-01 8.968E-01 3.824E+00 1.396E+06  9.2093 1.00000
  5.012E+06 5.014E+06 2.943E+00 2.219E-02 5.568E-01 4.404E-01 1.019E+00 3.963E+00 1.536E+06  9.4395 1.00000
  5.623E+06 5.625E+06 2.959E+00 2.532E-02 6.335E-01 4.996E-01 1.158E+00 4.117E+00 1.687E+06  9.6697 1.00000
  6.310E+06 6.311E+06 2.975E+00 2.889E-02 7.203E-01 5.670E-01 1.316E+00 4.291E+00 1.851E+06  9.8999 1.00000
  7.079E+06 7.081E+06 2.990E+00 3.295E-02 8.184E-01 6.437E-01 1.495E+00 4.485E+00 2.026E+06 10.1301 1.00000
  7.943E+06 7.945E+06 3.005E+00 3.757E-02 9.291E-01 7.312E-01 1.698E+00 4.703E+00 2.214E+06 10.3603 1.00000
  8.913E+06 8.914E+06 3.020E+00 4.282E-02 1.054E+00 8.308E-01 1.928E+00 4.948E+00 2.415E+06 10.5905 1.00000
  1.000E+07 1.000E+07 3.035E+00 4.880E-02 1.195E+00 9.444E-01 2.188E+00 5.224E+00 2.629E+06 10.8207 1.00000
  1.122E+07 1.122E+07 3.050E+00 5.559E-02 1.354E+00 1.074E+00 2.484E+00 5.534E+00 2.856E+06 11.0509 1.00000
  1.259E+07 1.259E+07 3.065E+00 6.332E-02 1.533E+00 1.221E+00 2.818E+00 5.883E+00 3.096E+06 11.2811 1.00000
  1.413E+07 1.413E+07 3.080E+00 7.209E-02 1.736E+00 1.390E+00 3.197E+00 6.277E+00 3.349E+06 11.5114 1.00000
  1.585E+07 1.585E+07 3.094E+00 8.206E-02 1.963E+00 1.582E+00 3.627E+00 6.721E+00 3.615E+06 11.7416 1.00000
  1.778E+07 1.778E+07 3.108E+00 9.338E-02 2.219E+00 1.801E+00 4.113E+00 7.222E+00 3.893E+06 11.9718 1.00000
  1.995E+07 1.995E+07 3.123E+00 1.062E-01 2.508E+00 2.050E+00 4.664E+00 7.787E+00 4.182E+06 12.2021 1.00000
  2.239E+07 2.239E+07 3.137E+00 1.208E-01 2.832E+00 2.335E+00 5.289E+00 8.425E+00 4.483E+06 12.4323 1.00000
  2.512E+07 2.512E+07 3.151E+00 1.374E-01 3.198E+00 2.660E+00 5.995E+00 9.146E+00 4.794E+06 12.6625 1.00000
  2.818E+07 2.819E+07 3.165E+00 1.562E-01 3.609E+00 3.031E+00 6.796E+00 9.961E+00 5.116E+06 12.8928 1.00000
  3.162E+07 3.162E+07 3.179E+00 1.774E-01 4.071E+00 3.454E+00 7.703E+00 1.088E+01 5.446E+06 13.1230 1.00000
  3.548E+07 3.548E+07 3.193E+00 2.016E-01 4.590E+00 3.937E+00 8.729E+00 1.192E+01 5.786E+06 13.3533 1.00000
  3.981E+07 3.981E+07 3.207E+00 2.289E-01 5.174E+00 4.489E+00 9.892E+00 1.310E+01 6.132E+06 13.5835 1.00000
  4.467E+07 4.467E+07 3.221E+00 2.599E-01 5.831E+00 5.118E+00 1.121E+01 1.443E+01 6.486E+06 13.8138 1.00000
  5.012E+07 5.012E+07 3.235E+00 2.950E-01 6.568E+00 5.836E+00 1.270E+01 1.593E+01 6.846E+06 14.0440 1.00000
  5.623E+07 5.624E+07 3.249E+00 3.348E-01 7.397E+00 6.656E+00 1.439E+01 1.764E+01 7.211E+06 14.2743 1.00000
  6.310E+07 6.310E+07 3.263E+00 3.798E-01 8.329E+00 7.592E+00 1.630E+01 1.956E+01 7.581E+06 14.5045 1.00000
  7.079E+07 7.080E+07 3.277E+00 4.307E-01 9.375E+00 8.661E+00 1.847E+01 2.174E+01 7.955E+06 14.7348 1.00000
  7.943E+07 7.943E+07 3.291E+00 4.883E-01 1.055E+01 9.881E+00 2.092E+01 2.421E+01 8.332E+06 14.9650 1.00000
  8.913E+07 8.913E+07 3.305E+00 5.534E-01 1.187E+01 1.127E+01 2.370E+01 2.700E+01 8.712E+06 15.1953 1.00000
  1.000E+08 1.000E+08 3.319E+00 6.271E-01 1.335E+01 1.287E+01 2.684E+01 3.016E+01 9.093E+06 15.4255 1.00000
  1.122E+08 1.122E+08 3.333E+00 7.103E-01 1.501E+01 1.468E+01 3.041E+01 3.374E+01 9.476E+06 15.6558 1.00000
  1.259E+08 1.259E+08 3.347E+00 8.044E-01 1.688E+01 1.676E+01 3.445E+01 3.779E+01 9.860E+06 15.8860 1.00000
  1.413E+08 1.413E+08 3.361E+00 9.107E-01 1.898E+01 1.913E+01 3.902E+01 4.238E+01 1.024E+07 16.1163 1.00000
  1.585E+08 1.585E+08 3.375E+00 1.031E+00 2.134E+01 2.184E+01 4.420E+01 4.758E+01 1.063E+07 16.3466 1.00000
  1.778E+08 1.778E+08 3.389E+00 1.166E+00 2.398E+01 2.493E+01 5.008E+01 5.347E+01 1.101E+07 16.5768 1.00000
  1.995E+08 1.995E+08 3.403E+00 1.319E+00 2.695E+01 2.846E+01 5.673E+01 6.013E+01 1.140E+07 16.8071 1.00000
  2.239E+08 2.239E+08 3.418E+00 1.492E+00 3.028E+01 3.250E+01 6.427E+01 6.769E+01 1.178E+07 17.0373 1.00000
  2.512E+08 2.512E+08 3.432E+00 1.687E+00 3.402E+01 3.711E+01 7.282E+01 7.625E+01 1.216E+07 17.2676 1.00000
  2.818E+08 2.818E+08 3.446E+00 1.906E+00 3.821E+01 4.238E+01 8.250E+01 8.595E+01 1.254E+07 17.4978 1.00000
  3.162E+08 3.162E+08 3.461E+00 2.154E+00 4.292E+01 4.840E+01 9.348E+01 9.694E+01 1.292E+07 17.7281 1.00000
  3.548E+08 3.548E+08 3.475E+00 2.434E+00 4.821E+01 5.528E+01 1.059E+02 1.094E+02 1.329E+07 17.9584 1.00000
  3.981E+08 3.981E+08 3.490E+00 2.748E+00 5.414E+01 6.315E+01 1.200E+02 1.235E+02 1.367E+07 18.1886 1.00000
  4.467E+08 4.467E+08 3.505E+00 3.103E+00 6.080E+01 7.213E+01 1.360E+02 1.395E+02 1.404E+07 18.4189 1.00000
  5.012E+08 5.012E+08 3.519E+00 3.503E+00 6.827E+01 8.240E+01 1.542E+02 1.577E+02 1.440E+07 18.6491 1.00000
  5.623E+08 5.623E+08 3.534E+00 3.953E+00 7.665E+01 9.413E+01 1.747E+02 1.783E+02 1.477E+07 18.8794 1.00000
  6.310E+08 6.310E+08 3.549E+00 4.460E+00 8.606E+01 1.075E+02 1.981E+02 2.016E+02 1.513E+07 19.1096 1.00000
  7.079E+08 7.079E+08 3.564E+00 5.030E+00 9.662E+01 1.229E+02 2.245E+02 2.281E+02 1.549E+07 19.3399 1.00000
  7.943E+08 7.943E+08 3.579E+00 5.673E+00 1.085E+02 1.404E+02 2.545E+02 2.581E+02 1.585E+07 19.5702 1.00000
  8.913E+08 8.913E+08 3.594E+00 6.396E+00 1.218E+02 1.604E+02 2.886E+02 2.922E+02 1.620E+07 19.8004 1.00000
  1.000E+09 1.000E+09 3.609E+00 7.209E+00 1.367E+02 1.833E+02 3.272E+02 3.308E+02 1.655E+07 20.0307 1.00000
  1.122E+09 1.122E+09 3.625E+00 8.125E+00 1.534E+02 2.095E+02 3.711E+02 3.747E+02 1.690E+07 20.2609 1.00000
  1.259E+09 1.259E+09 3.640E+00 9.154E+00 1.722E+02 2.395E+02 4.208E+02 4.245E+02 1.724E+07 20.4912 1.00000
  1.413E+09 1.413E+09 3.655E+00 1.031E+01 1.933E+02 2.737E+02 4.773E+02 4.810E+02 1.758E+07 20.7214 1.00000
  1.585E+09 1.585E+09 3.671E+00 1.161E+01 2.169E+02 3.128E+02 5.414E+02 5.451E+02 1.792E+07 20.9517 1.00000
  1.778E+09 1.778E+09 3.686E+00 1.308E+01 2.435E+02 3.576E+02 6.142E+02 6.178E+02 1.826E+07 21.1820 1.00000
  1.995E+09 1.995E+09 3.702E+00 1.472E+01 2.733E+02 4.088E+02 6.968E+02 7.005E+02 1.859E+07 21.4122 1.00000
  2.239E+09 2.239E+09 3.718E+00 1.658E+01 3.067E+02 4.673E+02 7.906E+02 7.943E+02 1.891E+07 21.6425 1.00000
  2.512E+09 2.512E+09 3.734E+00 1.865E+01 3.442E+02 5.343E+02 8.971E+02 9.008E+02 1.924E+07 21.8727 1.00000
  2.818E+09 2.818E+09 3.750E+00 2.099E+01 3.862E+02 6.108E+02 1.018E+03 1.022E+03 1.956E+07 22.1030 1.00000
  3.162E+09 3.162E+09 3.766E+00 2.362E+01 4.334E+02 6.984E+02 1.155E+03 1.159E+03 1.987E+07 22.3333 1.00000
  3.548E+09 3.548E+09 3.782E+00 2.657E+01 4.864E+02 7.986E+02 1.312E+03 1.315E+03 2.019E+07 22.5635 1.00000
  3.981E+09 3.981E+09 3.798E+00 2.988E+01 5.458E+02 9.132E+02 1.489E+03 1.493E+03 2.050E+07 22.7938 1.00000
  4.467E+09 4.467E+09 3.814E+00 3.361E+01 6.125E+02 1.044E+03 1.690E+03 1.694E+03 2.080E+07 23.0240 1.00000
  5.012E+09 5.012E+09 3.831E+00 3.779E+01 6.873E+02 1.194E+03 1.919E+03 1.923E+03 2.110E+07 23.2543 1.00000
  5.623E+09 5.623E+09 3.847E+00 4.249E+01 7.713E+02 1.366E+03 2.180E+03 2.184E+03 2.140E+07 23.4845 1.00000
  6.310E+09 6.310E+09 3.864E+00 4.776E+01 8.654E+02 1.562E+03 2.475E+03 2.479E+03 2.170E+07 23.7148 1.00000
  7.079E+09 7.079E+09 3.881E+00 5.368E+01 9.711E+02 1.787E+03 2.812E+03 2.816E+03 2.199E+07 23.9451 1.00000
  7.943E+09 7.943E+09 3.897E+00 6.034E+01 1.090E+03 2.044E+03 3.194E+03 3.198E+03 2.228E+07 24.1753 1.00000
  8.913E+09 8.913E+09 3.914E+00 6.781E+01 1.223E+03 2.338E+03 3.629E+03 3.633E+03 2.256E+07 24.4056 1.00000
  1.000E+10 1.000E+10 3.931E+00 7.619E+01 1.372E+03 2.675E+03 4.123E+03 4.127E+03 2.285E+07 24.6358 1.00000
  1.122E+10 1.122E+10 3.948E+00 8.561E+01 1.539E+03 3.060E+03 4.685E+03 4.689E+03 2.312E+07 24.8661 1.00000
  1.259E+10 1.259E+10 3.965E+00 9.618E+01 1.727E+03 3.501E+03 5.325E+03 5.329E+03 2.340E+07 25.0964 1.00000
  1.413E+10 1.413E+10 3.983E+00 1.080E+02 1.938E+03 4.006E+03 6.052E+03 6.056E+03 2.367E+07 25.3266 1.00000
  1.585E+10 1.585E+10 4.000E+00 1.214E+02 2.175E+03 4.584E+03 6.880E+03 6.884E+03 2.394E+07 25.5569 1.00000
  1.778E+10 1.778E+10 4.017E+00 1.363E+02 2.440E+03 5.245E+03 7.822E+03 7.826E+03 2.420E+07 25.7871 1.00000
  1.995E+10 1.995E+10 4.035E+00 1.531E+02 2.738E+03 6.002E+03 8.893E+03 8.897E+03 2.446E+07 26.0174 1.00000
  2.239E+10 2.239E+10 4.053E+00 1.719E+02 3.072E+03 6.869E+03 1.011E+04 1.012E+04 2.472E+07 26.2477 1.00000
  2.512E+10 2.512E+10 4.070E+00 1.931E+02 3.447E+03 7.861E+03 1.150E+04 1.151E+04 2.497E+07 26.4779 1.00000
  2.818E+10 2.818E+10 4.088E+00 2.168E+02 3.868E+03 8.998E+03 1.308E+04 1.309E+04 2.522E+07 26.7082 1.00000
  3.162E+10 3.162E+10 4.106E+00 2.434E+02 4.340E+03 1.030E+04 1.488E+04 1.489E+04 2.547E+07 26.9384 1.00000
  3.548E+10 3.548E+10 4.124E+00 2.733E+02 4.869E+03 1.179E+04 1.693E+04 1.693E+04 2.571E+07 27.1687 1.00000
  3.981E+10 3.981E+10 4.142E+00 3.069E+02 5.463E+03 1.349E+04 1.926E+04 1.927E+04 2.595E+07 27.3989 1.00000
  4.467E+10 4.467E+10 4.160E+00 3.445E+02 6.130E+03 1.545E+04 2.192E+04 2.193E+04 2.619E+07 27.6292 1.00000
  5.012E+10 5.012E+10 4.179E+00 3.867E+02 6.878E+03 1.768E+04 2.495E+04 2.495E+04 2.642E+07 27.8595 1.00000
  5.623E+10 5.623E+10 4.197E+00 4.341E+02 7.717E+03 2.025E+04 2.840E+04 2.840E+04 2.665E+07 28.0897 1.00000
  6.310E+10 6.310E+10 4.216E+00 4.873E+02 8.658E+03 2.318E+04 3.233E+04 3.233E+04 2.688E+07 28.3200 1.00000
  7.079E+10 7.079E+10 4.235E+00 5.470E+02 9.715E+03 2.654E+04 3.681E+04 3.681E+04 2.710E+07 28.5502 1.00000
  7.943E+10 7.943E+10 4.253E+00 6.140E+02 1.090E+04 3.039E+04 4.191E+04 4.191E+04 2.732E+07 28.7805 1.00000
  8.913E+10 8.913E+10 4.272E+00 6.892E+02 1.223E+04 3.480E+04 4.772E+04 4.773E+04 2.754E+07 29.0108 1.00000
  1.000E+11 1.000E+11 4.291E+00 7.736E+02 1.372E+04 3.986E+04 5.435E+04 5.436E+04 2.776E+07 29.2410 1.00000
  1.122E+11 1.122E+11 4.310E+00 8.682E+02 1.540E+04 4.565E+04 6.191E+04 6.192E+04 2.797E+07 29.4713 1.00000
  1.259E+11 1.259E+11 4.329E+00 9.744E+02 1.727E+04 5.228E+04 7.053E+04 7.053E+04 2.817E+07 29.7015 1.00000
  1.413E+11 1.413E+11 4.349E+00 1.094E+03 1.938E+04 5.988E+04 8.035E+04 8.036E+04 2.838E+07 29.9318 1.00000
  1.585E+11 1.585E+11 4.368E+00 1.227E+03 2.175E+04 6.859E+04 9.156E+04 9.156E+04 2.858E+07 30.1620 1.00000
  1.778E+11 1.778E+11 4.388E+00 1.377E+03 2.440E+04 7.857E+04 1.043E+05 1.043E+05 2.878E+07 30.3923 1.00000
  1.995E+11 1.995E+11 4.407E+00 1.546E+03 2.737E+04 9.000E+04 1.189E+05 1.189E+05 2.897E+07 30.6226 1.00000
  2.239E+11 2.239E+11 4.427E+00 1.735E+03 3.071E+04 1.031E+05 1.356E+05 1.356E+05 2.917E+07 30.8528 1.00000
  2.512E+11 2.512E+11 4.447E+00 1.947E+03 3.446E+04 1.181E+05 1.545E+05 1.545E+05 2.935E+07 31.0831 1.00000
  2.818E+11 2.818E+11 4.467E+00 2.184E+03 3.866E+04 1.353E+05 1.762E+05 1.762E+05 2.954E+07 31.3133 1.00000
  3.162E+11 3.162E+11 4.487E+00 2.451E+03 4.338E+04 1.551E+05 2.009E+05 2.009E+05 2.972E+07 31.5436 1.00000
  3.548E+11 3.548E+11 4.507E+00 2.751E+03 4.867E+04 1.777E+05 2.291E+05 2.291E+05 2.990E+07 31.7739 1.00000
  3.981E+11 3.981E+11 4.527E+00 3.087E+03 5.461E+04 2.036E+05 2.613E+05 2.613E+05 3.008E+07 32.0041 1.00000
  4.467E+11 4.467E+11 4.548E+00 3.464E+03 6.127E+04 2.333E+05 2.981E+05 2.981E+05 3.026E+07 32.2344 1.00000
  5.012E+11 5.012E+11 4.568E+00 3.887E+03 6.875E+04 2.674E+05 3.400E+05 3.400E+05 3.043E+07 32.4646 1.00000
  5.623E+11 5.623E+11 4.589E+00 4.361E+03 7.713E+04 3.064E+05 3.879E+05 3.879E+05 3.060E+07 32.6949 1.00000
  6.310E+11 6.310E+11 4.610E+00 4.894E+03 8.654E+04 3.512E+05 4.427E+05 4.427E+05 3.076E+07 32.9251 1.00000
  7.079E+11 7.079E+11 4.631E+00 5.492E+03 9.710E+04 4.026E+05 5.052E+05 5.052E+05 3.093E+07 33.1554 1.00000
  7.943E+11 7.943E+11 4.652E+00 6.162E+03 1.089E+05 4.615E+05 5.766E+05 5.766E+05 3.109E+07 33.3857 1.00000
  8.913E+11 8.913E+11 4.673E+00 6.914E+03 1.222E+05 5.290E+05 6.581E+05 6.581E+05 3.124E+07 33.6159 1.00000
  1.000E+12 1.000E+12 4.694E+00 7.758E+03 1.371E+05 6.064E+05 7.513E+05 7.513E+05 3.140E+07 33.8462 1.00000
  1.122E+12 1.122E+12 4.715E+00 8.705E+03 1.539E+05 6.952E+05 8.578E+05 8.578E+05 3.155E+07 34.0764 1.00000
  1.259E+12 1.259E+12 4.737E+00 9.768E+03 1.726E+05 7.970E+05 9.794E+05 9.794E+05 3.170E+07 34.3067 1.00000
  1.413E+12 1.413E+12 4.758E+00 1.096E+04 1.937E+05 9.138E+05 1.118E+06 1.118E+06 3.185E+07 34.5370 1.00000
  1.585E+12 1.585E+12 4.780E+00 1.230E+04 2.173E+05 1.048E+06 1.277E+06 1.277E+06 3.199E+07 34.7672 1.00000
  1.778E+12 1.778E+12 4.802E+00 1.380E+04 2.438E+05 1.201E+06 1.459E+06 1.459E+06 3.213E+07 34.9975 1.00000
  1.995E+12 1.995E+12 4.824E+00 1.548E+04 2.736E+05 1.378E+06 1.667E+06 1.667E+06 3.227E+07 35.2277 1.00000
  2.239E+12 2.239E+12 4.846E+00 1.737E+04 3.069E+05 1.580E+06 1.904E+06 1.904E+06 3.241E+07 35.4580 1.00000
  2.512E+12 2.512E+12 4.868E+00 1.949E+04 3.444E+05 1.812E+06 2.176E+06 2.176E+06 3.254E+07 35.6882 1.00000
  2.818E+12 2.818E+12 4.890E+00 2.187E+04 3.864E+05 2.078E+06 2.486E+06 2.486E+06 3.268E+07 35.9185 1.00000
  3.162E+12 3.162E+12 4.913E+00 2.454E+04 4.335E+05 2.383E+06 2.842E+06 2.842E+06 3.281E+07 36.1488 1.00000
  3.548E+12 3.548E+12 4.935E+00 2.754E+04 4.864E+05 2.734E+06 3.248E+06 3.248E+06 3.293E+07 36.3790 1.00000
  3.981E+12 3.981E+12 4.958E+00 3.090E+04 5.457E+05 3.136E+06 3.713E+06 3.713E+06 3.306E+07 36.6093 1.00000
  4.467E+12 4.467E+12 4.981E+00 3.467E+04 6.122E+05 3.597E+06 4.244E+06 4.244E+06 3.318E+07 36.8395 1.00000
  5.012E+12 5.012E+12 5.004E+00 3.890E+04 6.869E+05 4.127E+06 4.853E+06 4.853E+06 3.330E+07 37.0698 1.00000
  5.623E+12 5.623E+12 5.027E+00 4.365E+04 7.707E+05 4.734E+06 5.549E+06 5.549E+06 3.342E+07 37.3001 1.00000
  6.310E+12 6.310E+12 5.050E+00 4.897E+04 8.647E+05 5.432E+06 6.345E+06 6.345E+06 3.354E+07 37.5303 1.00000
  7.079E+12 7.079E+12 5.073E+00 5.495E+04 9.702E+05 6.232E+06 7.257E+06 7.257E+06 3.365E+07 37.7606 1.00000
  7.943E+12 7.943E+12 5.097E+00 6.165E+04 1.088E+06 7.151E+06 8.301E+06 8.301E+06 3.376E+07 37.9908 1.00000
  8.913E+12 8.913E+12 5.120E+00 6.918E+04 1.221E+06 8.205E+06 9.496E+06 9.496E+06 3.387E+07 38.2211 1.00000
  1.000E+13 1.000E+13 5.144E+00 7.762E+04 1.370E+06 9.416E+06 1.086E+07 1.086E+07 3.398E+07 38.4514 1.00000
  1.122E+13 1.122E+13 5.168E+00 8.709E+04 1.537E+06 1.081E+07 1.243E+07 1.243E+07 3.408E+07 38.6816 1.00000
  1.259E+13 1.259E+13 5.192E+00 9.771E+04 1.725E+06 1.240E+07 1.422E+07 1.422E+07 3.419E+07 38.9119 1.00000
  1.413E+13 1.413E+13 5.216E+00 1.096E+05 1.935E+06 1.423E+07 1.628E+07 1.628E+07 3.429E+07 39.1421 1.00000
  1.585E+13 1.585E+13 5.240E+00 1.230E+05 2.171E+06 1.633E+07 1.863E+07 1.863E+07 3.439E+07 39.3724 1.00000
  1.778E+13 1.778E+13 5.264E+00 1.380E+05 2.436E+06 1.875E+07 2.132E+07 2.132E+07 3.448E+07 39.6026 1.00000
  1.995E+13 1.995E+13 5.289E+00 1.549E+05 2.733E+06 2.152E+07 2.441E+07 2.441E+07 3.458E+07 39.8329 1.00000
  2.239E+13 2.239E+13 5.314E+00 1.738E+05 3.066E+06 2.470E+07 2.794E+07 2.794E+07 3.467E+07 40.0632 1.00000
  2.512E+13 2.512E+13 5.338E+00 1.950E+05 3.440E+06 2.836E+07 3.199E+07 3.199E+07 3.476E+07 40.2934 1.00000
  2.818E+13 2.818E+13 5.363E+00 2.188E+05 3.860E+06 3.256E+07 3.663E+07 3.663E+07 3.485E+07 40.5237 1.00000
  3.162E+13 3.162E+13 5.388E+00 2.455E+05 4.331E+06 3.738E+07 4.195E+07 4.195E+07 3.494E+07 40.7539 1.00000
  3.548E+13 3.548E+13 5.413E+00 2.754E+05 4.859E+06 4.291E+07 4.805E+07 4.805E+07 3.503E+07 40.9842 1.00000
  3.981E+13 3.981E+13 5.439E+00 3.090E+05 5.451E+06 4.927E+07 5.503E+07 5.503E+07 3.511E+07 41.2145 1.00000
  4.467E+13 4.467E+13 5.464E+00 3.467E+05 6.116E+06 5.658E+07 6.304E+07 6.304E+07 3.520E+07 41.4447 1.00000
  5.012E+13 5.012E+13 5.489E+00 3.890E+05 6.862E+06 6.497E+07 7.222E+07 7.222E+07 3.528E+07 41.6750 1.00000
  5.623E+13 5.623E+13 5.515E+00 4.365E+05 7.699E+06 7.460E+07 8.274E+07 8.274E+07 3.536E+07 41.9052 1.00000
  6.310E+13 6.310E+13 5.541E+00 4.897E+05 8.638E+06 8.567E+07 9.480E+07 9.480E+07 3.543E+07 42.1355 1.00000
  7.079E+13 7.079E+13 5.567E+00 5.495E+05 9.691E+06 9.839E+07 1.086E+08 1.086E+08 3.551E+07 42.3657 1.00000
  7.943E+13 7.943E+13 5.593E+00 6.166E+05 1.087E+07 1.130E+08 1.245E+08 1.245E+08 3.558E+07 42.5960 1.00000
  8.913E+13 8.913E+13 5.619E+00 6.918E+05 1.220E+07 1.298E+08 1.427E+08 1.427E+08 3.566E+07 42.8263 1.00000
