 Incident particle is a Tau with M = 1776.82000 MeV
 Index = 0: SiliconDioxide
      Absorber with <Z/A> = 0.49930
 Sternheimer coef:  a     k=m_s   x_0    x_1    I[eV]   Cbar  delta0
                 0.0841  3.5064  0.1500  3.0140  139.2  4.0560 0.00

 *** Table generated with PUMAS v1.00 ***

      T         p     Ionization  brems     pair     photonuc  Radloss    dE/dx   CSDA Range  delta   beta
    [MeV]    [MeV/c]  -----------------------[MeV cm^2/g]------------------------  [g/cm^2]
  1.000E+05 1.018E+05 2.140E+00 2.064E-04 3.246E-03 8.192E-03 1.164E-02 2.151E+00 2.324E+04  4.2267 0.99985
  1.122E+05 1.140E+05 2.159E+00 2.386E-04 3.907E-03 9.241E-03 1.339E-02 2.173E+00 2.889E+04  4.4287 0.99988
  1.259E+05 1.277E+05 2.179E+00 2.756E-04 4.686E-03 1.037E-02 1.533E-02 2.194E+00 3.516E+04  4.6335 0.99990
  1.413E+05 1.430E+05 2.198E+00 3.182E-04 5.603E-03 1.164E-02 1.756E-02 2.216E+00 4.212E+04  4.8409 0.99992
  1.585E+05 1.603E+05 2.218E+00 3.673E-04 6.680E-03 1.306E-02 2.010E-02 2.238E+00 4.986E+04  5.0507 0.99994
  1.778E+05 1.796E+05 2.237E+00 4.237E-04 7.943E-03 1.464E-02 2.301E-02 2.260E+00 5.846E+04  5.2627 0.99995
  1.995E+05 2.013E+05 2.256E+00 4.885E-04 9.420E-03 1.644E-02 2.635E-02 2.283E+00 6.801E+04  5.4767 0.99996
  2.239E+05 2.256E+05 2.275E+00 5.630E-04 1.115E-02 1.841E-02 3.012E-02 2.306E+00 7.863E+04  5.6927 0.99997
  2.512E+05 2.530E+05 2.294E+00 6.485E-04 1.316E-02 2.062E-02 3.442E-02 2.329E+00 9.042E+04  5.9105 0.99998
  2.818E+05 2.836E+05 2.313E+00 7.466E-04 1.550E-02 2.310E-02 3.934E-02 2.353E+00 1.035E+05  6.1299 0.99998
  3.162E+05 3.180E+05 2.332E+00 8.592E-04 1.821E-02 2.590E-02 4.498E-02 2.377E+00 1.181E+05  6.3508 0.99998
  3.548E+05 3.566E+05 2.351E+00 9.884E-04 2.136E-02 2.905E-02 5.140E-02 2.402E+00 1.342E+05  6.5730 0.99999
  3.981E+05 3.999E+05 2.369E+00 1.136E-03 2.501E-02 3.256E-02 5.870E-02 2.428E+00 1.521E+05  6.7964 0.99999
  4.467E+05 4.485E+05 2.388E+00 1.306E-03 2.923E-02 3.649E-02 6.702E-02 2.455E+00 1.720E+05  7.0210 0.99999
  5.012E+05 5.030E+05 2.406E+00 1.501E-03 3.410E-02 4.091E-02 7.650E-02 2.483E+00 1.941E+05  7.2465 0.99999
  5.623E+05 5.641E+05 2.424E+00 1.723E-03 3.971E-02 4.569E-02 8.713E-02 2.512E+00 2.186E+05  7.4729 1.00000
  6.310E+05 6.327E+05 2.443E+00 1.978E-03 4.618E-02 5.108E-02 9.924E-02 2.542E+00 2.457E+05  7.7001 1.00000
  7.079E+05 7.097E+05 2.461E+00 2.270E-03 5.361E-02 5.716E-02 1.130E-01 2.574E+00 2.758E+05  7.9279 1.00000
  7.943E+05 7.961E+05 2.479E+00 2.604E-03 6.215E-02 6.403E-02 1.288E-01 2.608E+00 3.092E+05  8.1562 1.00000
  8.913E+05 8.930E+05 2.497E+00 2.986E-03 7.195E-02 7.178E-02 1.467E-01 2.643E+00 3.461E+05  8.3850 1.00000
  1.000E+06 1.002E+06 2.514E+00 3.423E-03 8.318E-02 8.055E-02 1.672E-01 2.682E+00 3.870E+05  8.6142 1.00000
  1.122E+06 1.124E+06 2.532E+00 3.922E-03 9.604E-02 9.047E-02 1.904E-01 2.722E+00 4.321E+05  8.8437 1.00000
  1.259E+06 1.261E+06 2.550E+00 4.492E-03 1.107E-01 1.017E-01 2.169E-01 2.767E+00 4.820E+05  9.0733 1.00000
  1.413E+06 1.414E+06 2.567E+00 5.144E-03 1.275E-01 1.144E-01 2.471E-01 2.814E+00 5.371E+05  9.3032 1.00000
  1.585E+06 1.587E+06 2.584E+00 5.889E-03 1.467E-01 1.289E-01 2.814E-01 2.866E+00 5.978E+05  9.5331 1.00000
  1.778E+06 1.780E+06 2.602E+00 6.739E-03 1.685E-01 1.452E-01 3.205E-01 2.922E+00 6.646E+05  9.7631 1.00000
  1.995E+06 1.997E+06 2.619E+00 7.710E-03 1.934E-01 1.638E-01 3.649E-01 2.983E+00 7.381E+05  9.9932 1.00000
  2.239E+06 2.240E+06 2.635E+00 8.818E-03 2.217E-01 1.849E-01 4.154E-01 3.051E+00 8.188E+05 10.2233 1.00000
  2.512E+06 2.514E+06 2.652E+00 1.008E-02 2.539E-01 2.088E-01 4.728E-01 3.125E+00 9.073E+05 10.4533 1.00000
  2.818E+06 2.820E+06 2.669E+00 1.152E-02 2.905E-01 2.360E-01 5.381E-01 3.207E+00 1.004E+06 10.6834 1.00000
  3.162E+06 3.164E+06 2.685E+00 1.317E-02 3.320E-01 2.670E-01 6.122E-01 3.298E+00 1.110E+06 10.9136 1.00000
  3.548E+06 3.550E+06 2.702E+00 1.504E-02 3.791E-01 3.022E-01 6.963E-01 3.398E+00 1.225E+06 11.1437 1.00000
  3.981E+06 3.983E+06 2.718E+00 1.718E-02 4.325E-01 3.422E-01 7.919E-01 3.510E+00 1.351E+06 11.3739 1.00000
  4.467E+06 4.469E+06 2.734E+00 1.962E-02 4.929E-01 3.878E-01 9.003E-01 3.634E+00 1.487E+06 11.6040 1.00000
  5.012E+06 5.014E+06 2.750E+00 2.239E-02 5.613E-01 4.396E-01 1.023E+00 3.773E+00 1.634E+06 11.8342 1.00000
  5.623E+06 5.625E+06 2.766E+00 2.555E-02 6.387E-01 4.987E-01 1.163E+00 3.928E+00 1.793E+06 12.0644 1.00000
  6.310E+06 6.311E+06 2.781E+00 2.915E-02 7.262E-01 5.660E-01 1.321E+00 4.102E+00 1.964E+06 12.2946 1.00000
  7.079E+06 7.081E+06 2.796E+00 3.324E-02 8.251E-01 6.426E-01 1.501E+00 4.297E+00 2.147E+06 12.5248 1.00000
  7.943E+06 7.945E+06 2.812E+00 3.790E-02 9.367E-01 7.298E-01 1.704E+00 4.516E+00 2.343E+06 12.7550 1.00000
  8.913E+06 8.914E+06 2.827E+00 4.320E-02 1.063E+00 8.293E-01 1.935E+00 4.762E+00 2.552E+06 12.9852 1.00000
  1.000E+07 1.000E+07 2.842E+00 4.923E-02 1.205E+00 9.427E-01 2.197E+00 5.038E+00 2.774E+06 13.2154 1.00000
  1.122E+07 1.122E+07 2.856E+00 5.609E-02 1.365E+00 1.072E+00 2.493E+00 5.350E+00 3.009E+06 13.4456 1.00000
  1.259E+07 1.259E+07 2.871E+00 6.387E-02 1.546E+00 1.219E+00 2.829E+00 5.700E+00 3.258E+06 13.6758 1.00000
  1.413E+07 1.413E+07 2.886E+00 7.273E-02 1.749E+00 1.387E+00 3.209E+00 6.095E+00 3.518E+06 13.9061 1.00000
  1.585E+07 1.585E+07 2.900E+00 8.278E-02 1.979E+00 1.579E+00 3.640E+00 6.541E+00 3.791E+06 14.1363 1.00000
  1.778E+07 1.778E+07 2.914E+00 9.420E-02 2.237E+00 1.797E+00 4.129E+00 7.043E+00 4.077E+06 14.3665 1.00000
  1.995E+07 1.995E+07 2.929E+00 1.072E-01 2.528E+00 2.047E+00 4.682E+00 7.610E+00 4.373E+06 14.5968 1.00000
  2.239E+07 2.239E+07 2.943E+00 1.219E-01 2.855E+00 2.331E+00 5.308E+00 8.251E+00 4.681E+06 14.8270 1.00000
  2.512E+07 2.512E+07 2.957E+00 1.386E-01 3.223E+00 2.655E+00 6.017E+00 8.974E+00 4.998E+06 15.0572 1.00000
  2.818E+07 2.819E+07 2.971E+00 1.575E-01 3.637E+00 3.026E+00 6.820E+00 9.791E+00 5.326E+06 15.2875 1.00000
  3.162E+07 3.162E+07 2.985E+00 1.790E-01 4.103E+00 3.448E+00 7.730E+00 1.072E+01 5.662E+06 15.5177 1.00000
  3.548E+07 3.548E+07 2.999E+00 2.033E-01 4.627E+00 3.930E+00 8.760E+00 1.176E+01 6.006E+06 15.7480 1.00000
  3.981E+07 3.981E+07 3.013E+00 2.309E-01 5.215E+00 4.480E+00 9.927E+00 1.294E+01 6.357E+06 15.9782 1.00000
  4.467E+07 4.467E+07 3.027E+00 2.622E-01 5.877E+00 5.108E+00 1.125E+01 1.427E+01 6.715E+06 16.2085 1.00000
  5.012E+07 5.012E+07 3.041E+00 2.976E-01 6.620E+00 5.825E+00 1.274E+01 1.578E+01 7.079E+06 16.4387 1.00000
  5.623E+07 5.624E+07 3.054E+00 3.376E-01 7.456E+00 6.644E+00 1.444E+01 1.749E+01 7.447E+06 16.6690 1.00000
  6.310E+07 6.310E+07 3.068E+00 3.830E-01 8.394E+00 7.578E+00 1.636E+01 1.942E+01 7.820E+06 16.8992 1.00000
  7.079E+07 7.080E+07 3.082E+00 4.344E-01 9.449E+00 8.645E+00 1.853E+01 2.161E+01 8.196E+06 17.1295 1.00000
  7.943E+07 7.943E+07 3.096E+00 4.925E-01 1.063E+01 9.863E+00 2.099E+01 2.408E+01 8.575E+06 17.3597 1.00000
  8.913E+07 8.913E+07 3.110E+00 5.582E-01 1.196E+01 1.125E+01 2.377E+01 2.688E+01 8.957E+06 17.5900 1.00000
  1.000E+08 1.000E+08 3.124E+00 6.324E-01 1.346E+01 1.284E+01 2.693E+01 3.005E+01 9.340E+06 17.8202 1.00000
  1.122E+08 1.122E+08 3.138E+00 7.164E-01 1.513E+01 1.466E+01 3.051E+01 3.364E+01 9.724E+06 18.0505 1.00000
  1.259E+08 1.259E+08 3.152E+00 8.112E-01 1.702E+01 1.673E+01 3.455E+01 3.771E+01 1.011E+07 18.2807 1.00000
  1.413E+08 1.413E+08 3.166E+00 9.184E-01 1.913E+01 1.909E+01 3.914E+01 4.231E+01 1.049E+07 18.5110 1.00000
  1.585E+08 1.585E+08 3.180E+00 1.039E+00 2.150E+01 2.180E+01 4.434E+01 4.752E+01 1.088E+07 18.7413 1.00000
  1.778E+08 1.778E+08 3.194E+00 1.176E+00 2.417E+01 2.488E+01 5.023E+01 5.342E+01 1.126E+07 18.9715 1.00000
  1.995E+08 1.995E+08 3.208E+00 1.330E+00 2.716E+01 2.841E+01 5.690E+01 6.011E+01 1.165E+07 19.2018 1.00000
  2.239E+08 2.239E+08 3.223E+00 1.504E+00 3.051E+01 3.244E+01 6.446E+01 6.768E+01 1.203E+07 19.4320 1.00000
  2.512E+08 2.512E+08 3.237E+00 1.701E+00 3.428E+01 3.704E+01 7.303E+01 7.626E+01 1.241E+07 19.6623 1.00000
  2.818E+08 2.818E+08 3.251E+00 1.922E+00 3.851E+01 4.230E+01 8.274E+01 8.599E+01 1.279E+07 19.8925 1.00000
  3.162E+08 3.162E+08 3.266E+00 2.172E+00 4.326E+01 4.831E+01 9.374E+01 9.701E+01 1.317E+07 20.1228 1.00000
  3.548E+08 3.548E+08 3.280E+00 2.454E+00 4.859E+01 5.518E+01 1.062E+02 1.095E+02 1.354E+07 20.3531 1.00000
  3.981E+08 3.981E+08 3.295E+00 2.771E+00 5.456E+01 6.303E+01 1.204E+02 1.237E+02 1.392E+07 20.5833 1.00000
  4.467E+08 4.467E+08 3.309E+00 3.129E+00 6.127E+01 7.199E+01 1.364E+02 1.397E+02 1.429E+07 20.8136 1.00000
  5.012E+08 5.012E+08 3.324E+00 3.532E+00 6.880E+01 8.224E+01 1.546E+02 1.579E+02 1.465E+07 21.0438 1.00000
  5.623E+08 5.623E+08 3.339E+00 3.985E+00 7.725E+01 9.396E+01 1.752E+02 1.785E+02 1.502E+07 21.2741 1.00000
  6.310E+08 6.310E+08 3.354E+00 4.496E+00 8.674E+01 1.073E+02 1.986E+02 2.019E+02 1.538E+07 21.5043 1.00000
  7.079E+08 7.079E+08 3.368E+00 5.072E+00 9.738E+01 1.226E+02 2.251E+02 2.285E+02 1.574E+07 21.7346 1.00000
  7.943E+08 7.943E+08 3.383E+00 5.719E+00 1.093E+02 1.401E+02 2.552E+02 2.586E+02 1.610E+07 21.9649 1.00000
  8.913E+08 8.913E+08 3.398E+00 6.448E+00 1.227E+02 1.601E+02 2.893E+02 2.927E+02 1.645E+07 22.1951 1.00000
  1.000E+09 1.000E+09 3.414E+00 7.268E+00 1.378E+02 1.830E+02 3.280E+02 3.314E+02 1.680E+07 22.4254 1.00000
  1.122E+09 1.122E+09 3.429E+00 8.191E+00 1.546E+02 2.091E+02 3.719E+02 3.754E+02 1.714E+07 22.6556 1.00000
  1.259E+09 1.259E+09 3.444E+00 9.229E+00 1.736E+02 2.390E+02 4.218E+02 4.252E+02 1.749E+07 22.8859 1.00000
  1.413E+09 1.413E+09 3.460E+00 1.040E+01 1.948E+02 2.732E+02 4.784E+02 4.818E+02 1.783E+07 23.1161 1.00000
  1.585E+09 1.585E+09 3.475E+00 1.171E+01 2.186E+02 3.123E+02 5.426E+02 5.461E+02 1.816E+07 23.3464 1.00000
  1.778E+09 1.778E+09 3.491E+00 1.319E+01 2.454E+02 3.569E+02 6.155E+02 6.190E+02 1.850E+07 23.5767 1.00000
  1.995E+09 1.995E+09 3.506E+00 1.484E+01 2.754E+02 4.080E+02 6.983E+02 7.018E+02 1.883E+07 23.8069 1.00000
  2.239E+09 2.239E+09 3.522E+00 1.671E+01 3.091E+02 4.664E+02 7.922E+02 7.957E+02 1.915E+07 24.0372 1.00000
  2.512E+09 2.512E+09 3.538E+00 1.881E+01 3.469E+02 5.333E+02 8.989E+02 9.025E+02 1.948E+07 24.2674 1.00000
  2.818E+09 2.818E+09 3.554E+00 2.116E+01 3.892E+02 6.097E+02 1.020E+03 1.024E+03 1.980E+07 24.4977 1.00000
  3.162E+09 3.162E+09 3.570E+00 2.381E+01 4.368E+02 6.971E+02 1.158E+03 1.161E+03 2.011E+07 24.7280 1.00000
  3.548E+09 3.548E+09 3.586E+00 2.678E+01 4.902E+02 7.971E+02 1.314E+03 1.318E+03 2.043E+07 24.9582 1.00000
  3.981E+09 3.981E+09 3.602E+00 3.012E+01 5.501E+02 9.115E+02 1.492E+03 1.495E+03 2.073E+07 25.1885 1.00000
  4.467E+09 4.467E+09 3.618E+00 3.388E+01 6.173E+02 1.042E+03 1.694E+03 1.697E+03 2.104E+07 25.4187 1.00000
  5.012E+09 5.012E+09 3.634E+00 3.809E+01 6.927E+02 1.192E+03 1.923E+03 1.926E+03 2.134E+07 25.6490 1.00000
  5.623E+09 5.623E+09 3.651E+00 4.283E+01 7.773E+02 1.363E+03 2.183E+03 2.187E+03 2.164E+07 25.8792 1.00000
  6.310E+09 6.310E+09 3.667E+00 4.814E+01 8.722E+02 1.559E+03 2.480E+03 2.483E+03 2.194E+07 26.1095 1.00000
  7.079E+09 7.079E+09 3.684E+00 5.411E+01 9.787E+02 1.784E+03 2.816E+03 2.820E+03 2.223E+07 26.3398 1.00000
  7.943E+09 7.943E+09 3.701E+00 6.082E+01 1.098E+03 2.040E+03 3.199E+03 3.203E+03 2.252E+07 26.5700 1.00000
  8.913E+09 8.913E+09 3.718E+00 6.835E+01 1.232E+03 2.334E+03 3.634E+03 3.638E+03 2.280E+07 26.8003 1.00000
  1.000E+10 1.000E+10 3.734E+00 7.680E+01 1.383E+03 2.670E+03 4.129E+03 4.133E+03 2.308E+07 27.0305 1.00000
  1.122E+10 1.122E+10 3.751E+00 8.629E+01 1.551E+03 3.054E+03 4.692E+03 4.696E+03 2.336E+07 27.2608 1.00000
  1.259E+10 1.259E+10 3.768E+00 9.694E+01 1.741E+03 3.495E+03 5.332E+03 5.336E+03 2.363E+07 27.4911 1.00000
  1.413E+10 1.413E+10 3.786E+00 1.089E+02 1.953E+03 3.998E+03 6.061E+03 6.064E+03 2.390E+07 27.7213 1.00000
  1.585E+10 1.585E+10 3.803E+00 1.223E+02 2.192E+03 4.575E+03 6.889E+03 6.893E+03 2.417E+07 27.9516 1.00000
  1.778E+10 1.778E+10 3.820E+00 1.374E+02 2.459E+03 5.235E+03 7.832E+03 7.836E+03 2.443E+07 28.1818 1.00000
  1.995E+10 1.995E+10 3.838E+00 1.543E+02 2.759E+03 5.991E+03 8.905E+03 8.909E+03 2.469E+07 28.4121 1.00000
  2.239E+10 2.239E+10 3.855E+00 1.733E+02 3.096E+03 6.856E+03 1.013E+04 1.013E+04 2.495E+07 28.6424 1.00000
  2.512E+10 2.512E+10 3.873E+00 1.946E+02 3.474E+03 7.847E+03 1.152E+04 1.152E+04 2.520E+07 28.8726 1.00000
  2.818E+10 2.818E+10 3.891E+00 2.185E+02 3.898E+03 8.981E+03 1.310E+04 1.310E+04 2.545E+07 29.1029 1.00000
  3.162E+10 3.162E+10 3.909E+00 2.454E+02 4.373E+03 1.028E+04 1.490E+04 1.490E+04 2.570E+07 29.3331 1.00000
  3.548E+10 3.548E+10 3.927E+00 2.755E+02 4.907E+03 1.177E+04 1.695E+04 1.695E+04 2.594E+07 29.5634 1.00000
  3.981E+10 3.981E+10 3.945E+00 3.093E+02 5.506E+03 1.347E+04 1.928E+04 1.929E+04 2.618E+07 29.7936 1.00000
  4.467E+10 4.467E+10 3.963E+00 3.472E+02 6.178E+03 1.542E+04 2.194E+04 2.195E+04 2.642E+07 30.0239 1.00000
  5.012E+10 5.012E+10 3.981E+00 3.898E+02 6.931E+03 1.765E+04 2.497E+04 2.498E+04 2.665E+07 30.2542 1.00000
  5.623E+10 5.623E+10 4.000E+00 4.376E+02 7.777E+03 2.021E+04 2.842E+04 2.843E+04 2.688E+07 30.4844 1.00000
  6.310E+10 6.310E+10 4.018E+00 4.912E+02 8.726E+03 2.314E+04 3.236E+04 3.236E+04 2.711E+07 30.7147 1.00000
  7.079E+10 7.079E+10 4.037E+00 5.514E+02 9.790E+03 2.649E+04 3.684E+04 3.684E+04 2.733E+07 30.9449 1.00000
  7.943E+10 7.943E+10 4.056E+00 6.189E+02 1.098E+04 3.034E+04 4.194E+04 4.194E+04 2.755E+07 31.1752 1.00000
  8.913E+10 8.913E+10 4.074E+00 6.946E+02 1.232E+04 3.474E+04 4.776E+04 4.776E+04 2.777E+07 31.4055 1.00000
  1.000E+11 1.000E+11 4.093E+00 7.797E+02 1.383E+04 3.978E+04 5.439E+04 5.440E+04 2.799E+07 31.6357 1.00000
  1.122E+11 1.122E+11 4.112E+00 8.751E+02 1.552E+04 4.556E+04 6.195E+04 6.196E+04 2.820E+07 31.8660 1.00000
  1.259E+11 1.259E+11 4.131E+00 9.821E+02 1.741E+04 5.218E+04 7.057E+04 7.058E+04 2.840E+07 32.0962 1.00000
  1.413E+11 1.413E+11 4.151E+00 1.102E+03 1.953E+04 5.977E+04 8.040E+04 8.041E+04 2.861E+07 32.3265 1.00000
  1.585E+11 1.585E+11 4.170E+00 1.237E+03 2.191E+04 6.846E+04 9.161E+04 9.161E+04 2.881E+07 32.5567 1.00000
  1.778E+11 1.778E+11 4.189E+00 1.388E+03 2.459E+04 7.842E+04 1.044E+05 1.044E+05 2.901E+07 32.7870 1.00000
  1.995E+11 1.995E+11 4.209E+00 1.558E+03 2.759E+04 8.983E+04 1.190E+05 1.190E+05 2.920E+07 33.0173 1.00000
  2.239E+11 2.239E+11 4.229E+00 1.748E+03 3.095E+04 1.029E+05 1.356E+05 1.356E+05 2.939E+07 33.2475 1.00000
  2.512E+11 2.512E+11 4.248E+00 1.962E+03 3.473E+04 1.179E+05 1.546E+05 1.546E+05 2.958E+07 33.4778 1.00000
  2.818E+11 2.818E+11 4.268E+00 2.202E+03 3.897E+04 1.351E+05 1.762E+05 1.763E+05 2.977E+07 33.7080 1.00000
  3.162E+11 3.162E+11 4.288E+00 2.471E+03 4.372E+04 1.548E+05 2.010E+05 2.010E+05 2.995E+07 33.9383 1.00000
  3.548E+11 3.548E+11 4.309E+00 2.773E+03 4.905E+04 1.773E+05 2.292E+05 2.292E+05 3.013E+07 34.1686 1.00000
  3.981E+11 3.981E+11 4.329E+00 3.111E+03 5.504E+04 2.032E+05 2.614E+05 2.614E+05 3.031E+07 34.3988 1.00000
  4.467E+11 4.467E+11 4.349E+00 3.491E+03 6.175E+04 2.329E+05 2.981E+05 2.981E+05 3.048E+07 34.6291 1.00000
  5.012E+11 5.012E+11 4.370E+00 3.917E+03 6.928E+04 2.669E+05 3.401E+05 3.401E+05 3.066E+07 34.8593 1.00000
  5.623E+11 5.623E+11 4.390E+00 4.396E+03 7.773E+04 3.059E+05 3.880E+05 3.880E+05 3.082E+07 35.0896 1.00000
  6.310E+11 6.310E+11 4.411E+00 4.933E+03 8.721E+04 3.506E+05 4.427E+05 4.427E+05 3.099E+07 35.3198 1.00000
  7.079E+11 7.079E+11 4.432E+00 5.535E+03 9.785E+04 4.018E+05 5.052E+05 5.052E+05 3.115E+07 35.5501 1.00000
  7.943E+11 7.943E+11 4.453E+00 6.211E+03 1.098E+05 4.606E+05 5.766E+05 5.766E+05 3.131E+07 35.7804 1.00000
  8.913E+11 8.913E+11 4.474E+00 6.969E+03 1.232E+05 5.280E+05 6.581E+05 6.581E+05 3.147E+07 36.0106 1.00000
  1.000E+12 1.000E+12 4.495E+00 7.820E+03 1.382E+05 6.053E+05 7.513E+05 7.513E+05 3.163E+07 36.2409 1.00000
  1.122E+12 1.122E+12 4.516E+00 8.774E+03 1.551E+05 6.939E+05 8.577E+05 8.577E+05 3.178E+07 36.4711 1.00000
  1.259E+12 1.259E+12 4.537E+00 9.845E+03 1.740E+05 7.955E+05 9.793E+05 9.794E+05 3.193E+07 36.7014 1.00000
  1.413E+12 1.413E+12 4.559E+00 1.105E+04 1.952E+05 9.121E+05 1.118E+06 1.118E+06 3.208E+07 36.9317 1.00000
  1.585E+12 1.585E+12 4.581E+00 1.240E+04 2.190E+05 1.046E+06 1.277E+06 1.277E+06 3.222E+07 37.1619 1.00000
  1.778E+12 1.778E+12 4.602E+00 1.391E+04 2.457E+05 1.199E+06 1.459E+06 1.459E+06 3.236E+07 37.3922 1.00000
  1.995E+12 1.995E+12 4.624E+00 1.561E+04 2.757E+05 1.375E+06 1.666E+06 1.666E+06 3.250E+07 37.6224 1.00000
  2.239E+12 2.239E+12 4.646E+00 1.751E+04 3.093E+05 1.577E+06 1.904E+06 1.904E+06 3.264E+07 37.8527 1.00000
  2.512E+12 2.512E+12 4.668E+00 1.965E+04 3.470E+05 1.809E+06 2.175E+06 2.175E+06 3.277E+07 38.0829 1.00000
  2.818E+12 2.818E+12 4.691E+00 2.204E+04 3.894E+05 2.074E+06 2.486E+06 2.486E+06 3.291E+07 38.3132 1.00000
  3.162E+12 3.162E+12 4.713E+00 2.474E+04 4.369E+05 2.379E+06 2.841E+06 2.841E+06 3.304E+07 38.5435 1.00000
  3.548E+12 3.548E+12 4.735E+00 2.775E+04 4.902E+05 2.729E+06 3.247E+06 3.247E+06 3.316E+07 38.7737 1.00000
  3.981E+12 3.981E+12 4.758E+00 3.114E+04 5.499E+05 3.130E+06 3.711E+06 3.711E+06 3.329E+07 39.0040 1.00000
  4.467E+12 4.467E+12 4.781E+00 3.494E+04 6.170E+05 3.591E+06 4.243E+06 4.243E+06 3.341E+07 39.2342 1.00000
  5.012E+12 5.012E+12 4.804E+00 3.920E+04 6.923E+05 4.119E+06 4.850E+06 4.850E+06 3.353E+07 39.4645 1.00000
  5.623E+12 5.623E+12 4.827E+00 4.399E+04 7.767E+05 4.725E+06 5.546E+06 5.546E+06 3.365E+07 39.6948 1.00000
  6.310E+12 6.310E+12 4.850E+00 4.936E+04 8.714E+05 5.421E+06 6.342E+06 6.342E+06 3.376E+07 39.9250 1.00000
  7.079E+12 7.079E+12 4.873E+00 5.538E+04 9.777E+05 6.220E+06 7.253E+06 7.253E+06 3.388E+07 40.1553 1.00000
  7.943E+12 7.943E+12 4.896E+00 6.214E+04 1.097E+06 7.137E+06 8.296E+06 8.296E+06 3.399E+07 40.3855 1.00000
  8.913E+12 8.913E+12 4.920E+00 6.972E+04 1.231E+06 8.190E+06 9.490E+06 9.490E+06 3.410E+07 40.6158 1.00000
  1.000E+13 1.000E+13 4.943E+00 7.823E+04 1.381E+06 9.398E+06 1.086E+07 1.086E+07 3.421E+07 40.8461 1.00000
  1.122E+13 1.122E+13 4.967E+00 8.777E+04 1.549E+06 1.078E+07 1.242E+07 1.242E+07 3.431E+07 41.0763 1.00000
  1.259E+13 1.259E+13 4.991E+00 9.848E+04 1.738E+06 1.238E+07 1.421E+07 1.421E+07 3.442E+07 41.3066 1.00000
  1.413E+13 1.413E+13 5.015E+00 1.105E+05 1.950E+06 1.420E+07 1.627E+07 1.627E+07 3.452E+07 41.5368 1.00000
  1.585E+13 1.585E+13 5.039E+00 1.240E+05 2.188E+06 1.630E+07 1.862E+07 1.862E+07 3.462E+07 41.7671 1.00000
  1.778E+13 1.778E+13 5.063E+00 1.391E+05 2.455E+06 1.871E+07 2.131E+07 2.131E+07 3.471E+07 41.9973 1.00000
  1.995E+13 1.995E+13 5.088E+00 1.561E+05 2.754E+06 2.148E+07 2.439E+07 2.439E+07 3.481E+07 42.2276 1.00000
  2.239E+13 2.239E+13 5.112E+00 1.751E+05 3.090E+06 2.466E+07 2.792E+07 2.792E+07 3.490E+07 42.4579 1.00000
  2.512E+13 2.512E+13 5.137E+00 1.965E+05 3.467E+06 2.831E+07 3.197E+07 3.197E+07 3.499E+07 42.6881 1.00000
  2.818E+13 2.818E+13 5.162E+00 2.205E+05 3.890E+06 3.249E+07 3.661E+07 3.661E+07 3.508E+07 42.9184 1.00000
  3.162E+13 3.162E+13 5.187E+00 2.474E+05 4.364E+06 3.731E+07 4.192E+07 4.192E+07 3.517E+07 43.1486 1.00000
  3.548E+13 3.548E+13 5.212E+00 2.776E+05 4.897E+06 4.283E+07 4.801E+07 4.801E+07 3.526E+07 43.3789 1.00000
  3.981E+13 3.981E+13 5.237E+00 3.114E+05 5.494E+06 4.918E+07 5.498E+07 5.498E+07 3.534E+07 43.6092 1.00000
  4.467E+13 4.467E+13 5.262E+00 3.494E+05 6.164E+06 5.647E+07 6.298E+07 6.298E+07 3.543E+07 43.8394 1.00000
  5.012E+13 5.012E+13 5.288E+00 3.921E+05 6.916E+06 6.484E+07 7.215E+07 7.215E+07 3.551E+07 44.0697 1.00000
  5.623E+13 5.623E+13 5.313E+00 4.399E+05 7.759E+06 7.446E+07 8.266E+07 8.266E+07 3.559E+07 44.2999 1.00000
  6.310E+13 6.310E+13 5.339E+00 4.936E+05 8.705E+06 8.551E+07 9.471E+07 9.471E+07 3.566E+07 44.5302 1.00000
  7.079E+13 7.079E+13 5.365E+00 5.538E+05 9.767E+06 9.821E+07 1.085E+08 1.085E+08 3.574E+07 44.7604 1.00000
  7.943E+13 7.943E+13 5.391E+00 6.214E+05 1.096E+07 1.128E+08 1.244E+08 1.244E+08 3.581E+07 44.9907 1.00000
  8.913E+13 8.913E+13 5.417E+00 6.972E+05 1.229E+07 1.295E+08 1.425E+08 1.425E+08 3.589E+07 45.2210 1.00000
