 Incident particle is a Tau with M = 1776.82000 MeV
 Index = 0: Silver
      Absorber with <Z/A> = 0.43572
 Sternheimer coef:  a     k=m_s   x_0    x_1    I[eV]   Cbar  delta0
                 0.2458  2.6899  0.0657  3.1074  470.0  5.0630 0.14

 *** Table generated with PUMAS v1.00 ***

      T         p     Ionization  brems     pair     photonuc  Radloss    dE/dx   CSDA Range  delta   beta
    [MeV]    [MeV/c]  -----------------------[MeV cm^2/g]------------------------  [g/cm^2]
  1.000E+05 1.018E+05 1.747E+00 6.943E-04 1.186E-02 7.720E-03 2.027E-02 1.768E+00 2.829E+04  3.5830 0.99985
  1.122E+05 1.140E+05 1.766E+00 8.044E-04 1.420E-02 8.676E-03 2.369E-02 1.790E+00 3.515E+04  3.7572 0.99988
  1.259E+05 1.277E+05 1.785E+00 9.314E-04 1.697E-02 9.700E-03 2.760E-02 1.813E+00 4.275E+04  3.9350 0.99990
  1.413E+05 1.430E+05 1.804E+00 1.078E-03 2.021E-02 1.085E-02 3.214E-02 1.836E+00 5.117E+04  4.1162 0.99992
  1.585E+05 1.603E+05 1.823E+00 1.247E-03 2.402E-02 1.212E-02 3.739E-02 1.860E+00 6.049E+04  4.3007 0.99994
  1.778E+05 1.796E+05 1.841E+00 1.441E-03 2.846E-02 1.354E-02 4.345E-02 1.885E+00 7.082E+04  4.4885 0.99995
  1.995E+05 2.013E+05 1.860E+00 1.665E-03 3.366E-02 1.516E-02 5.048E-02 1.910E+00 8.226E+04  4.6795 0.99996
  2.239E+05 2.256E+05 1.878E+00 1.922E-03 3.971E-02 1.691E-02 5.854E-02 1.936E+00 9.492E+04  4.8735 0.99997
  2.512E+05 2.530E+05 1.896E+00 2.218E-03 4.674E-02 1.887E-02 6.782E-02 1.963E+00 1.089E+05  5.0704 0.99998
  2.818E+05 2.836E+05 1.913E+00 2.558E-03 5.490E-02 2.106E-02 7.852E-02 1.992E+00 1.244E+05  5.2701 0.99998
  3.162E+05 3.180E+05 1.931E+00 2.949E-03 6.436E-02 2.354E-02 9.084E-02 2.022E+00 1.416E+05  5.4725 0.99998
  3.548E+05 3.566E+05 1.949E+00 3.397E-03 7.530E-02 2.630E-02 1.050E-01 2.054E+00 1.605E+05  5.6776 0.99999
  3.981E+05 3.999E+05 1.966E+00 3.912E-03 8.793E-02 2.937E-02 1.212E-01 2.087E+00 1.814E+05  5.8851 0.99999
  4.467E+05 4.485E+05 1.983E+00 4.503E-03 1.025E-01 3.281E-02 1.398E-01 2.123E+00 2.045E+05  6.0951 0.99999
  5.012E+05 5.030E+05 2.000E+00 5.180E-03 1.193E-01 3.666E-02 1.611E-01 2.161E+00 2.299E+05  6.3073 0.99999
  5.623E+05 5.641E+05 2.017E+00 5.956E-03 1.386E-01 4.082E-02 1.854E-01 2.202E+00 2.580E+05  6.5217 1.00000
  6.310E+05 6.327E+05 2.033E+00 6.844E-03 1.607E-01 4.549E-02 2.131E-01 2.246E+00 2.888E+05  6.7381 1.00000
  7.079E+05 7.097E+05 2.050E+00 7.862E-03 1.861E-01 5.075E-02 2.448E-01 2.294E+00 3.227E+05  6.9564 1.00000
  7.943E+05 7.961E+05 2.066E+00 9.027E-03 2.153E-01 5.668E-02 2.810E-01 2.347E+00 3.600E+05  7.1766 1.00000
  8.913E+05 8.930E+05 2.082E+00 1.036E-02 2.486E-01 6.336E-02 3.223E-01 2.404E+00 4.008E+05  7.3984 1.00000
  1.000E+06 1.002E+06 2.098E+00 1.188E-02 2.866E-01 7.090E-02 3.694E-01 2.467E+00 4.454E+05  7.6217 1.00000
  1.122E+06 1.124E+06 2.113E+00 1.363E-02 3.301E-01 7.942E-02 4.231E-01 2.537E+00 4.942E+05  7.8465 1.00000
  1.259E+06 1.261E+06 2.129E+00 1.562E-02 3.797E-01 8.906E-02 4.843E-01 2.613E+00 5.474E+05  8.0725 1.00000
  1.413E+06 1.414E+06 2.144E+00 1.789E-02 4.361E-01 9.996E-02 5.540E-01 2.698E+00 6.053E+05  8.2997 1.00000
  1.585E+06 1.587E+06 2.160E+00 2.049E-02 5.004E-01 1.123E-01 6.332E-01 2.793E+00 6.680E+05  8.5278 1.00000
  1.778E+06 1.780E+06 2.175E+00 2.346E-02 5.734E-01 1.263E-01 7.232E-01 2.898E+00 7.360E+05  8.7567 1.00000
  1.995E+06 1.997E+06 2.190E+00 2.684E-02 6.564E-01 1.422E-01 8.254E-01 3.015E+00 8.095E+05  8.9863 1.00000
  2.239E+06 2.240E+06 2.204E+00 3.070E-02 7.506E-01 1.602E-01 9.415E-01 3.146E+00 8.885E+05  9.2163 1.00000
  2.512E+06 2.514E+06 2.219E+00 3.510E-02 8.575E-01 1.806E-01 1.073E+00 3.292E+00 9.734E+05  9.4463 1.00000
  2.818E+06 2.820E+06 2.234E+00 4.012E-02 9.786E-01 2.038E-01 1.222E+00 3.456E+00 1.064E+06  9.6764 1.00000
  3.162E+06 3.164E+06 2.248E+00 4.584E-02 1.116E+00 2.302E-01 1.392E+00 3.640E+00 1.161E+06  9.9066 1.00000
  3.548E+06 3.550E+06 2.262E+00 5.236E-02 1.271E+00 2.601E-01 1.583E+00 3.846E+00 1.264E+06 10.1367 1.00000
  3.981E+06 3.983E+06 2.276E+00 5.979E-02 1.446E+00 2.942E-01 1.800E+00 4.077E+00 1.374E+06 10.3669 1.00000
  4.467E+06 4.469E+06 2.290E+00 6.824E-02 1.645E+00 3.330E-01 2.046E+00 4.336E+00 1.489E+06 10.5970 1.00000
  5.012E+06 5.014E+06 2.304E+00 7.786E-02 1.869E+00 3.771E-01 2.324E+00 4.628E+00 1.611E+06 10.8272 1.00000
  5.623E+06 5.625E+06 2.318E+00 8.880E-02 2.122E+00 4.273E-01 2.638E+00 4.956E+00 1.739E+06 11.0574 1.00000
  6.310E+06 6.311E+06 2.331E+00 1.013E-01 2.407E+00 4.845E-01 2.993E+00 5.324E+00 1.873E+06 11.2876 1.00000
  7.079E+06 7.081E+06 2.345E+00 1.154E-01 2.729E+00 5.495E-01 3.394E+00 5.739E+00 2.012E+06 11.5178 1.00000
  7.943E+06 7.945E+06 2.358E+00 1.315E-01 3.092E+00 6.237E-01 3.848E+00 6.206E+00 2.157E+06 11.7480 1.00000
  8.913E+06 8.914E+06 2.371E+00 1.498E-01 3.502E+00 7.082E-01 4.360E+00 6.731E+00 2.307E+06 11.9782 1.00000
  1.000E+07 1.000E+07 2.384E+00 1.706E-01 3.963E+00 8.044E-01 4.938E+00 7.322E+00 2.462E+06 12.2084 1.00000
  1.122E+07 1.122E+07 2.397E+00 1.942E-01 4.482E+00 9.141E-01 5.590E+00 7.987E+00 2.622E+06 12.4386 1.00000
  1.259E+07 1.259E+07 2.410E+00 2.210E-01 5.066E+00 1.039E+00 6.326E+00 8.736E+00 2.786E+06 12.6688 1.00000
  1.413E+07 1.413E+07 2.423E+00 2.514E-01 5.724E+00 1.182E+00 7.157E+00 9.580E+00 2.954E+06 12.8991 1.00000
  1.585E+07 1.585E+07 2.435E+00 2.858E-01 6.464E+00 1.344E+00 8.094E+00 1.053E+01 3.126E+06 13.1293 1.00000
  1.778E+07 1.778E+07 2.448E+00 3.250E-01 7.297E+00 1.530E+00 9.152E+00 1.160E+01 3.301E+06 13.3595 1.00000
  1.995E+07 1.995E+07 2.460E+00 3.693E-01 8.233E+00 1.741E+00 1.034E+01 1.280E+01 3.479E+06 13.5898 1.00000
  2.239E+07 2.239E+07 2.473E+00 4.196E-01 9.286E+00 1.983E+00 1.169E+01 1.416E+01 3.660E+06 13.8200 1.00000
  2.512E+07 2.512E+07 2.485E+00 4.766E-01 1.047E+01 2.258E+00 1.320E+01 1.569E+01 3.844E+06 14.0502 1.00000
  2.818E+07 2.819E+07 2.497E+00 5.411E-01 1.180E+01 2.572E+00 1.491E+01 1.741E+01 4.029E+06 14.2805 1.00000
  3.162E+07 3.162E+07 2.509E+00 6.142E-01 1.330E+01 2.930E+00 1.684E+01 1.935E+01 4.217E+06 14.5107 1.00000
  3.548E+07 3.548E+07 2.522E+00 6.969E-01 1.498E+01 3.339E+00 1.901E+01 2.153E+01 4.406E+06 14.7410 1.00000
  3.981E+07 3.981E+07 2.534E+00 7.906E-01 1.686E+01 3.806E+00 2.146E+01 2.399E+01 4.597E+06 14.9712 1.00000
  4.467E+07 4.467E+07 2.546E+00 8.965E-01 1.899E+01 4.339E+00 2.422E+01 2.677E+01 4.789E+06 15.2015 1.00000
  5.012E+07 5.012E+07 2.558E+00 1.016E+00 2.137E+01 4.947E+00 2.733E+01 2.989E+01 4.982E+06 15.4317 1.00000
  5.623E+07 5.624E+07 2.570E+00 1.152E+00 2.404E+01 5.641E+00 3.084E+01 3.341E+01 5.176E+06 15.6620 1.00000
  6.310E+07 6.310E+07 2.582E+00 1.305E+00 2.705E+01 6.433E+00 3.479E+01 3.737E+01 5.370E+06 15.8922 1.00000
  7.079E+07 7.080E+07 2.594E+00 1.478E+00 3.042E+01 7.338E+00 3.924E+01 4.183E+01 5.565E+06 16.1225 1.00000
  7.943E+07 7.943E+07 2.606E+00 1.674E+00 3.421E+01 8.371E+00 4.425E+01 4.686E+01 5.761E+06 16.3527 1.00000
  8.913E+07 8.913E+07 2.619E+00 1.894E+00 3.846E+01 9.551E+00 4.991E+01 5.253E+01 5.956E+06 16.5830 1.00000
  1.000E+08 1.000E+08 2.631E+00 2.144E+00 4.324E+01 1.090E+01 5.628E+01 5.891E+01 6.152E+06 16.8132 1.00000
  1.122E+08 1.122E+08 2.643E+00 2.425E+00 4.860E+01 1.244E+01 6.346E+01 6.610E+01 6.348E+06 17.0435 1.00000
  1.259E+08 1.259E+08 2.655E+00 2.742E+00 5.462E+01 1.419E+01 7.155E+01 7.421E+01 6.544E+06 17.2737 1.00000
  1.413E+08 1.413E+08 2.667E+00 3.101E+00 6.137E+01 1.620E+01 8.067E+01 8.334E+01 6.740E+06 17.5040 1.00000
  1.585E+08 1.585E+08 2.680E+00 3.504E+00 6.896E+01 1.849E+01 9.095E+01 9.363E+01 6.935E+06 17.7343 1.00000
  1.778E+08 1.778E+08 2.692E+00 3.960E+00 7.747E+01 2.111E+01 1.025E+02 1.052E+02 7.130E+06 17.9645 1.00000
  1.995E+08 1.995E+08 2.704E+00 4.473E+00 8.702E+01 2.410E+01 1.156E+02 1.183E+02 7.325E+06 18.1948 1.00000
  2.239E+08 2.239E+08 2.717E+00 5.052E+00 9.774E+01 2.752E+01 1.303E+02 1.330E+02 7.519E+06 18.4250 1.00000
  2.512E+08 2.512E+08 2.729E+00 5.703E+00 1.098E+02 3.142E+01 1.469E+02 1.496E+02 7.713E+06 18.6553 1.00000
  2.818E+08 2.818E+08 2.742E+00 6.437E+00 1.233E+02 3.588E+01 1.656E+02 1.683E+02 7.907E+06 18.8855 1.00000
  3.162E+08 3.162E+08 2.754E+00 7.264E+00 1.384E+02 4.098E+01 1.867E+02 1.894E+02 8.100E+06 19.1158 1.00000
  3.548E+08 3.548E+08 2.767E+00 8.195E+00 1.554E+02 4.680E+01 2.104E+02 2.132E+02 8.292E+06 19.3461 1.00000
  3.981E+08 3.981E+08 2.780E+00 9.243E+00 1.745E+02 5.345E+01 2.372E+02 2.400E+02 8.484E+06 19.5763 1.00000
  4.467E+08 4.467E+08 2.792E+00 1.042E+01 1.959E+02 6.106E+01 2.674E+02 2.702E+02 8.675E+06 19.8066 1.00000
  5.012E+08 5.012E+08 2.805E+00 1.175E+01 2.200E+02 6.975E+01 3.015E+02 3.043E+02 8.865E+06 20.0368 1.00000
  5.623E+08 5.623E+08 2.818E+00 1.324E+01 2.470E+02 7.968E+01 3.399E+02 3.427E+02 9.055E+06 20.2671 1.00000
  6.310E+08 6.310E+08 2.831E+00 1.492E+01 2.772E+02 9.103E+01 3.832E+02 3.860E+02 9.244E+06 20.4973 1.00000
  7.079E+08 7.079E+08 2.844E+00 1.681E+01 3.112E+02 1.040E+02 4.320E+02 4.348E+02 9.432E+06 20.7276 1.00000
  7.943E+08 7.943E+08 2.857E+00 1.893E+01 3.493E+02 1.188E+02 4.871E+02 4.899E+02 9.620E+06 20.9579 1.00000
  8.913E+08 8.913E+08 2.870E+00 2.132E+01 3.921E+02 1.358E+02 5.492E+02 5.520E+02 9.806E+06 21.1881 1.00000
  1.000E+09 1.000E+09 2.883E+00 2.400E+01 4.400E+02 1.552E+02 6.192E+02 6.221E+02 9.992E+06 21.4184 1.00000
  1.122E+09 1.122E+09 2.897E+00 2.702E+01 4.939E+02 1.773E+02 6.982E+02 7.011E+02 1.018E+07 21.6486 1.00000
  1.259E+09 1.259E+09 2.910E+00 3.041E+01 5.543E+02 2.027E+02 7.874E+02 7.903E+02 1.036E+07 21.8789 1.00000
  1.413E+09 1.413E+09 2.924E+00 3.422E+01 6.221E+02 2.317E+02 8.880E+02 8.909E+02 1.054E+07 22.1091 1.00000
  1.585E+09 1.585E+09 2.937E+00 3.850E+01 6.981E+02 2.648E+02 1.001E+03 1.004E+03 1.073E+07 22.3394 1.00000
  1.778E+09 1.778E+09 2.951E+00 4.330E+01 7.835E+02 3.027E+02 1.129E+03 1.132E+03 1.091E+07 22.5697 1.00000
  1.995E+09 1.995E+09 2.964E+00 4.871E+01 8.792E+02 3.460E+02 1.274E+03 1.277E+03 1.109E+07 22.7999 1.00000
  2.239E+09 2.239E+09 2.978E+00 5.477E+01 9.867E+02 3.955E+02 1.437E+03 1.440E+03 1.127E+07 23.0302 1.00000
  2.512E+09 2.512E+09 2.992E+00 6.159E+01 1.107E+03 4.522E+02 1.621E+03 1.624E+03 1.145E+07 23.2604 1.00000
  2.818E+09 2.818E+09 3.006E+00 6.924E+01 1.243E+03 5.170E+02 1.829E+03 1.832E+03 1.163E+07 23.4907 1.00000
  3.162E+09 3.162E+09 3.020E+00 7.783E+01 1.394E+03 5.911E+02 2.063E+03 2.066E+03 1.180E+07 23.7210 1.00000
  3.548E+09 3.548E+09 3.034E+00 8.748E+01 1.565E+03 6.759E+02 2.328E+03 2.331E+03 1.198E+07 23.9512 1.00000
  3.981E+09 3.981E+09 3.048E+00 9.831E+01 1.756E+03 7.729E+02 2.627E+03 2.630E+03 1.216E+07 24.1815 1.00000
  4.467E+09 4.467E+09 3.062E+00 1.105E+02 1.970E+03 8.839E+02 2.964E+03 2.967E+03 1.233E+07 24.4117 1.00000
  5.012E+09 5.012E+09 3.076E+00 1.241E+02 2.211E+03 1.011E+03 3.346E+03 3.349E+03 1.250E+07 24.6420 1.00000
  5.623E+09 5.623E+09 3.090E+00 1.395E+02 2.480E+03 1.156E+03 3.776E+03 3.779E+03 1.267E+07 24.8722 1.00000
  6.310E+09 6.310E+09 3.105E+00 1.567E+02 2.783E+03 1.322E+03 4.262E+03 4.265E+03 1.285E+07 25.1025 1.00000
  7.079E+09 7.079E+09 3.119E+00 1.760E+02 3.123E+03 1.512E+03 4.812E+03 4.815E+03 1.302E+07 25.3328 1.00000
  7.943E+09 7.943E+09 3.134E+00 1.977E+02 3.504E+03 1.730E+03 5.432E+03 5.435E+03 1.319E+07 25.5630 1.00000
  8.913E+09 8.913E+09 3.149E+00 2.220E+02 3.932E+03 1.979E+03 6.133E+03 6.136E+03 1.335E+07 25.7933 1.00000
  1.000E+10 1.000E+10 3.163E+00 2.493E+02 4.412E+03 2.264E+03 6.925E+03 6.928E+03 1.352E+07 26.0235 1.00000
  1.122E+10 1.122E+10 3.178E+00 2.800E+02 4.951E+03 2.590E+03 7.821E+03 7.824E+03 1.369E+07 26.2538 1.00000
  1.259E+10 1.259E+10 3.193E+00 3.144E+02 5.555E+03 2.963E+03 8.832E+03 8.836E+03 1.385E+07 26.4841 1.00000
  1.413E+10 1.413E+10 3.208E+00 3.530E+02 6.233E+03 3.391E+03 9.976E+03 9.979E+03 1.402E+07 26.7143 1.00000
  1.585E+10 1.585E+10 3.223E+00 3.963E+02 6.993E+03 3.880E+03 1.127E+04 1.127E+04 1.418E+07 26.9446 1.00000
  1.778E+10 1.778E+10 3.238E+00 4.450E+02 7.847E+03 4.439E+03 1.273E+04 1.273E+04 1.434E+07 27.1748 1.00000
  1.995E+10 1.995E+10 3.254E+00 4.996E+02 8.804E+03 5.080E+03 1.438E+04 1.439E+04 1.450E+07 27.4051 1.00000
  2.239E+10 2.239E+10 3.269E+00 5.608E+02 9.878E+03 5.814E+03 1.625E+04 1.626E+04 1.466E+07 27.6354 1.00000
  2.512E+10 2.512E+10 3.284E+00 6.296E+02 1.108E+04 6.654E+03 1.837E+04 1.837E+04 1.482E+07 27.8656 1.00000
  2.818E+10 2.818E+10 3.300E+00 7.067E+02 1.244E+04 7.615E+03 2.076E+04 2.076E+04 1.498E+07 28.0959 1.00000
  3.162E+10 3.162E+10 3.316E+00 7.932E+02 1.395E+04 8.716E+03 2.346E+04 2.347E+04 1.513E+07 28.3261 1.00000
  3.548E+10 3.548E+10 3.331E+00 8.904E+02 1.566E+04 9.977E+03 2.652E+04 2.653E+04 1.529E+07 28.5564 1.00000
  3.981E+10 3.981E+10 3.347E+00 9.994E+02 1.757E+04 1.142E+04 2.999E+04 2.999E+04 1.544E+07 28.7866 1.00000
  4.467E+10 4.467E+10 3.363E+00 1.122E+03 1.971E+04 1.307E+04 3.391E+04 3.391E+04 1.559E+07 29.0169 1.00000
  5.012E+10 5.012E+10 3.379E+00 1.259E+03 2.211E+04 1.497E+04 3.834E+04 3.834E+04 1.574E+07 29.2472 1.00000
  5.623E+10 5.623E+10 3.395E+00 1.413E+03 2.481E+04 1.714E+04 4.336E+04 4.336E+04 1.589E+07 29.4774 1.00000
  6.310E+10 6.310E+10 3.411E+00 1.586E+03 2.784E+04 1.962E+04 4.904E+04 4.905E+04 1.604E+07 29.7077 1.00000
  7.079E+10 7.079E+10 3.427E+00 1.780E+03 3.124E+04 2.247E+04 5.548E+04 5.548E+04 1.619E+07 29.9379 1.00000
  7.943E+10 7.943E+10 3.444E+00 1.997E+03 3.505E+04 2.572E+04 6.277E+04 6.277E+04 1.634E+07 30.1682 1.00000
  8.913E+10 8.913E+10 3.460E+00 2.241E+03 3.932E+04 2.946E+04 7.102E+04 7.102E+04 1.648E+07 30.3985 1.00000
  1.000E+11 1.000E+11 3.477E+00 2.515E+03 4.412E+04 3.373E+04 8.037E+04 8.037E+04 1.663E+07 30.6287 1.00000
  1.122E+11 1.122E+11 3.493E+00 2.823E+03 4.950E+04 3.863E+04 9.096E+04 9.096E+04 1.677E+07 30.8590 1.00000
  1.259E+11 1.259E+11 3.510E+00 3.167E+03 5.554E+04 4.425E+04 1.030E+05 1.030E+05 1.691E+07 31.0892 1.00000
  1.413E+11 1.413E+11 3.527E+00 3.554E+03 6.231E+04 5.068E+04 1.165E+05 1.166E+05 1.705E+07 31.3195 1.00000
  1.585E+11 1.585E+11 3.544E+00 3.988E+03 6.992E+04 5.805E+04 1.320E+05 1.320E+05 1.719E+07 31.5497 1.00000
  1.778E+11 1.778E+11 3.561E+00 4.476E+03 7.845E+04 6.649E+04 1.494E+05 1.494E+05 1.733E+07 31.7800 1.00000
  1.995E+11 1.995E+11 3.578E+00 5.022E+03 8.801E+04 7.617E+04 1.692E+05 1.692E+05 1.747E+07 32.0103 1.00000
  2.239E+11 2.239E+11 3.595E+00 5.635E+03 9.875E+04 8.726E+04 1.917E+05 1.917E+05 1.760E+07 32.2405 1.00000
  2.512E+11 2.512E+11 3.612E+00 6.324E+03 1.108E+05 9.997E+04 2.171E+05 2.171E+05 1.774E+07 32.4708 1.00000
  2.818E+11 2.818E+11 3.629E+00 7.096E+03 1.243E+05 1.145E+05 2.460E+05 2.460E+05 1.787E+07 32.7010 1.00000
  3.162E+11 3.162E+11 3.647E+00 7.962E+03 1.395E+05 1.312E+05 2.787E+05 2.787E+05 1.800E+07 32.9313 1.00000
  3.548E+11 3.548E+11 3.664E+00 8.934E+03 1.565E+05 1.504E+05 3.158E+05 3.158E+05 1.813E+07 33.1616 1.00000
  3.981E+11 3.981E+11 3.682E+00 1.002E+04 1.756E+05 1.723E+05 3.579E+05 3.579E+05 1.826E+07 33.3918 1.00000
  4.467E+11 4.467E+11 3.700E+00 1.125E+04 1.970E+05 1.975E+05 4.057E+05 4.057E+05 1.839E+07 33.6221 1.00000
  5.012E+11 5.012E+11 3.718E+00 1.262E+04 2.210E+05 2.263E+05 4.600E+05 4.600E+05 1.851E+07 33.8523 1.00000
  5.623E+11 5.623E+11 3.736E+00 1.416E+04 2.480E+05 2.594E+05 5.215E+05 5.215E+05 1.864E+07 34.0826 1.00000
  6.310E+11 6.310E+11 3.754E+00 1.589E+04 2.782E+05 2.973E+05 5.914E+05 5.914E+05 1.876E+07 34.3128 1.00000
  7.079E+11 7.079E+11 3.772E+00 1.783E+04 3.122E+05 3.407E+05 6.707E+05 6.707E+05 1.889E+07 34.5431 1.00000
  7.943E+11 7.943E+11 3.790E+00 2.001E+04 3.503E+05 3.906E+05 7.608E+05 7.608E+05 1.901E+07 34.7734 1.00000
  8.913E+11 8.913E+11 3.808E+00 2.245E+04 3.930E+05 4.477E+05 8.631E+05 8.631E+05 1.913E+07 35.0036 1.00000
  1.000E+12 1.000E+12 3.827E+00 2.519E+04 4.409E+05 5.132E+05 9.793E+05 9.793E+05 1.925E+07 35.2339 1.00000
  1.122E+12 1.122E+12 3.845E+00 2.826E+04 4.947E+05 5.884E+05 1.111E+06 1.111E+06 1.936E+07 35.4641 1.00000
  1.259E+12 1.259E+12 3.864E+00 3.171E+04 5.550E+05 6.746E+05 1.261E+06 1.261E+06 1.948E+07 35.6944 1.00000
  1.413E+12 1.413E+12 3.883E+00 3.558E+04 6.227E+05 7.734E+05 1.432E+06 1.432E+06 1.959E+07 35.9247 1.00000
  1.585E+12 1.585E+12 3.902E+00 3.992E+04 6.987E+05 8.868E+05 1.625E+06 1.625E+06 1.971E+07 36.1549 1.00000
  1.778E+12 1.778E+12 3.921E+00 4.480E+04 7.839E+05 1.017E+06 1.846E+06 1.846E+06 1.982E+07 36.3852 1.00000
  1.995E+12 1.995E+12 3.940E+00 5.026E+04 8.795E+05 1.166E+06 2.096E+06 2.096E+06 1.993E+07 36.6154 1.00000
  2.239E+12 2.239E+12 3.959E+00 5.640E+04 9.868E+05 1.337E+06 2.380E+06 2.380E+06 2.004E+07 36.8457 1.00000
  2.512E+12 2.512E+12 3.978E+00 6.328E+04 1.107E+06 1.534E+06 2.704E+06 2.704E+06 2.015E+07 37.0759 1.00000
  2.818E+12 2.818E+12 3.998E+00 7.100E+04 1.242E+06 1.759E+06 3.072E+06 3.072E+06 2.025E+07 37.3062 1.00000
  3.162E+12 3.162E+12 4.017E+00 7.966E+04 1.394E+06 2.017E+06 3.491E+06 3.491E+06 2.036E+07 37.5365 1.00000
  3.548E+12 3.548E+12 4.037E+00 8.938E+04 1.564E+06 2.314E+06 3.967E+06 3.967E+06 2.046E+07 37.7667 1.00000
  3.981E+12 3.981E+12 4.057E+00 1.003E+05 1.754E+06 2.654E+06 4.509E+06 4.509E+06 2.056E+07 37.9970 1.00000
  4.467E+12 4.467E+12 4.076E+00 1.125E+05 1.968E+06 3.045E+06 5.126E+06 5.126E+06 2.067E+07 38.2272 1.00000
  5.012E+12 5.012E+12 4.096E+00 1.263E+05 2.209E+06 3.493E+06 5.828E+06 5.828E+06 2.077E+07 38.4575 1.00000
  5.623E+12 5.623E+12 4.116E+00 1.417E+05 2.478E+06 4.007E+06 6.627E+06 6.627E+06 2.086E+07 38.6878 1.00000
  6.310E+12 6.310E+12 4.137E+00 1.590E+05 2.780E+06 4.597E+06 7.536E+06 7.536E+06 2.096E+07 38.9180 1.00000
  7.079E+12 7.079E+12 4.157E+00 1.783E+05 3.119E+06 5.275E+06 8.572E+06 8.572E+06 2.106E+07 39.1483 1.00000
  7.943E+12 7.943E+12 4.177E+00 2.001E+05 3.500E+06 6.052E+06 9.752E+06 9.752E+06 2.115E+07 39.3785 1.00000
  8.913E+12 8.913E+12 4.198E+00 2.245E+05 3.926E+06 6.945E+06 1.110E+07 1.110E+07 2.125E+07 39.6088 1.00000
  1.000E+13 1.000E+13 4.218E+00 2.519E+05 4.405E+06 7.969E+06 1.263E+07 1.263E+07 2.134E+07 39.8391 1.00000
  1.122E+13 1.122E+13 4.239E+00 2.827E+05 4.943E+06 9.145E+06 1.437E+07 1.437E+07 2.143E+07 40.0693 1.00000
  1.259E+13 1.259E+13 4.260E+00 3.172E+05 5.546E+06 1.050E+07 1.636E+07 1.636E+07 2.152E+07 40.2996 1.00000
  1.413E+13 1.413E+13 4.281E+00 3.559E+05 6.222E+06 1.205E+07 1.862E+07 1.862E+07 2.161E+07 40.5298 1.00000
  1.585E+13 1.585E+13 4.302E+00 3.993E+05 6.981E+06 1.382E+07 2.120E+07 2.120E+07 2.169E+07 40.7601 1.00000
  1.778E+13 1.778E+13 4.323E+00 4.480E+05 7.832E+06 1.587E+07 2.415E+07 2.415E+07 2.178E+07 40.9903 1.00000
  1.995E+13 1.995E+13 4.344E+00 5.027E+05 8.787E+06 1.821E+07 2.750E+07 2.750E+07 2.186E+07 41.2206 1.00000
  2.239E+13 2.239E+13 4.366E+00 5.640E+05 9.859E+06 2.091E+07 3.133E+07 3.133E+07 2.195E+07 41.4509 1.00000
  2.512E+13 2.512E+13 4.387E+00 6.328E+05 1.106E+07 2.400E+07 3.570E+07 3.570E+07 2.203E+07 41.6811 1.00000
  2.818E+13 2.818E+13 4.409E+00 7.100E+05 1.241E+07 2.755E+07 4.067E+07 4.067E+07 2.211E+07 41.9114 1.00000
  3.162E+13 3.162E+13 4.431E+00 7.967E+05 1.392E+07 3.163E+07 4.635E+07 4.635E+07 2.219E+07 42.1416 1.00000
  3.548E+13 3.548E+13 4.453E+00 8.939E+05 1.562E+07 3.632E+07 5.284E+07 5.284E+07 2.227E+07 42.3719 1.00000
  3.981E+13 3.981E+13 4.475E+00 1.003E+06 1.753E+07 4.170E+07 6.023E+07 6.023E+07 2.234E+07 42.6022 1.00000
  4.467E+13 4.467E+13 4.497E+00 1.125E+06 1.966E+07 4.788E+07 6.867E+07 6.867E+07 2.242E+07 42.8324 1.00000
  5.012E+13 5.012E+13 4.519E+00 1.263E+06 2.206E+07 5.498E+07 7.831E+07 7.831E+07 2.249E+07 43.0627 1.00000
  5.623E+13 5.623E+13 4.541E+00 1.417E+06 2.475E+07 6.314E+07 8.931E+07 8.931E+07 2.257E+07 43.2929 1.00000
  6.310E+13 6.310E+13 4.564E+00 1.590E+06 2.777E+07 7.251E+07 1.019E+08 1.019E+08 2.264E+07 43.5232 1.00000
  7.079E+13 7.079E+13 4.586E+00 1.784E+06 3.116E+07 8.327E+07 1.162E+08 1.162E+08 2.271E+07 43.7534 1.00000
  7.943E+13 7.943E+13 4.609E+00 2.001E+06 3.496E+07 9.564E+07 1.326E+08 1.326E+08 2.278E+07 43.9837 1.00000
  8.913E+13 8.913E+13 4.632E+00 2.245E+06 3.922E+07 1.098E+08 1.513E+08 1.513E+08 2.285E+07 44.2140 1.00000
