 Incident particle is a Tau with M = 1776.82000 MeV
 Index = 0: SilverBromide
      Absorber with <Z/A> = 0.43670
 Sternheimer coef:  a     k=m_s   x_0    x_1    I[eV]   Cbar  delta0
                 0.2458  2.6820  0.0352  3.2109  486.6  5.6139 0.00

 *** Table generated with PUMAS v1.00 ***

      T         p     Ionization  brems     pair     photonuc  Radloss    dE/dx   CSDA Range  delta   beta
    [MeV]    [MeV/c]  -----------------------[MeV cm^2/g]------------------------  [g/cm^2]
  1.000E+05 1.018E+05 1.776E+00 6.254E-04 1.061E-02 7.755E-03 1.899E-02 1.795E+00 2.786E+04  3.1512 0.99985
  1.122E+05 1.140E+05 1.795E+00 7.244E-04 1.271E-02 8.718E-03 2.216E-02 1.817E+00 3.462E+04  3.3187 0.99988
  1.259E+05 1.277E+05 1.815E+00 8.386E-04 1.519E-02 9.750E-03 2.578E-02 1.840E+00 4.211E+04  3.4898 0.99990
  1.413E+05 1.430E+05 1.834E+00 9.703E-04 1.810E-02 1.091E-02 2.998E-02 1.864E+00 5.040E+04  3.6645 0.99992
  1.585E+05 1.603E+05 1.853E+00 1.122E-03 2.151E-02 1.219E-02 3.482E-02 1.888E+00 5.959E+04  3.8427 0.99994
  1.778E+05 1.796E+05 1.872E+00 1.297E-03 2.549E-02 1.363E-02 4.042E-02 1.912E+00 6.977E+04  4.0243 0.99995
  1.995E+05 2.013E+05 1.891E+00 1.498E-03 3.015E-02 1.525E-02 4.690E-02 1.938E+00 8.104E+04  4.2092 0.99996
  2.239E+05 2.256E+05 1.909E+00 1.729E-03 3.558E-02 1.702E-02 5.433E-02 1.964E+00 9.352E+04  4.3973 0.99997
  2.512E+05 2.530E+05 1.928E+00 1.995E-03 4.188E-02 1.900E-02 6.287E-02 1.990E+00 1.073E+05  4.5885 0.99998
  2.818E+05 2.836E+05 1.946E+00 2.301E-03 4.921E-02 2.121E-02 7.272E-02 2.019E+00 1.226E+05  4.7826 0.99998
  3.162E+05 3.180E+05 1.964E+00 2.652E-03 5.769E-02 2.371E-02 8.405E-02 2.048E+00 1.395E+05  4.9797 0.99998
  3.548E+05 3.566E+05 1.982E+00 3.055E-03 6.751E-02 2.650E-02 9.706E-02 2.079E+00 1.582E+05  5.1796 0.99999
  3.981E+05 3.999E+05 1.999E+00 3.518E-03 7.885E-02 2.961E-02 1.120E-01 2.111E+00 1.789E+05  5.3821 0.99999
  4.467E+05 4.485E+05 2.017E+00 4.048E-03 9.193E-02 3.308E-02 1.291E-01 2.146E+00 2.017E+05  5.5872 0.99999
  5.012E+05 5.030E+05 2.034E+00 4.656E-03 1.070E-01 3.697E-02 1.486E-01 2.183E+00 2.269E+05  5.7948 0.99999
  5.623E+05 5.641E+05 2.051E+00 5.353E-03 1.243E-01 4.118E-02 1.708E-01 2.222E+00 2.547E+05  6.0048 1.00000
  6.310E+05 6.327E+05 2.068E+00 6.151E-03 1.442E-01 4.590E-02 1.963E-01 2.264E+00 2.853E+05  6.2170 1.00000
  7.079E+05 7.097E+05 2.085E+00 7.065E-03 1.670E-01 5.122E-02 2.253E-01 2.310E+00 3.189E+05  6.4313 1.00000
  7.943E+05 7.961E+05 2.101E+00 8.111E-03 1.932E-01 5.721E-02 2.585E-01 2.360E+00 3.559E+05  6.6477 1.00000
  8.913E+05 8.930E+05 2.118E+00 9.308E-03 2.231E-01 6.397E-02 2.964E-01 2.414E+00 3.966E+05  6.8660 1.00000
  1.000E+06 1.002E+06 2.134E+00 1.068E-02 2.574E-01 7.160E-02 3.396E-01 2.473E+00 4.411E+05  7.0861 1.00000
  1.122E+06 1.124E+06 2.150E+00 1.224E-02 2.964E-01 8.023E-02 3.889E-01 2.539E+00 4.898E+05  7.3079 1.00000
  1.259E+06 1.261E+06 2.165E+00 1.403E-02 3.410E-01 8.998E-02 4.450E-01 2.610E+00 5.430E+05  7.5312 1.00000
  1.413E+06 1.414E+06 2.181E+00 1.607E-02 3.918E-01 1.010E-01 5.088E-01 2.690E+00 6.009E+05  7.7559 1.00000
  1.585E+06 1.587E+06 2.196E+00 1.840E-02 4.496E-01 1.135E-01 5.815E-01 2.778E+00 6.640E+05  7.9819 1.00000
  1.778E+06 1.780E+06 2.212E+00 2.107E-02 5.153E-01 1.277E-01 6.640E-01 2.876E+00 7.324E+05  8.2090 1.00000
  1.995E+06 1.997E+06 2.227E+00 2.411E-02 5.900E-01 1.437E-01 7.578E-01 2.985E+00 8.065E+05  8.4371 1.00000
  2.239E+06 2.240E+06 2.242E+00 2.757E-02 6.748E-01 1.620E-01 8.643E-01 3.106E+00 8.865E+05  8.6660 1.00000
  2.512E+06 2.514E+06 2.256E+00 3.153E-02 7.709E-01 1.826E-01 9.851E-01 3.241E+00 9.726E+05  8.8956 1.00000
  2.818E+06 2.820E+06 2.271E+00 3.603E-02 8.799E-01 2.061E-01 1.122E+00 3.393E+00 1.065E+06  9.1255 1.00000
  3.162E+06 3.164E+06 2.285E+00 4.117E-02 1.003E+00 2.328E-01 1.277E+00 3.563E+00 1.164E+06  9.3557 1.00000
  3.548E+06 3.550E+06 2.300E+00 4.702E-02 1.143E+00 2.632E-01 1.453E+00 3.753E+00 1.270E+06  9.5858 1.00000
  3.981E+06 3.983E+06 2.314E+00 5.369E-02 1.301E+00 2.977E-01 1.653E+00 3.966E+00 1.382E+06  9.8160 1.00000
  4.467E+06 4.469E+06 2.328E+00 6.128E-02 1.480E+00 3.370E-01 1.878E+00 4.206E+00 1.501E+06 10.0461 1.00000
  5.012E+06 5.014E+06 2.342E+00 6.992E-02 1.682E+00 3.816E-01 2.133E+00 4.475E+00 1.626E+06 10.2763 1.00000
  5.623E+06 5.625E+06 2.355E+00 7.975E-02 1.910E+00 4.325E-01 2.422E+00 4.777E+00 1.759E+06 10.5065 1.00000
  6.310E+06 6.311E+06 2.369E+00 9.093E-02 2.167E+00 4.904E-01 2.748E+00 5.117E+00 1.898E+06 10.7367 1.00000
  7.079E+06 7.081E+06 2.382E+00 1.036E-01 2.457E+00 5.563E-01 3.117E+00 5.500E+00 2.043E+06 10.9669 1.00000
  7.943E+06 7.945E+06 2.396E+00 1.181E-01 2.784E+00 6.314E-01 3.534E+00 5.930E+00 2.194E+06 11.1971 1.00000
  8.913E+06 8.914E+06 2.409E+00 1.345E-01 3.153E+00 7.169E-01 4.005E+00 6.414E+00 2.352E+06 11.4273 1.00000
  1.000E+07 1.000E+07 2.422E+00 1.532E-01 3.569E+00 8.144E-01 4.536E+00 6.958E+00 2.514E+06 11.6575 1.00000
  1.122E+07 1.122E+07 2.435E+00 1.744E-01 4.037E+00 9.256E-01 5.137E+00 7.572E+00 2.683E+06 11.8877 1.00000
  1.259E+07 1.259E+07 2.448E+00 1.984E-01 4.564E+00 1.052E+00 5.814E+00 8.262E+00 2.856E+06 12.1179 1.00000
  1.413E+07 1.413E+07 2.461E+00 2.258E-01 5.157E+00 1.197E+00 6.579E+00 9.040E+00 3.034E+06 12.3482 1.00000
  1.585E+07 1.585E+07 2.473E+00 2.567E-01 5.824E+00 1.361E+00 7.442E+00 9.916E+00 3.216E+06 12.5784 1.00000
  1.778E+07 1.778E+07 2.486E+00 2.919E-01 6.575E+00 1.549E+00 8.416E+00 1.090E+01 3.402E+06 12.8086 1.00000
  1.995E+07 1.995E+07 2.498E+00 3.317E-01 7.420E+00 1.763E+00 9.515E+00 1.201E+01 3.592E+06 13.0389 1.00000
  2.239E+07 2.239E+07 2.511E+00 3.769E-01 8.369E+00 2.008E+00 1.075E+01 1.326E+01 3.785E+06 13.2691 1.00000
  2.512E+07 2.512E+07 2.523E+00 4.281E-01 9.437E+00 2.287E+00 1.215E+01 1.467E+01 3.981E+06 13.4993 1.00000
  2.818E+07 2.819E+07 2.535E+00 4.861E-01 1.064E+01 2.605E+00 1.373E+01 1.626E+01 4.180E+06 13.7296 1.00000
  3.162E+07 3.162E+07 2.547E+00 5.518E-01 1.199E+01 2.968E+00 1.551E+01 1.805E+01 4.381E+06 13.9598 1.00000
  3.548E+07 3.548E+07 2.560E+00 6.262E-01 1.350E+01 3.382E+00 1.751E+01 2.007E+01 4.584E+06 14.1901 1.00000
  3.981E+07 3.981E+07 2.572E+00 7.103E-01 1.520E+01 3.855E+00 1.977E+01 2.234E+01 4.789E+06 14.4203 1.00000
  4.467E+07 4.467E+07 2.584E+00 8.056E-01 1.712E+01 4.394E+00 2.232E+01 2.490E+01 4.995E+06 14.6506 1.00000
  5.012E+07 5.012E+07 2.596E+00 9.133E-01 1.927E+01 5.010E+00 2.519E+01 2.779E+01 5.202E+06 14.8808 1.00000
  5.623E+07 5.624E+07 2.608E+00 1.035E+00 2.168E+01 5.713E+00 2.843E+01 3.104E+01 5.411E+06 15.1111 1.00000
  6.310E+07 6.310E+07 2.620E+00 1.173E+00 2.439E+01 6.516E+00 3.208E+01 3.470E+01 5.620E+06 15.3413 1.00000
  7.079E+07 7.080E+07 2.632E+00 1.328E+00 2.743E+01 7.432E+00 3.620E+01 3.883E+01 5.831E+06 15.5716 1.00000
  7.943E+07 7.943E+07 2.645E+00 1.504E+00 3.085E+01 8.479E+00 4.084E+01 4.348E+01 6.041E+06 15.8018 1.00000
  8.913E+07 8.913E+07 2.657E+00 1.703E+00 3.469E+01 9.674E+00 4.607E+01 4.872E+01 6.252E+06 16.0321 1.00000
  1.000E+08 1.000E+08 2.669E+00 1.927E+00 3.900E+01 1.104E+01 5.196E+01 5.463E+01 6.463E+06 16.2623 1.00000
  1.122E+08 1.122E+08 2.681E+00 2.180E+00 4.383E+01 1.260E+01 5.861E+01 6.129E+01 6.674E+06 16.4926 1.00000
  1.259E+08 1.259E+08 2.693E+00 2.466E+00 4.926E+01 1.438E+01 6.611E+01 6.880E+01 6.886E+06 16.7228 1.00000
  1.413E+08 1.413E+08 2.706E+00 2.788E+00 5.536E+01 1.641E+01 7.456E+01 7.726E+01 7.097E+06 16.9531 1.00000
  1.585E+08 1.585E+08 2.718E+00 3.151E+00 6.220E+01 1.873E+01 8.408E+01 8.680E+01 7.307E+06 17.1834 1.00000
  1.778E+08 1.778E+08 2.730E+00 3.561E+00 6.988E+01 2.138E+01 9.482E+01 9.755E+01 7.518E+06 17.4136 1.00000
  1.995E+08 1.995E+08 2.743E+00 4.023E+00 7.850E+01 2.441E+01 1.069E+02 1.097E+02 7.728E+06 17.6439 1.00000
  2.239E+08 2.239E+08 2.755E+00 4.543E+00 8.817E+01 2.787E+01 1.206E+02 1.233E+02 7.938E+06 17.8741 1.00000
  2.512E+08 2.512E+08 2.768E+00 5.130E+00 9.903E+01 3.183E+01 1.360E+02 1.388E+02 8.147E+06 18.1044 1.00000
  2.818E+08 2.818E+08 2.780E+00 5.791E+00 1.112E+02 3.635E+01 1.533E+02 1.561E+02 8.356E+06 18.3346 1.00000
  3.162E+08 3.162E+08 2.793E+00 6.535E+00 1.249E+02 4.151E+01 1.729E+02 1.757E+02 8.563E+06 18.5649 1.00000
  3.548E+08 3.548E+08 2.805E+00 7.373E+00 1.402E+02 4.741E+01 1.950E+02 1.978E+02 8.771E+06 18.7952 1.00000
  3.981E+08 3.981E+08 2.818E+00 8.316E+00 1.575E+02 5.415E+01 2.199E+02 2.227E+02 8.977E+06 19.0254 1.00000
  4.467E+08 4.467E+08 2.831E+00 9.377E+00 1.768E+02 6.185E+01 2.480E+02 2.508E+02 9.183E+06 19.2557 1.00000
  5.012E+08 5.012E+08 2.844E+00 1.057E+01 1.985E+02 7.065E+01 2.797E+02 2.825E+02 9.388E+06 19.4859 1.00000
  5.623E+08 5.623E+08 2.857E+00 1.192E+01 2.228E+02 8.071E+01 3.154E+02 3.183E+02 9.593E+06 19.7162 1.00000
  6.310E+08 6.310E+08 2.870E+00 1.343E+01 2.501E+02 9.221E+01 3.557E+02 3.586E+02 9.796E+06 19.9464 1.00000
  7.079E+08 7.079E+08 2.883E+00 1.513E+01 2.807E+02 1.054E+02 4.012E+02 4.041E+02 9.999E+06 20.1767 1.00000
  7.943E+08 7.943E+08 2.896E+00 1.704E+01 3.151E+02 1.204E+02 4.526E+02 4.555E+02 1.020E+07 20.4070 1.00000
  8.913E+08 8.913E+08 2.909E+00 1.919E+01 3.537E+02 1.376E+02 5.105E+02 5.134E+02 1.040E+07 20.6372 1.00000
  1.000E+09 1.000E+09 2.922E+00 2.161E+01 3.970E+02 1.572E+02 5.758E+02 5.787E+02 1.060E+07 20.8675 1.00000
  1.122E+09 1.122E+09 2.936E+00 2.432E+01 4.456E+02 1.796E+02 6.496E+02 6.525E+02 1.080E+07 21.0977 1.00000
  1.259E+09 1.259E+09 2.949E+00 2.738E+01 5.001E+02 2.053E+02 7.328E+02 7.357E+02 1.100E+07 21.3280 1.00000
  1.413E+09 1.413E+09 2.962E+00 3.081E+01 5.613E+02 2.347E+02 8.267E+02 8.297E+02 1.119E+07 21.5582 1.00000
  1.585E+09 1.585E+09 2.976E+00 3.466E+01 6.299E+02 2.682E+02 9.328E+02 9.357E+02 1.139E+07 21.7885 1.00000
  1.778E+09 1.778E+09 2.990E+00 3.899E+01 7.069E+02 3.066E+02 1.052E+03 1.055E+03 1.159E+07 22.0188 1.00000
  1.995E+09 1.995E+09 3.003E+00 4.386E+01 7.933E+02 3.505E+02 1.188E+03 1.191E+03 1.178E+07 22.2490 1.00000
  2.239E+09 2.239E+09 3.017E+00 4.933E+01 8.902E+02 4.007E+02 1.340E+03 1.343E+03 1.197E+07 22.4793 1.00000
  2.512E+09 2.512E+09 3.031E+00 5.546E+01 9.990E+02 4.581E+02 1.513E+03 1.516E+03 1.216E+07 22.7095 1.00000
  2.818E+09 2.818E+09 3.045E+00 6.236E+01 1.121E+03 5.237E+02 1.707E+03 1.710E+03 1.236E+07 22.9398 1.00000
  3.162E+09 3.162E+09 3.059E+00 7.010E+01 1.258E+03 5.988E+02 1.927E+03 1.930E+03 1.254E+07 23.1701 1.00000
  3.548E+09 3.548E+09 3.073E+00 7.879E+01 1.412E+03 6.847E+02 2.175E+03 2.178E+03 1.273E+07 23.4003 1.00000
  3.981E+09 3.981E+09 3.087E+00 8.856E+01 1.584E+03 7.830E+02 2.456E+03 2.459E+03 1.292E+07 23.6306 1.00000
  4.467E+09 4.467E+09 3.101E+00 9.952E+01 1.778E+03 8.954E+02 2.772E+03 2.775E+03 1.311E+07 23.8608 1.00000
  5.012E+09 5.012E+09 3.115E+00 1.118E+02 1.995E+03 1.024E+03 3.130E+03 3.133E+03 1.329E+07 24.0911 1.00000
  5.623E+09 5.623E+09 3.130E+00 1.256E+02 2.238E+03 1.171E+03 3.535E+03 3.538E+03 1.348E+07 24.3213 1.00000
  6.310E+09 6.310E+09 3.144E+00 1.411E+02 2.511E+03 1.339E+03 3.992E+03 3.995E+03 1.366E+07 24.5516 1.00000
  7.079E+09 7.079E+09 3.159E+00 1.586E+02 2.818E+03 1.532E+03 4.508E+03 4.512E+03 1.384E+07 24.7819 1.00000
  7.943E+09 7.943E+09 3.173E+00 1.781E+02 3.162E+03 1.752E+03 5.092E+03 5.096E+03 1.402E+07 25.0121 1.00000
  8.913E+09 8.913E+09 3.188E+00 2.000E+02 3.548E+03 2.005E+03 5.753E+03 5.756E+03 1.420E+07 25.2424 1.00000
  1.000E+10 1.000E+10 3.203E+00 2.246E+02 3.981E+03 2.293E+03 6.499E+03 6.502E+03 1.438E+07 25.4726 1.00000
  1.122E+10 1.122E+10 3.218E+00 2.523E+02 4.467E+03 2.624E+03 7.343E+03 7.346E+03 1.456E+07 25.7029 1.00000
  1.259E+10 1.259E+10 3.233E+00 2.833E+02 5.012E+03 3.002E+03 8.297E+03 8.300E+03 1.473E+07 25.9332 1.00000
  1.413E+10 1.413E+10 3.248E+00 3.181E+02 5.624E+03 3.435E+03 9.376E+03 9.379E+03 1.491E+07 26.1634 1.00000
  1.585E+10 1.585E+10 3.263E+00 3.571E+02 6.310E+03 3.930E+03 1.060E+04 1.060E+04 1.508E+07 26.3937 1.00000
  1.778E+10 1.778E+10 3.278E+00 4.010E+02 7.080E+03 4.497E+03 1.198E+04 1.198E+04 1.525E+07 26.6239 1.00000
  1.995E+10 1.995E+10 3.293E+00 4.502E+02 7.944E+03 5.146E+03 1.354E+04 1.354E+04 1.542E+07 26.8542 1.00000
  2.239E+10 2.239E+10 3.309E+00 5.054E+02 8.913E+03 5.889E+03 1.531E+04 1.531E+04 1.559E+07 27.0845 1.00000
  2.512E+10 2.512E+10 3.324E+00 5.673E+02 1.000E+04 6.740E+03 1.731E+04 1.731E+04 1.576E+07 27.3147 1.00000
  2.818E+10 2.818E+10 3.340E+00 6.369E+02 1.122E+04 7.714E+03 1.957E+04 1.958E+04 1.593E+07 27.5450 1.00000
  3.162E+10 3.162E+10 3.355E+00 7.149E+02 1.259E+04 8.829E+03 2.213E+04 2.214E+04 1.609E+07 27.7752 1.00000
  3.548E+10 3.548E+10 3.371E+00 8.024E+02 1.413E+04 1.011E+04 2.504E+04 2.504E+04 1.626E+07 28.0055 1.00000
  3.981E+10 3.981E+10 3.387E+00 9.007E+02 1.585E+04 1.157E+04 2.832E+04 2.832E+04 1.642E+07 28.2357 1.00000
  4.467E+10 4.467E+10 3.403E+00 1.011E+03 1.778E+04 1.324E+04 3.204E+04 3.204E+04 1.658E+07 28.4660 1.00000
  5.012E+10 5.012E+10 3.419E+00 1.135E+03 1.995E+04 1.516E+04 3.625E+04 3.625E+04 1.674E+07 28.6963 1.00000
  5.623E+10 5.623E+10 3.435E+00 1.273E+03 2.239E+04 1.736E+04 4.102E+04 4.102E+04 1.690E+07 28.9265 1.00000
  6.310E+10 6.310E+10 3.451E+00 1.429E+03 2.512E+04 1.987E+04 4.642E+04 4.643E+04 1.706E+07 29.1568 1.00000
  7.079E+10 7.079E+10 3.467E+00 1.604E+03 2.818E+04 2.276E+04 5.254E+04 5.255E+04 1.721E+07 29.3870 1.00000
  7.943E+10 7.943E+10 3.484E+00 1.800E+03 3.162E+04 2.606E+04 5.948E+04 5.948E+04 1.737E+07 29.6173 1.00000
  8.913E+10 8.913E+10 3.500E+00 2.020E+03 3.548E+04 2.984E+04 6.734E+04 6.734E+04 1.752E+07 29.8476 1.00000
  1.000E+11 1.000E+11 3.517E+00 2.267E+03 3.981E+04 3.417E+04 7.625E+04 7.625E+04 1.767E+07 30.0778 1.00000
  1.122E+11 1.122E+11 3.533E+00 2.544E+03 4.466E+04 3.913E+04 8.634E+04 8.635E+04 1.782E+07 30.3081 1.00000
  1.259E+11 1.259E+11 3.550E+00 2.855E+03 5.011E+04 4.482E+04 9.779E+04 9.779E+04 1.797E+07 30.5383 1.00000
  1.413E+11 1.413E+11 3.567E+00 3.204E+03 5.623E+04 5.134E+04 1.108E+05 1.108E+05 1.812E+07 30.7686 1.00000
  1.585E+11 1.585E+11 3.584E+00 3.595E+03 6.309E+04 5.880E+04 1.255E+05 1.255E+05 1.827E+07 30.9988 1.00000
  1.778E+11 1.778E+11 3.601E+00 4.034E+03 7.078E+04 6.736E+04 1.422E+05 1.422E+05 1.841E+07 31.2291 1.00000
  1.995E+11 1.995E+11 3.618E+00 4.527E+03 7.942E+04 7.716E+04 1.611E+05 1.611E+05 1.856E+07 31.4594 1.00000
  2.239E+11 2.239E+11 3.635E+00 5.079E+03 8.910E+04 8.839E+04 1.826E+05 1.826E+05 1.870E+07 31.6896 1.00000
  2.512E+11 2.512E+11 3.652E+00 5.700E+03 9.997E+04 1.013E+05 2.069E+05 2.069E+05 1.884E+07 31.9199 1.00000
  2.818E+11 2.818E+11 3.670E+00 6.396E+03 1.122E+05 1.160E+05 2.346E+05 2.346E+05 1.898E+07 32.1501 1.00000
  3.162E+11 3.162E+11 3.687E+00 7.176E+03 1.258E+05 1.329E+05 2.660E+05 2.660E+05 1.912E+07 32.3804 1.00000
  3.548E+11 3.548E+11 3.705E+00 8.053E+03 1.412E+05 1.523E+05 3.016E+05 3.016E+05 1.925E+07 32.6107 1.00000
  3.981E+11 3.981E+11 3.723E+00 9.036E+03 1.584E+05 1.746E+05 3.420E+05 3.420E+05 1.939E+07 32.8409 1.00000
  4.467E+11 4.467E+11 3.740E+00 1.014E+04 1.778E+05 2.000E+05 3.879E+05 3.879E+05 1.952E+07 33.0712 1.00000
  5.012E+11 5.012E+11 3.758E+00 1.138E+04 1.994E+05 2.292E+05 4.400E+05 4.401E+05 1.965E+07 33.3014 1.00000
  5.623E+11 5.623E+11 3.776E+00 1.277E+04 2.238E+05 2.627E+05 4.993E+05 4.993E+05 1.978E+07 33.5317 1.00000
  6.310E+11 6.310E+11 3.794E+00 1.432E+04 2.511E+05 3.011E+05 5.665E+05 5.665E+05 1.991E+07 33.7619 1.00000
  7.079E+11 7.079E+11 3.813E+00 1.607E+04 2.817E+05 3.451E+05 6.429E+05 6.429E+05 2.004E+07 33.9922 1.00000
  7.943E+11 7.943E+11 3.831E+00 1.803E+04 3.160E+05 3.956E+05 7.297E+05 7.297E+05 2.017E+07 34.2225 1.00000
  8.913E+11 8.913E+11 3.849E+00 2.023E+04 3.546E+05 4.535E+05 8.283E+05 8.283E+05 2.029E+07 34.4527 1.00000
  1.000E+12 1.000E+12 3.868E+00 2.270E+04 3.978E+05 5.199E+05 9.404E+05 9.404E+05 2.042E+07 34.6830 1.00000
  1.122E+12 1.122E+12 3.886E+00 2.547E+04 4.464E+05 5.960E+05 1.068E+06 1.068E+06 2.054E+07 34.9132 1.00000
  1.259E+12 1.259E+12 3.905E+00 2.858E+04 5.008E+05 6.833E+05 1.213E+06 1.213E+06 2.066E+07 35.1435 1.00000
  1.413E+12 1.413E+12 3.924E+00 3.207E+04 5.619E+05 7.835E+05 1.377E+06 1.377E+06 2.078E+07 35.3738 1.00000
  1.585E+12 1.585E+12 3.943E+00 3.599E+04 6.304E+05 8.983E+05 1.565E+06 1.565E+06 2.090E+07 35.6040 1.00000
  1.778E+12 1.778E+12 3.962E+00 4.038E+04 7.073E+05 1.030E+06 1.778E+06 1.778E+06 2.101E+07 35.8343 1.00000
  1.995E+12 1.995E+12 3.981E+00 4.530E+04 7.936E+05 1.181E+06 2.020E+06 2.020E+06 2.113E+07 36.0645 1.00000
  2.239E+12 2.239E+12 4.000E+00 5.083E+04 8.904E+05 1.355E+06 2.296E+06 2.296E+06 2.124E+07 36.2948 1.00000
  2.512E+12 2.512E+12 4.020E+00 5.704E+04 9.990E+05 1.553E+06 2.609E+06 2.609E+06 2.135E+07 36.5250 1.00000
  2.818E+12 2.818E+12 4.039E+00 6.400E+04 1.121E+06 1.782E+06 2.966E+06 2.966E+06 2.146E+07 36.7553 1.00000
  3.162E+12 3.162E+12 4.059E+00 7.180E+04 1.258E+06 2.043E+06 3.373E+06 3.373E+06 2.157E+07 36.9856 1.00000
  3.548E+12 3.548E+12 4.078E+00 8.057E+04 1.411E+06 2.344E+06 3.835E+06 3.835E+06 2.168E+07 37.2158 1.00000
  3.981E+12 3.981E+12 4.098E+00 9.040E+04 1.583E+06 2.689E+06 4.362E+06 4.362E+06 2.178E+07 37.4461 1.00000
  4.467E+12 4.467E+12 4.118E+00 1.014E+05 1.776E+06 3.084E+06 4.962E+06 4.962E+06 2.189E+07 37.6763 1.00000
  5.012E+12 5.012E+12 4.138E+00 1.138E+05 1.993E+06 3.538E+06 5.645E+06 5.645E+06 2.199E+07 37.9066 1.00000
  5.623E+12 5.623E+12 4.158E+00 1.277E+05 2.236E+06 4.059E+06 6.422E+06 6.422E+06 2.209E+07 38.1369 1.00000
  6.310E+12 6.310E+12 4.178E+00 1.433E+05 2.509E+06 4.657E+06 7.309E+06 7.309E+06 2.219E+07 38.3671 1.00000
  7.079E+12 7.079E+12 4.199E+00 1.608E+05 2.814E+06 5.343E+06 8.318E+06 8.318E+06 2.229E+07 38.5974 1.00000
  7.943E+12 7.943E+12 4.219E+00 1.804E+05 3.158E+06 6.131E+06 9.469E+06 9.469E+06 2.239E+07 38.8276 1.00000
  8.913E+12 8.913E+12 4.239E+00 2.024E+05 3.543E+06 7.035E+06 1.078E+07 1.078E+07 2.249E+07 39.0579 1.00000
  1.000E+13 1.000E+13 4.260E+00 2.271E+05 3.975E+06 8.072E+06 1.227E+07 1.227E+07 2.258E+07 39.2882 1.00000
  1.122E+13 1.122E+13 4.281E+00 2.548E+05 4.460E+06 9.264E+06 1.398E+07 1.398E+07 2.268E+07 39.5184 1.00000
  1.259E+13 1.259E+13 4.302E+00 2.859E+05 5.004E+06 1.063E+07 1.592E+07 1.592E+07 2.277E+07 39.7487 1.00000
  1.413E+13 1.413E+13 4.323E+00 3.208E+05 5.614E+06 1.220E+07 1.814E+07 1.814E+07 2.286E+07 39.9789 1.00000
  1.585E+13 1.585E+13 4.344E+00 3.599E+05 6.299E+06 1.400E+07 2.066E+07 2.066E+07 2.295E+07 40.2092 1.00000
  1.778E+13 1.778E+13 4.365E+00 4.038E+05 7.067E+06 1.607E+07 2.354E+07 2.354E+07 2.303E+07 40.4394 1.00000
  1.995E+13 1.995E+13 4.386E+00 4.531E+05 7.929E+06 1.845E+07 2.683E+07 2.683E+07 2.312E+07 40.6697 1.00000
  2.239E+13 2.239E+13 4.408E+00 5.084E+05 8.896E+06 2.118E+07 3.058E+07 3.058E+07 2.321E+07 40.9000 1.00000
  2.512E+13 2.512E+13 4.429E+00 5.704E+05 9.981E+06 2.431E+07 3.486E+07 3.486E+07 2.329E+07 41.1302 1.00000
  2.818E+13 2.818E+13 4.451E+00 6.400E+05 1.120E+07 2.791E+07 3.975E+07 3.975E+07 2.337E+07 41.3605 1.00000
  3.162E+13 3.162E+13 4.473E+00 7.181E+05 1.256E+07 3.204E+07 4.533E+07 4.533E+07 2.345E+07 41.5907 1.00000
  3.548E+13 3.548E+13 4.495E+00 8.057E+05 1.410E+07 3.679E+07 5.169E+07 5.169E+07 2.353E+07 41.8210 1.00000
  3.981E+13 3.981E+13 4.517E+00 9.040E+05 1.581E+07 4.224E+07 5.896E+07 5.896E+07 2.361E+07 42.0513 1.00000
  4.467E+13 4.467E+13 4.539E+00 1.014E+06 1.774E+07 4.850E+07 6.726E+07 6.726E+07 2.369E+07 42.2815 1.00000
  5.012E+13 5.012E+13 4.561E+00 1.138E+06 1.991E+07 5.570E+07 7.674E+07 7.674E+07 2.377E+07 42.5118 1.00000
  5.623E+13 5.623E+13 4.584E+00 1.277E+06 2.233E+07 6.396E+07 8.757E+07 8.757E+07 2.384E+07 42.7420 1.00000
  6.310E+13 6.310E+13 4.606E+00 1.433E+06 2.506E+07 7.345E+07 9.994E+07 9.994E+07 2.391E+07 42.9723 1.00000
  7.079E+13 7.079E+13 4.629E+00 1.608E+06 2.811E+07 8.435E+07 1.141E+08 1.141E+08 2.399E+07 43.2025 1.00000
  7.943E+13 7.943E+13 4.652E+00 1.804E+06 3.154E+07 9.688E+07 1.302E+08 1.302E+08 2.406E+07 43.4328 1.00000
  8.913E+13 8.913E+13 4.674E+00 2.024E+06 3.539E+07 1.113E+08 1.487E+08 1.487E+08 2.413E+07 43.6631 1.00000
