 Incident particle is a Tau with M = 1776.82000 MeV
 Index = 0: Skin
      Absorber with <Z/A> = 0.54925
 Sternheimer coef:  a     k=m_s   x_0    x_1    I[eV]   Cbar  delta0
                 0.0946  3.4643  0.2019  2.7526   72.7  3.3546 0.00

 *** Table generated with PUMAS v1.00 ***

      T         p     Ionization  brems     pair     photonuc  Radloss    dE/dx   CSDA Range  delta   beta
    [MeV]    [MeV/c]  -----------------------[MeV cm^2/g]------------------------  [g/cm^2]
  1.000E+05 1.018E+05 2.412E+00 1.377E-04 2.145E-03 8.385E-03 1.067E-02 2.423E+00 2.064E+04  4.8339 0.99985
  1.122E+05 1.140E+05 2.433E+00 1.590E-04 2.591E-03 9.473E-03 1.222E-02 2.445E+00 2.565E+04  5.0454 0.99988
  1.259E+05 1.277E+05 2.454E+00 1.836E-04 3.117E-03 1.065E-02 1.395E-02 2.468E+00 3.123E+04  5.2592 0.99990
  1.413E+05 1.430E+05 2.474E+00 2.119E-04 3.737E-03 1.197E-02 1.591E-02 2.490E+00 3.742E+04  5.4749 0.99992
  1.585E+05 1.603E+05 2.495E+00 2.444E-04 4.467E-03 1.344E-02 1.815E-02 2.513E+00 4.431E+04  5.6925 0.99994
  1.778E+05 1.796E+05 2.516E+00 2.818E-04 5.323E-03 1.510E-02 2.070E-02 2.537E+00 5.197E+04  5.9118 0.99995
  1.995E+05 2.013E+05 2.536E+00 3.247E-04 6.326E-03 1.698E-02 2.363E-02 2.560E+00 6.049E+04  6.1326 0.99996
  2.239E+05 2.256E+05 2.557E+00 3.741E-04 7.499E-03 1.904E-02 2.691E-02 2.584E+00 6.995E+04  6.3548 0.99997
  2.512E+05 2.530E+05 2.577E+00 4.308E-04 8.868E-03 2.135E-02 3.065E-02 2.608E+00 8.048E+04  6.5783 0.99998
  2.818E+05 2.836E+05 2.598E+00 4.958E-04 1.046E-02 2.396E-02 3.491E-02 2.632E+00 9.217E+04  6.8028 0.99998
  3.162E+05 3.180E+05 2.618E+00 5.704E-04 1.232E-02 2.690E-02 3.979E-02 2.658E+00 1.052E+05  7.0284 0.99998
  3.548E+05 3.566E+05 2.638E+00 6.560E-04 1.447E-02 3.021E-02 4.533E-02 2.683E+00 1.196E+05  7.2549 0.99999
  3.981E+05 3.999E+05 2.658E+00 7.542E-04 1.696E-02 3.390E-02 5.161E-02 2.710E+00 1.357E+05  7.4820 0.99999
  4.467E+05 4.485E+05 2.678E+00 8.667E-04 1.985E-02 3.804E-02 5.876E-02 2.737E+00 1.535E+05  7.7099 0.99999
  5.012E+05 5.030E+05 2.698E+00 9.956E-04 2.318E-02 4.271E-02 6.688E-02 2.765E+00 1.733E+05  7.9382 0.99999
  5.623E+05 5.641E+05 2.718E+00 1.143E-03 2.703E-02 4.776E-02 7.594E-02 2.794E+00 1.953E+05  8.1671 1.00000
  6.310E+05 6.327E+05 2.738E+00 1.312E-03 3.147E-02 5.346E-02 8.625E-02 2.824E+00 2.198E+05  8.3962 1.00000
  7.079E+05 7.097E+05 2.758E+00 1.506E-03 3.659E-02 5.989E-02 9.799E-02 2.856E+00 2.469E+05  8.6256 1.00000
  7.943E+05 7.961E+05 2.777E+00 1.728E-03 4.246E-02 6.716E-02 1.114E-01 2.889E+00 2.769E+05  8.8552 1.00000
  8.913E+05 8.930E+05 2.797E+00 1.981E-03 4.921E-02 7.538E-02 1.266E-01 2.923E+00 3.103E+05  9.0850 1.00000
  1.000E+06 1.002E+06 2.816E+00 2.271E-03 5.696E-02 8.468E-02 1.439E-01 2.960E+00 3.473E+05  9.3148 1.00000
  1.122E+06 1.124E+06 2.836E+00 2.603E-03 6.584E-02 9.520E-02 1.636E-01 2.999E+00 3.882E+05  9.5447 1.00000
  1.259E+06 1.261E+06 2.855E+00 2.983E-03 7.600E-02 1.071E-01 1.861E-01 3.041E+00 4.335E+05  9.7746 1.00000
  1.413E+06 1.414E+06 2.874E+00 3.417E-03 8.762E-02 1.206E-01 2.117E-01 3.086E+00 4.837E+05 10.0045 1.00000
  1.585E+06 1.587E+06 2.893E+00 3.913E-03 1.009E-01 1.360E-01 2.408E-01 3.134E+00 5.391E+05 10.2345 1.00000
  1.778E+06 1.780E+06 2.912E+00 4.480E-03 1.160E-01 1.533E-01 2.739E-01 3.186E+00 6.003E+05 10.4645 1.00000
  1.995E+06 1.997E+06 2.931E+00 5.127E-03 1.333E-01 1.731E-01 3.115E-01 3.242E+00 6.678E+05 10.6946 1.00000
  2.239E+06 2.240E+06 2.950E+00 5.867E-03 1.530E-01 1.955E-01 3.544E-01 3.304E+00 7.422E+05 10.9247 1.00000
  2.512E+06 2.514E+06 2.968E+00 6.712E-03 1.754E-01 2.210E-01 4.031E-01 3.371E+00 8.241E+05 11.1547 1.00000
  2.818E+06 2.820E+06 2.986E+00 7.676E-03 2.009E-01 2.500E-01 4.585E-01 3.445E+00 9.140E+05 11.3848 1.00000
  3.162E+06 3.164E+06 3.004E+00 8.777E-03 2.298E-01 2.829E-01 5.215E-01 3.526E+00 1.013E+06 11.6150 1.00000
  3.548E+06 3.550E+06 3.022E+00 1.003E-02 2.627E-01 3.203E-01 5.931E-01 3.615E+00 1.121E+06 11.8451 1.00000
  3.981E+06 3.983E+06 3.040E+00 1.147E-02 3.000E-01 3.630E-01 6.744E-01 3.715E+00 1.239E+06 12.0753 1.00000
  4.467E+06 4.469E+06 3.058E+00 1.310E-02 3.422E-01 4.115E-01 7.668E-01 3.825E+00 1.368E+06 12.3054 1.00000
  5.012E+06 5.014E+06 3.075E+00 1.497E-02 3.901E-01 4.667E-01 8.718E-01 3.947E+00 1.508E+06 12.5356 1.00000
  5.623E+06 5.625E+06 3.093E+00 1.709E-02 4.443E-01 5.296E-01 9.910E-01 4.084E+00 1.660E+06 12.7658 1.00000
  6.310E+06 6.311E+06 3.110E+00 1.951E-02 5.057E-01 6.013E-01 1.126E+00 4.236E+00 1.825E+06 12.9960 1.00000
  7.079E+06 7.081E+06 3.127E+00 2.227E-02 5.750E-01 6.829E-01 1.280E+00 4.407E+00 2.004E+06 13.2262 1.00000
  7.943E+06 7.945E+06 3.143E+00 2.541E-02 6.534E-01 7.758E-01 1.455E+00 4.598E+00 2.196E+06 13.4564 1.00000
  8.913E+06 8.914E+06 3.160E+00 2.899E-02 7.419E-01 8.818E-01 1.653E+00 4.813E+00 2.402E+06 13.6866 1.00000
  1.000E+07 1.000E+07 3.176E+00 3.307E-02 8.419E-01 1.003E+00 1.878E+00 5.054E+00 2.622E+06 13.9168 1.00000
  1.122E+07 1.122E+07 3.193E+00 3.770E-02 9.547E-01 1.140E+00 2.133E+00 5.325E+00 2.858E+06 14.1470 1.00000
  1.259E+07 1.259E+07 3.209E+00 4.298E-02 1.082E+00 1.297E+00 2.422E+00 5.631E+00 3.108E+06 14.3772 1.00000
  1.413E+07 1.413E+07 3.225E+00 4.898E-02 1.225E+00 1.476E+00 2.751E+00 5.976E+00 3.373E+06 14.6075 1.00000
  1.585E+07 1.585E+07 3.241E+00 5.580E-02 1.387E+00 1.681E+00 3.124E+00 6.364E+00 3.652E+06 14.8377 1.00000
  1.778E+07 1.778E+07 3.256E+00 6.355E-02 1.569E+00 1.913E+00 3.546E+00 6.803E+00 3.946E+06 15.0679 1.00000
  1.995E+07 1.995E+07 3.272E+00 7.237E-02 1.775E+00 2.179E+00 4.026E+00 7.298E+00 4.254E+06 15.2982 1.00000
  2.239E+07 2.239E+07 3.288E+00 8.238E-02 2.006E+00 2.482E+00 4.570E+00 7.858E+00 4.576E+06 15.5284 1.00000
  2.512E+07 2.512E+07 3.303E+00 9.375E-02 2.266E+00 2.828E+00 5.188E+00 8.491E+00 4.911E+06 15.7586 1.00000
  2.818E+07 2.819E+07 3.319E+00 1.067E-01 2.558E+00 3.223E+00 5.888E+00 9.206E+00 5.258E+06 15.9889 1.00000
  3.162E+07 3.162E+07 3.334E+00 1.213E-01 2.888E+00 3.673E+00 6.682E+00 1.002E+01 5.616E+06 16.2191 1.00000
  3.548E+07 3.548E+07 3.349E+00 1.379E-01 3.258E+00 4.187E+00 7.583E+00 1.093E+01 5.985E+06 16.4494 1.00000
  3.981E+07 3.981E+07 3.365E+00 1.568E-01 3.674E+00 4.773E+00 8.605E+00 1.197E+01 6.364E+06 16.6796 1.00000
  4.467E+07 4.467E+07 3.380E+00 1.782E-01 4.143E+00 5.443E+00 9.764E+00 1.314E+01 6.752E+06 16.9099 1.00000
  5.012E+07 5.012E+07 3.395E+00 2.024E-01 4.669E+00 6.207E+00 1.108E+01 1.447E+01 7.148E+06 17.1401 1.00000
  5.623E+07 5.624E+07 3.410E+00 2.299E-01 5.260E+00 7.080E+00 1.257E+01 1.598E+01 7.550E+06 17.3704 1.00000
  6.310E+07 6.310E+07 3.426E+00 2.610E-01 5.925E+00 8.076E+00 1.426E+01 1.769E+01 7.959E+06 17.6006 1.00000
  7.079E+07 7.080E+07 3.441E+00 2.963E-01 6.672E+00 9.213E+00 1.618E+01 1.962E+01 8.373E+06 17.8309 1.00000
  7.943E+07 7.943E+07 3.456E+00 3.362E-01 7.511E+00 1.051E+01 1.836E+01 2.181E+01 8.791E+06 18.0611 1.00000
  8.913E+07 8.913E+07 3.472E+00 3.814E-01 8.453E+00 1.199E+01 2.083E+01 2.430E+01 9.212E+06 18.2914 1.00000
  1.000E+08 1.000E+08 3.487E+00 4.326E-01 9.512E+00 1.369E+01 2.363E+01 2.712E+01 9.637E+06 18.5216 1.00000
  1.122E+08 1.122E+08 3.502E+00 4.904E-01 1.070E+01 1.562E+01 2.681E+01 3.031E+01 1.006E+07 18.7519 1.00000
  1.259E+08 1.259E+08 3.518E+00 5.559E-01 1.203E+01 1.783E+01 3.042E+01 3.394E+01 1.049E+07 18.9821 1.00000
  1.413E+08 1.413E+08 3.533E+00 6.298E-01 1.353E+01 2.035E+01 3.452E+01 3.805E+01 1.092E+07 19.2124 1.00000
  1.585E+08 1.585E+08 3.549E+00 7.135E-01 1.522E+01 2.323E+01 3.916E+01 4.271E+01 1.135E+07 19.4427 1.00000
  1.778E+08 1.778E+08 3.564E+00 8.080E-01 1.711E+01 2.653E+01 4.444E+01 4.800E+01 1.177E+07 19.6729 1.00000
  1.995E+08 1.995E+08 3.580E+00 9.148E-01 1.923E+01 3.029E+01 5.043E+01 5.401E+01 1.220E+07 19.9032 1.00000
  2.239E+08 2.239E+08 3.595E+00 1.035E+00 2.161E+01 3.458E+01 5.722E+01 6.082E+01 1.263E+07 20.1334 1.00000
  2.512E+08 2.512E+08 3.611E+00 1.172E+00 2.428E+01 3.949E+01 6.494E+01 6.855E+01 1.305E+07 20.3637 1.00000
  2.818E+08 2.818E+08 3.627E+00 1.325E+00 2.728E+01 4.510E+01 7.370E+01 7.733E+01 1.347E+07 20.5939 1.00000
  3.162E+08 3.162E+08 3.643E+00 1.499E+00 3.065E+01 5.150E+01 8.365E+01 8.729E+01 1.389E+07 20.8242 1.00000
  3.548E+08 3.548E+08 3.659E+00 1.694E+00 3.442E+01 5.882E+01 9.494E+01 9.860E+01 1.431E+07 21.0545 1.00000
  3.981E+08 3.981E+08 3.675E+00 1.915E+00 3.867E+01 6.719E+01 1.078E+02 1.114E+02 1.472E+07 21.2847 1.00000
  4.467E+08 4.467E+08 3.691E+00 2.164E+00 4.342E+01 7.675E+01 1.223E+02 1.260E+02 1.513E+07 21.5150 1.00000
  5.012E+08 5.012E+08 3.707E+00 2.444E+00 4.877E+01 8.768E+01 1.389E+02 1.426E+02 1.554E+07 21.7452 1.00000
  5.623E+08 5.623E+08 3.723E+00 2.761E+00 5.476E+01 1.002E+02 1.577E+02 1.614E+02 1.594E+07 21.9755 1.00000
  6.310E+08 6.310E+08 3.739E+00 3.117E+00 6.149E+01 1.144E+02 1.790E+02 1.828E+02 1.634E+07 22.2057 1.00000
  7.079E+08 7.079E+08 3.756E+00 3.518E+00 6.904E+01 1.308E+02 2.033E+02 2.071E+02 1.674E+07 22.4360 1.00000
  7.943E+08 7.943E+08 3.772E+00 3.971E+00 7.751E+01 1.494E+02 2.309E+02 2.347E+02 1.713E+07 22.6663 1.00000
  8.913E+08 8.913E+08 3.789E+00 4.480E+00 8.702E+01 1.707E+02 2.622E+02 2.660E+02 1.752E+07 22.8965 1.00000
  1.000E+09 1.000E+09 3.806E+00 5.053E+00 9.768E+01 1.951E+02 2.978E+02 3.016E+02 1.791E+07 23.1268 1.00000
  1.122E+09 1.122E+09 3.822E+00 5.699E+00 1.097E+02 2.230E+02 3.383E+02 3.421E+02 1.829E+07 23.3570 1.00000
  1.259E+09 1.259E+09 3.839E+00 6.426E+00 1.231E+02 2.548E+02 3.843E+02 3.882E+02 1.866E+07 23.5873 1.00000
  1.413E+09 1.413E+09 3.856E+00 7.243E+00 1.382E+02 2.912E+02 4.366E+02 4.405E+02 1.904E+07 23.8175 1.00000
  1.585E+09 1.585E+09 3.873E+00 8.163E+00 1.551E+02 3.329E+02 4.961E+02 5.000E+02 1.940E+07 24.0478 1.00000
  1.778E+09 1.778E+09 3.890E+00 9.198E+00 1.740E+02 3.805E+02 5.638E+02 5.677E+02 1.977E+07 24.2781 1.00000
  1.995E+09 1.995E+09 3.907E+00 1.036E+01 1.953E+02 4.350E+02 6.407E+02 6.446E+02 2.013E+07 24.5083 1.00000
  2.239E+09 2.239E+09 3.925E+00 1.167E+01 2.192E+02 4.973E+02 7.282E+02 7.321E+02 2.048E+07 24.7386 1.00000
  2.512E+09 2.512E+09 3.942E+00 1.314E+01 2.460E+02 5.685E+02 8.277E+02 8.317E+02 2.083E+07 24.9688 1.00000
  2.818E+09 2.818E+09 3.959E+00 1.480E+01 2.761E+02 6.500E+02 9.409E+02 9.449E+02 2.118E+07 25.1991 1.00000
  3.162E+09 3.162E+09 3.977E+00 1.666E+01 3.099E+02 7.432E+02 1.070E+03 1.074E+03 2.152E+07 25.4294 1.00000
  3.548E+09 3.548E+09 3.995E+00 1.875E+01 3.478E+02 8.498E+02 1.216E+03 1.220E+03 2.186E+07 25.6596 1.00000
  3.981E+09 3.981E+09 4.013E+00 2.110E+01 3.903E+02 9.718E+02 1.383E+03 1.387E+03 2.219E+07 25.8899 1.00000
  4.467E+09 4.467E+09 4.030E+00 2.374E+01 4.379E+02 1.111E+03 1.573E+03 1.577E+03 2.252E+07 26.1201 1.00000
  5.012E+09 5.012E+09 4.048E+00 2.670E+01 4.914E+02 1.271E+03 1.789E+03 1.793E+03 2.285E+07 26.3504 1.00000
  5.623E+09 5.623E+09 4.066E+00 3.003E+01 5.515E+02 1.454E+03 2.035E+03 2.039E+03 2.317E+07 26.5806 1.00000
  6.310E+09 6.310E+09 4.085E+00 3.378E+01 6.188E+02 1.662E+03 2.315E+03 2.319E+03 2.348E+07 26.8109 1.00000
  7.079E+09 7.079E+09 4.103E+00 3.798E+01 6.944E+02 1.902E+03 2.634E+03 2.638E+03 2.380E+07 27.0412 1.00000
  7.943E+09 7.943E+09 4.121E+00 4.271E+01 7.792E+02 2.175E+03 2.997E+03 3.001E+03 2.410E+07 27.2714 1.00000
  8.913E+09 8.913E+09 4.140E+00 4.801E+01 8.743E+02 2.488E+03 3.410E+03 3.415E+03 2.441E+07 27.5017 1.00000
  1.000E+10 1.000E+10 4.158E+00 5.397E+01 9.810E+02 2.846E+03 3.881E+03 3.886E+03 2.471E+07 27.7319 1.00000
  1.122E+10 1.122E+10 4.177E+00 6.065E+01 1.101E+03 3.256E+03 4.418E+03 4.422E+03 2.500E+07 27.9622 1.00000
  1.259E+10 1.259E+10 4.196E+00 6.817E+01 1.235E+03 3.726E+03 5.029E+03 5.033E+03 2.529E+07 28.1925 1.00000
  1.413E+10 1.413E+10 4.215E+00 7.660E+01 1.386E+03 4.263E+03 5.725E+03 5.730E+03 2.558E+07 28.4227 1.00000
  1.585E+10 1.585E+10 4.234E+00 8.607E+01 1.555E+03 4.878E+03 6.519E+03 6.523E+03 2.586E+07 28.6530 1.00000
  1.778E+10 1.778E+10 4.253E+00 9.669E+01 1.745E+03 5.582E+03 7.423E+03 7.427E+03 2.614E+07 28.8832 1.00000
  1.995E+10 1.995E+10 4.272E+00 1.086E+02 1.958E+03 6.387E+03 8.454E+03 8.458E+03 2.641E+07 29.1135 1.00000
  2.239E+10 2.239E+10 4.292E+00 1.220E+02 2.197E+03 7.310E+03 9.628E+03 9.633E+03 2.668E+07 29.3438 1.00000
  2.512E+10 2.512E+10 4.311E+00 1.371E+02 2.465E+03 8.366E+03 1.097E+04 1.097E+04 2.695E+07 29.5740 1.00000
  2.818E+10 2.818E+10 4.331E+00 1.539E+02 2.766E+03 9.575E+03 1.249E+04 1.250E+04 2.721E+07 29.8043 1.00000
  3.162E+10 3.162E+10 4.350E+00 1.729E+02 3.103E+03 1.096E+04 1.424E+04 1.424E+04 2.747E+07 30.0345 1.00000
  3.548E+10 3.548E+10 4.370E+00 1.941E+02 3.482E+03 1.254E+04 1.622E+04 1.622E+04 2.773E+07 30.2648 1.00000
  3.981E+10 3.981E+10 4.390E+00 2.180E+02 3.907E+03 1.436E+04 1.848E+04 1.849E+04 2.798E+07 30.4950 1.00000
  4.467E+10 4.467E+10 4.410E+00 2.448E+02 4.383E+03 1.644E+04 2.107E+04 2.107E+04 2.822E+07 30.7253 1.00000
  5.012E+10 5.012E+10 4.430E+00 2.748E+02 4.918E+03 1.882E+04 2.401E+04 2.402E+04 2.846E+07 30.9556 1.00000
  5.623E+10 5.623E+10 4.450E+00 3.086E+02 5.518E+03 2.155E+04 2.737E+04 2.738E+04 2.870E+07 31.1858 1.00000
  6.310E+10 6.310E+10 4.471E+00 3.464E+02 6.192E+03 2.467E+04 3.121E+04 3.121E+04 2.894E+07 31.4161 1.00000
  7.079E+10 7.079E+10 4.491E+00 3.889E+02 6.947E+03 2.825E+04 3.558E+04 3.559E+04 2.917E+07 31.6463 1.00000
  7.943E+10 7.943E+10 4.512E+00 4.366E+02 7.795E+03 3.234E+04 4.057E+04 4.058E+04 2.940E+07 31.8766 1.00000
  8.913E+10 8.913E+10 4.532E+00 4.901E+02 8.746E+03 3.704E+04 4.627E+04 4.628E+04 2.962E+07 32.1069 1.00000
  1.000E+11 1.000E+11 4.553E+00 5.501E+02 9.813E+03 4.241E+04 5.278E+04 5.278E+04 2.984E+07 32.3371 1.00000
  1.122E+11 1.122E+11 4.574E+00 6.175E+02 1.101E+04 4.857E+04 6.020E+04 6.021E+04 3.006E+07 32.5674 1.00000
  1.259E+11 1.259E+11 4.595E+00 6.931E+02 1.235E+04 5.563E+04 6.868E+04 6.868E+04 3.027E+07 32.7976 1.00000
  1.413E+11 1.413E+11 4.616E+00 7.780E+02 1.386E+04 6.372E+04 7.836E+04 7.836E+04 3.048E+07 33.0279 1.00000
  1.585E+11 1.585E+11 4.638E+00 8.732E+02 1.555E+04 7.298E+04 8.941E+04 8.941E+04 3.069E+07 33.2581 1.00000
  1.778E+11 1.778E+11 4.659E+00 9.800E+02 1.745E+04 8.360E+04 1.020E+05 1.020E+05 3.089E+07 33.4884 1.00000
  1.995E+11 1.995E+11 4.680E+00 1.100E+03 1.958E+04 9.577E+04 1.164E+05 1.165E+05 3.109E+07 33.7187 1.00000
  2.239E+11 2.239E+11 4.702E+00 1.234E+03 2.196E+04 1.097E+05 1.329E+05 1.329E+05 3.129E+07 33.9489 1.00000
  2.512E+11 2.512E+11 4.724E+00 1.385E+03 2.464E+04 1.257E+05 1.517E+05 1.517E+05 3.148E+07 34.1792 1.00000
  2.818E+11 2.818E+11 4.746E+00 1.555E+03 2.765E+04 1.440E+05 1.732E+05 1.732E+05 3.167E+07 34.4094 1.00000
  3.162E+11 3.162E+11 4.768E+00 1.745E+03 3.102E+04 1.650E+05 1.978E+05 1.978E+05 3.186E+07 34.6397 1.00000
  3.548E+11 3.548E+11 4.790E+00 1.958E+03 3.481E+04 1.891E+05 2.258E+05 2.258E+05 3.204E+07 34.8700 1.00000
  3.981E+11 3.981E+11 4.812E+00 2.197E+03 3.905E+04 2.167E+05 2.579E+05 2.579E+05 3.222E+07 35.1002 1.00000
  4.467E+11 4.467E+11 4.835E+00 2.465E+03 4.382E+04 2.483E+05 2.946E+05 2.946E+05 3.240E+07 35.3305 1.00000
  5.012E+11 5.012E+11 4.857E+00 2.767E+03 4.916E+04 2.845E+05 3.365E+05 3.365E+05 3.257E+07 35.5607 1.00000
  5.623E+11 5.623E+11 4.880E+00 3.105E+03 5.516E+04 3.261E+05 3.844E+05 3.844E+05 3.274E+07 35.7910 1.00000
  6.310E+11 6.310E+11 4.902E+00 3.484E+03 6.189E+04 3.738E+05 4.391E+05 4.391E+05 3.291E+07 36.0212 1.00000
  7.079E+11 7.079E+11 4.925E+00 3.909E+03 6.944E+04 4.284E+05 5.017E+05 5.017E+05 3.307E+07 36.2515 1.00000
  7.943E+11 7.943E+11 4.948E+00 4.387E+03 7.791E+04 4.910E+05 5.733E+05 5.733E+05 3.323E+07 36.4818 1.00000
  8.913E+11 8.913E+11 4.972E+00 4.922E+03 8.741E+04 5.629E+05 6.552E+05 6.552E+05 3.339E+07 36.7120 1.00000
  1.000E+12 1.000E+12 4.995E+00 5.523E+03 9.807E+04 6.453E+05 7.489E+05 7.489E+05 3.355E+07 36.9423 1.00000
  1.122E+12 1.122E+12 5.018E+00 6.198E+03 1.100E+05 7.398E+05 8.560E+05 8.560E+05 3.370E+07 37.1725 1.00000
  1.259E+12 1.259E+12 5.042E+00 6.954E+03 1.235E+05 8.481E+05 9.785E+05 9.785E+05 3.385E+07 37.4028 1.00000
  1.413E+12 1.413E+12 5.065E+00 7.803E+03 1.385E+05 9.724E+05 1.119E+06 1.119E+06 3.400E+07 37.6331 1.00000
  1.585E+12 1.585E+12 5.089E+00 8.756E+03 1.554E+05 1.115E+06 1.279E+06 1.279E+06 3.414E+07 37.8633 1.00000
  1.778E+12 1.778E+12 5.113E+00 9.825E+03 1.744E+05 1.279E+06 1.463E+06 1.463E+06 3.428E+07 38.0936 1.00000
  1.995E+12 1.995E+12 5.137E+00 1.102E+04 1.956E+05 1.466E+06 1.673E+06 1.673E+06 3.442E+07 38.3238 1.00000
  2.239E+12 2.239E+12 5.161E+00 1.237E+04 2.195E+05 1.681E+06 1.913E+06 1.913E+06 3.456E+07 38.5541 1.00000
  2.512E+12 2.512E+12 5.186E+00 1.388E+04 2.463E+05 1.928E+06 2.188E+06 2.188E+06 3.469E+07 38.7843 1.00000
  2.818E+12 2.818E+12 5.210E+00 1.557E+04 2.763E+05 2.211E+06 2.503E+06 2.503E+06 3.482E+07 39.0146 1.00000
  3.162E+12 3.162E+12 5.235E+00 1.747E+04 3.100E+05 2.536E+06 2.864E+06 2.864E+06 3.495E+07 39.2449 1.00000
  3.548E+12 3.548E+12 5.259E+00 1.961E+04 3.478E+05 2.909E+06 3.277E+06 3.277E+06 3.508E+07 39.4751 1.00000
  3.981E+12 3.981E+12 5.284E+00 2.200E+04 3.902E+05 3.337E+06 3.749E+06 3.749E+06 3.520E+07 39.7054 1.00000
  4.467E+12 4.467E+12 5.309E+00 2.468E+04 4.378E+05 3.828E+06 4.290E+06 4.291E+06 3.532E+07 39.9356 1.00000
  5.012E+12 5.012E+12 5.334E+00 2.770E+04 4.912E+05 4.391E+06 4.910E+06 4.910E+06 3.544E+07 40.1659 1.00000
  5.623E+12 5.623E+12 5.360E+00 3.108E+04 5.511E+05 5.038E+06 5.620E+06 5.620E+06 3.556E+07 40.3962 1.00000
  6.310E+12 6.310E+12 5.385E+00 3.487E+04 6.184E+05 5.780E+06 6.433E+06 6.433E+06 3.567E+07 40.6264 1.00000
  7.079E+12 7.079E+12 5.411E+00 3.912E+04 6.938E+05 6.632E+06 7.365E+06 7.365E+06 3.579E+07 40.8567 1.00000
  7.943E+12 7.943E+12 5.436E+00 4.390E+04 7.784E+05 7.609E+06 8.432E+06 8.432E+06 3.590E+07 41.0869 1.00000
  8.913E+12 8.913E+12 5.462E+00 4.925E+04 8.733E+05 8.731E+06 9.654E+06 9.654E+06 3.600E+07 41.3172 1.00000
  1.000E+13 1.000E+13 5.488E+00 5.527E+04 9.799E+05 1.002E+07 1.105E+07 1.105E+07 3.611E+07 41.5475 1.00000
  1.122E+13 1.122E+13 5.514E+00 6.201E+04 1.099E+06 1.150E+07 1.266E+07 1.266E+07 3.621E+07 41.7777 1.00000
  1.259E+13 1.259E+13 5.541E+00 6.958E+04 1.233E+06 1.320E+07 1.450E+07 1.450E+07 3.631E+07 42.0080 1.00000
  1.413E+13 1.413E+13 5.567E+00 7.807E+04 1.384E+06 1.514E+07 1.661E+07 1.661E+07 3.641E+07 42.2382 1.00000
  1.585E+13 1.585E+13 5.594E+00 8.759E+04 1.553E+06 1.738E+07 1.902E+07 1.902E+07 3.651E+07 42.4685 1.00000
  1.778E+13 1.778E+13 5.620E+00 9.828E+04 1.742E+06 1.995E+07 2.179E+07 2.179E+07 3.661E+07 42.6987 1.00000
  1.995E+13 1.995E+13 5.647E+00 1.103E+05 1.954E+06 2.290E+07 2.496E+07 2.496E+07 3.670E+07 42.9290 1.00000
  2.239E+13 2.239E+13 5.674E+00 1.237E+05 2.193E+06 2.629E+07 2.860E+07 2.860E+07 3.679E+07 43.1593 1.00000
  2.512E+13 2.512E+13 5.701E+00 1.388E+05 2.460E+06 3.018E+07 3.278E+07 3.278E+07 3.688E+07 43.3895 1.00000
  2.818E+13 2.818E+13 5.728E+00 1.558E+05 2.760E+06 3.464E+07 3.756E+07 3.756E+07 3.697E+07 43.6198 1.00000
  3.162E+13 3.162E+13 5.756E+00 1.748E+05 3.097E+06 3.977E+07 4.305E+07 4.305E+07 3.705E+07 43.8500 1.00000
  3.548E+13 3.548E+13 5.783E+00 1.961E+05 3.475E+06 4.566E+07 4.934E+07 4.934E+07 3.714E+07 44.0803 1.00000
  3.981E+13 3.981E+13 5.811E+00 2.200E+05 3.898E+06 5.243E+07 5.655E+07 5.655E+07 3.722E+07 44.3106 1.00000
  4.467E+13 4.467E+13 5.839E+00 2.469E+05 4.374E+06 6.020E+07 6.482E+07 6.482E+07 3.730E+07 44.5408 1.00000
  5.012E+13 5.012E+13 5.867E+00 2.770E+05 4.907E+06 6.913E+07 7.432E+07 7.432E+07 3.738E+07 44.7711 1.00000
  5.623E+13 5.623E+13 5.895E+00 3.108E+05 5.506E+06 7.939E+07 8.520E+07 8.520E+07 3.745E+07 45.0013 1.00000
  6.310E+13 6.310E+13 5.923E+00 3.487E+05 6.177E+06 9.117E+07 9.769E+07 9.769E+07 3.753E+07 45.2316 1.00000
  7.079E+13 7.079E+13 5.952E+00 3.913E+05 6.931E+06 1.047E+08 1.120E+08 1.120E+08 3.760E+07 45.4618 1.00000
  7.943E+13 7.943E+13 5.981E+00 4.390E+05 7.776E+06 1.202E+08 1.285E+08 1.285E+08 3.768E+07 45.6921 1.00000
  8.913E+13 8.913E+13 6.009E+00 4.926E+05 8.724E+06 1.381E+08 1.473E+08 1.473E+08 3.775E+07 45.9224 1.00000
