 Incident particle is a Tau with M = 1776.82000 MeV
 Index = 0: SodiumMonoxide
      Absorber with <Z/A> = 0.48404
 Sternheimer coef:  a     k=m_s   x_0    x_1    I[eV]   Cbar  delta0
                 0.0750  3.6943  0.1652  2.9793  148.8  4.1892 0.00

 *** Table generated with PUMAS v1.00 ***

      T         p     Ionization  brems     pair     photonuc  Radloss    dE/dx   CSDA Range  delta   beta
    [MeV]    [MeV/c]  -----------------------[MeV cm^2/g]------------------------  [g/cm^2]
  1.000E+05 1.018E+05 2.076E+00 1.898E-04 2.980E-03 8.189E-03 1.136E-02 2.088E+00 2.395E+04  4.0634 0.99985
  1.122E+05 1.140E+05 2.095E+00 2.193E-04 3.588E-03 9.238E-03 1.304E-02 2.108E+00 2.977E+04  4.2678 0.99988
  1.259E+05 1.277E+05 2.114E+00 2.533E-04 4.304E-03 1.037E-02 1.492E-02 2.129E+00 3.623E+04  4.4749 0.99990
  1.413E+05 1.430E+05 2.133E+00 2.925E-04 5.148E-03 1.163E-02 1.707E-02 2.150E+00 4.341E+04  4.6846 0.99992
  1.585E+05 1.603E+05 2.152E+00 3.376E-04 6.139E-03 1.305E-02 1.953E-02 2.171E+00 5.138E+04  4.8966 0.99994
  1.778E+05 1.796E+05 2.170E+00 3.894E-04 7.301E-03 1.463E-02 2.232E-02 2.192E+00 6.025E+04  5.1108 0.99995
  1.995E+05 2.013E+05 2.189E+00 4.489E-04 8.661E-03 1.644E-02 2.555E-02 2.214E+00 7.010E+04  5.3270 0.99996
  2.239E+05 2.256E+05 2.207E+00 5.173E-04 1.025E-02 1.840E-02 2.917E-02 2.236E+00 8.104E+04  5.5449 0.99997
  2.512E+05 2.530E+05 2.225E+00 5.958E-04 1.210E-02 2.061E-02 3.330E-02 2.259E+00 9.319E+04  5.7646 0.99998
  2.818E+05 2.836E+05 2.243E+00 6.860E-04 1.425E-02 2.309E-02 3.803E-02 2.281E+00 1.067E+05  5.9858 0.99998
  3.162E+05 3.180E+05 2.261E+00 7.894E-04 1.676E-02 2.589E-02 4.344E-02 2.305E+00 1.217E+05  6.2083 0.99998
  3.548E+05 3.566E+05 2.279E+00 9.081E-04 1.966E-02 2.903E-02 4.960E-02 2.329E+00 1.383E+05  6.4320 0.99999
  3.981E+05 3.999E+05 2.297E+00 1.044E-03 2.302E-02 3.254E-02 5.660E-02 2.354E+00 1.568E+05  6.6568 0.99999
  4.467E+05 4.485E+05 2.315E+00 1.200E-03 2.690E-02 3.647E-02 6.457E-02 2.380E+00 1.774E+05  6.8826 0.99999
  5.012E+05 5.030E+05 2.333E+00 1.379E-03 3.139E-02 4.088E-02 7.365E-02 2.407E+00 2.001E+05  7.1092 0.99999
  5.623E+05 5.641E+05 2.351E+00 1.583E-03 3.656E-02 4.567E-02 8.381E-02 2.434E+00 2.254E+05  7.3366 1.00000
  6.310E+05 6.327E+05 2.368E+00 1.817E-03 4.252E-02 5.105E-02 9.539E-02 2.464E+00 2.534E+05  7.5645 1.00000
  7.079E+05 7.097E+05 2.386E+00 2.085E-03 4.938E-02 5.713E-02 1.086E-01 2.494E+00 2.845E+05  7.7930 1.00000
  7.943E+05 7.961E+05 2.403E+00 2.392E-03 5.725E-02 6.399E-02 1.236E-01 2.527E+00 3.189E+05  8.0218 1.00000
  8.913E+05 8.930E+05 2.420E+00 2.743E-03 6.629E-02 7.174E-02 1.408E-01 2.561E+00 3.570E+05  8.2510 1.00000
  1.000E+06 1.002E+06 2.438E+00 3.144E-03 7.665E-02 8.050E-02 1.603E-01 2.598E+00 3.992E+05  8.4805 1.00000
  1.122E+06 1.124E+06 2.455E+00 3.603E-03 8.850E-02 9.041E-02 1.825E-01 2.637E+00 4.458E+05  8.7102 1.00000
  1.259E+06 1.261E+06 2.472E+00 4.127E-03 1.021E-01 1.016E-01 2.078E-01 2.679E+00 4.973E+05  8.9400 1.00000
  1.413E+06 1.414E+06 2.489E+00 4.726E-03 1.176E-01 1.143E-01 2.366E-01 2.725E+00 5.541E+05  9.1700 1.00000
  1.585E+06 1.587E+06 2.505E+00 5.410E-03 1.352E-01 1.288E-01 2.694E-01 2.775E+00 6.168E+05  9.3999 1.00000
  1.778E+06 1.780E+06 2.522E+00 6.192E-03 1.554E-01 1.451E-01 3.067E-01 2.829E+00 6.858E+05  9.6299 1.00000
  1.995E+06 1.997E+06 2.538E+00 7.084E-03 1.784E-01 1.637E-01 3.491E-01 2.888E+00 7.618E+05  9.8600 1.00000
  2.239E+06 2.240E+06 2.555E+00 8.102E-03 2.045E-01 1.847E-01 3.974E-01 2.952E+00 8.452E+05 10.0901 1.00000
  2.512E+06 2.514E+06 2.571E+00 9.264E-03 2.343E-01 2.087E-01 4.522E-01 3.023E+00 9.366E+05 10.3201 1.00000
  2.818E+06 2.820E+06 2.587E+00 1.059E-02 2.680E-01 2.359E-01 5.145E-01 3.102E+00 1.037E+06 10.5502 1.00000
  3.162E+06 3.164E+06 2.603E+00 1.210E-02 3.064E-01 2.668E-01 5.853E-01 3.189E+00 1.146E+06 10.7804 1.00000
  3.548E+06 3.550E+06 2.619E+00 1.383E-02 3.499E-01 3.020E-01 6.656E-01 3.285E+00 1.265E+06 11.0105 1.00000
  3.981E+06 3.983E+06 2.635E+00 1.579E-02 3.992E-01 3.420E-01 7.569E-01 3.392E+00 1.395E+06 11.2407 1.00000
  4.467E+06 4.469E+06 2.650E+00 1.803E-02 4.550E-01 3.875E-01 8.605E-01 3.511E+00 1.536E+06 11.4708 1.00000
  5.012E+06 5.014E+06 2.666E+00 2.058E-02 5.182E-01 4.393E-01 9.781E-01 3.644E+00 1.688E+06 11.7010 1.00000
  5.623E+06 5.625E+06 2.681E+00 2.349E-02 5.898E-01 4.983E-01 1.112E+00 3.793E+00 1.853E+06 11.9312 1.00000
  6.310E+06 6.311E+06 2.696E+00 2.680E-02 6.706E-01 5.655E-01 1.263E+00 3.959E+00 2.030E+06 12.1614 1.00000
  7.079E+06 7.081E+06 2.711E+00 3.056E-02 7.620E-01 6.420E-01 1.435E+00 4.146E+00 2.220E+06 12.3916 1.00000
  7.943E+06 7.945E+06 2.726E+00 3.485E-02 8.652E-01 7.292E-01 1.629E+00 4.355E+00 2.423E+06 12.6218 1.00000
  8.913E+06 8.914E+06 2.740E+00 3.972E-02 9.817E-01 8.286E-01 1.850E+00 4.590E+00 2.640E+06 12.8520 1.00000
  1.000E+07 1.000E+07 2.755E+00 4.527E-02 1.113E+00 9.419E-01 2.100E+00 4.855E+00 2.871E+06 13.0822 1.00000
  1.122E+07 1.122E+07 2.769E+00 5.158E-02 1.261E+00 1.071E+00 2.384E+00 5.153E+00 3.115E+06 13.3124 1.00000
  1.259E+07 1.259E+07 2.783E+00 5.874E-02 1.429E+00 1.218E+00 2.705E+00 5.489E+00 3.372E+06 13.5426 1.00000
  1.413E+07 1.413E+07 2.797E+00 6.689E-02 1.617E+00 1.386E+00 3.070E+00 5.867E+00 3.643E+06 13.7729 1.00000
  1.585E+07 1.585E+07 2.811E+00 7.615E-02 1.829E+00 1.577E+00 3.483E+00 6.294E+00 3.927E+06 14.0031 1.00000
  1.778E+07 1.778E+07 2.825E+00 8.666E-02 2.068E+00 1.796E+00 3.950E+00 6.776E+00 4.223E+06 14.2333 1.00000
  1.995E+07 1.995E+07 2.839E+00 9.859E-02 2.337E+00 2.045E+00 4.480E+00 7.320E+00 4.532E+06 14.4636 1.00000
  2.239E+07 2.239E+07 2.853E+00 1.121E-01 2.640E+00 2.329E+00 5.081E+00 7.934E+00 4.851E+06 14.6938 1.00000
  2.512E+07 2.512E+07 2.867E+00 1.275E-01 2.980E+00 2.653E+00 5.761E+00 8.627E+00 5.182E+06 14.9240 1.00000
  2.818E+07 2.819E+07 2.880E+00 1.449E-01 3.363E+00 3.023E+00 6.531E+00 9.411E+00 5.522E+06 15.1543 1.00000
  3.162E+07 3.162E+07 2.894E+00 1.647E-01 3.794E+00 3.445E+00 7.404E+00 1.030E+01 5.872E+06 15.3845 1.00000
  3.548E+07 3.548E+07 2.907E+00 1.871E-01 4.279E+00 3.927E+00 8.393E+00 1.130E+01 6.230E+06 15.6148 1.00000
  3.981E+07 3.981E+07 2.921E+00 2.126E-01 4.823E+00 4.477E+00 9.512E+00 1.243E+01 6.596E+06 15.8450 1.00000
  4.467E+07 4.467E+07 2.934E+00 2.414E-01 5.436E+00 5.104E+00 1.078E+01 1.372E+01 6.968E+06 16.0753 1.00000
  5.012E+07 5.012E+07 2.948E+00 2.740E-01 6.123E+00 5.820E+00 1.222E+01 1.517E+01 7.346E+06 16.3055 1.00000
  5.623E+07 5.624E+07 2.961E+00 3.109E-01 6.896E+00 6.638E+00 1.385E+01 1.681E+01 7.730E+06 16.5358 1.00000
  6.310E+07 6.310E+07 2.975E+00 3.527E-01 7.765E+00 7.572E+00 1.569E+01 1.866E+01 8.118E+06 16.7660 1.00000
  7.079E+07 7.080E+07 2.988E+00 4.000E-01 8.741E+00 8.637E+00 1.778E+01 2.077E+01 8.510E+06 16.9963 1.00000
  7.943E+07 7.943E+07 3.001E+00 4.536E-01 9.836E+00 9.854E+00 2.014E+01 2.315E+01 8.904E+06 17.2265 1.00000
  8.913E+07 8.913E+07 3.015E+00 5.141E-01 1.107E+01 1.124E+01 2.283E+01 2.584E+01 9.301E+06 17.4568 1.00000
  1.000E+08 1.000E+08 3.028E+00 5.826E-01 1.245E+01 1.283E+01 2.586E+01 2.889E+01 9.700E+06 17.6870 1.00000
  1.122E+08 1.122E+08 3.042E+00 6.600E-01 1.400E+01 1.464E+01 2.930E+01 3.235E+01 1.010E+07 17.9173 1.00000
  1.259E+08 1.259E+08 3.056E+00 7.474E-01 1.574E+01 1.671E+01 3.320E+01 3.626E+01 1.050E+07 18.1475 1.00000
  1.413E+08 1.413E+08 3.069E+00 8.463E-01 1.770E+01 1.908E+01 3.762E+01 4.069E+01 1.090E+07 18.3778 1.00000
  1.585E+08 1.585E+08 3.083E+00 9.579E-01 1.990E+01 2.178E+01 4.263E+01 4.571E+01 1.130E+07 18.6081 1.00000
  1.778E+08 1.778E+08 3.096E+00 1.084E+00 2.236E+01 2.486E+01 4.831E+01 5.141E+01 1.170E+07 18.8383 1.00000
  1.995E+08 1.995E+08 3.110E+00 1.226E+00 2.513E+01 2.839E+01 5.474E+01 5.785E+01 1.210E+07 19.0686 1.00000
  2.239E+08 2.239E+08 3.124E+00 1.387E+00 2.824E+01 3.241E+01 6.204E+01 6.516E+01 1.250E+07 19.2988 1.00000
  2.512E+08 2.512E+08 3.138E+00 1.568E+00 3.172E+01 3.701E+01 7.030E+01 7.344E+01 1.289E+07 19.5291 1.00000
  2.818E+08 2.818E+08 3.152E+00 1.772E+00 3.564E+01 4.227E+01 7.968E+01 8.283E+01 1.329E+07 19.7593 1.00000
  3.162E+08 3.162E+08 3.166E+00 2.003E+00 4.003E+01 4.827E+01 9.030E+01 9.347E+01 1.368E+07 19.9896 1.00000
  3.548E+08 3.548E+08 3.180E+00 2.263E+00 4.496E+01 5.513E+01 1.024E+02 1.055E+02 1.407E+07 20.2199 1.00000
  3.981E+08 3.981E+08 3.194E+00 2.556E+00 5.049E+01 6.297E+01 1.160E+02 1.192E+02 1.445E+07 20.4501 1.00000
  4.467E+08 4.467E+08 3.208E+00 2.886E+00 5.670E+01 7.193E+01 1.315E+02 1.347E+02 1.484E+07 20.6804 1.00000
  5.012E+08 5.012E+08 3.222E+00 3.258E+00 6.367E+01 8.217E+01 1.491E+02 1.523E+02 1.522E+07 20.9106 1.00000
  5.623E+08 5.623E+08 3.237E+00 3.676E+00 7.149E+01 9.388E+01 1.690E+02 1.723E+02 1.560E+07 21.1409 1.00000
  6.310E+08 6.310E+08 3.251E+00 4.148E+00 8.027E+01 1.073E+02 1.917E+02 1.949E+02 1.597E+07 21.3711 1.00000
  7.079E+08 7.079E+08 3.265E+00 4.679E+00 9.012E+01 1.225E+02 2.173E+02 2.206E+02 1.634E+07 21.6014 1.00000
  7.943E+08 7.943E+08 3.280E+00 5.277E+00 1.012E+02 1.400E+02 2.465E+02 2.497E+02 1.671E+07 21.8317 1.00000
  8.913E+08 8.913E+08 3.295E+00 5.950E+00 1.136E+02 1.600E+02 2.795E+02 2.828E+02 1.708E+07 22.0619 1.00000
  1.000E+09 1.000E+09 3.309E+00 6.708E+00 1.275E+02 1.828E+02 3.170E+02 3.203E+02 1.744E+07 22.2922 1.00000
  1.122E+09 1.122E+09 3.324E+00 7.560E+00 1.431E+02 2.090E+02 3.596E+02 3.629E+02 1.780E+07 22.5224 1.00000
  1.259E+09 1.259E+09 3.339E+00 8.518E+00 1.606E+02 2.388E+02 4.080E+02 4.113E+02 1.815E+07 22.7527 1.00000
  1.413E+09 1.413E+09 3.354E+00 9.597E+00 1.803E+02 2.730E+02 4.628E+02 4.662E+02 1.850E+07 22.9829 1.00000
  1.585E+09 1.585E+09 3.369E+00 1.081E+01 2.023E+02 3.120E+02 5.251E+02 5.285E+02 1.885E+07 23.2132 1.00000
  1.778E+09 1.778E+09 3.384E+00 1.217E+01 2.271E+02 3.566E+02 5.959E+02 5.993E+02 1.920E+07 23.4435 1.00000
  1.995E+09 1.995E+09 3.399E+00 1.371E+01 2.549E+02 4.077E+02 6.763E+02 6.797E+02 1.954E+07 23.6737 1.00000
  2.239E+09 2.239E+09 3.414E+00 1.543E+01 2.860E+02 4.660E+02 7.675E+02 7.709E+02 1.987E+07 23.9040 1.00000
  2.512E+09 2.512E+09 3.430E+00 1.736E+01 3.210E+02 5.328E+02 8.712E+02 8.746E+02 2.021E+07 24.1342 1.00000
  2.818E+09 2.818E+09 3.445E+00 1.954E+01 3.603E+02 6.092E+02 9.890E+02 9.924E+02 2.054E+07 24.3645 1.00000
  3.162E+09 3.162E+09 3.460E+00 2.199E+01 4.043E+02 6.965E+02 1.123E+03 1.126E+03 2.086E+07 24.5948 1.00000
  3.548E+09 3.548E+09 3.476E+00 2.473E+01 4.537E+02 7.964E+02 1.275E+03 1.278E+03 2.119E+07 24.8250 1.00000
  3.981E+09 3.981E+09 3.492E+00 2.782E+01 5.091E+02 9.107E+02 1.448E+03 1.451E+03 2.150E+07 25.0553 1.00000
  4.467E+09 4.467E+09 3.507E+00 3.129E+01 5.713E+02 1.041E+03 1.644E+03 1.648E+03 2.182E+07 25.2855 1.00000
  5.012E+09 5.012E+09 3.523E+00 3.518E+01 6.411E+02 1.191E+03 1.867E+03 1.871E+03 2.213E+07 25.5158 1.00000
  5.623E+09 5.623E+09 3.539E+00 3.956E+01 7.194E+02 1.362E+03 2.121E+03 2.125E+03 2.244E+07 25.7460 1.00000
  6.310E+09 6.310E+09 3.555E+00 4.447E+01 8.072E+02 1.558E+03 2.410E+03 2.413E+03 2.274E+07 25.9763 1.00000
  7.079E+09 7.079E+09 3.571E+00 4.999E+01 9.058E+02 1.782E+03 2.738E+03 2.741E+03 2.304E+07 26.2066 1.00000
  7.943E+09 7.943E+09 3.588E+00 5.619E+01 1.016E+03 2.038E+03 3.111E+03 3.115E+03 2.334E+07 26.4368 1.00000
  8.913E+09 8.913E+09 3.604E+00 6.314E+01 1.140E+03 2.332E+03 3.535E+03 3.539E+03 2.363E+07 26.6671 1.00000
  1.000E+10 1.000E+10 3.620E+00 7.095E+01 1.280E+03 2.668E+03 4.018E+03 4.022E+03 2.392E+07 26.8973 1.00000
  1.122E+10 1.122E+10 3.637E+00 7.972E+01 1.436E+03 3.052E+03 4.568E+03 4.571E+03 2.420E+07 27.1276 1.00000
  1.259E+10 1.259E+10 3.653E+00 8.957E+01 1.611E+03 3.492E+03 5.192E+03 5.196E+03 2.449E+07 27.3579 1.00000
  1.413E+10 1.413E+10 3.670E+00 1.006E+02 1.808E+03 3.995E+03 5.904E+03 5.907E+03 2.476E+07 27.5881 1.00000
  1.585E+10 1.585E+10 3.687E+00 1.130E+02 2.029E+03 4.571E+03 6.713E+03 6.717E+03 2.504E+07 27.8184 1.00000
  1.778E+10 1.778E+10 3.704E+00 1.270E+02 2.276E+03 5.231E+03 7.634E+03 7.638E+03 2.531E+07 28.0486 1.00000
  1.995E+10 1.995E+10 3.720E+00 1.426E+02 2.554E+03 5.986E+03 8.682E+03 8.686E+03 2.557E+07 28.2789 1.00000
  2.239E+10 2.239E+10 3.738E+00 1.601E+02 2.866E+03 6.850E+03 9.876E+03 9.880E+03 2.584E+07 28.5092 1.00000
  2.512E+10 2.512E+10 3.755E+00 1.798E+02 3.215E+03 7.840E+03 1.124E+04 1.124E+04 2.610E+07 28.7394 1.00000
  2.818E+10 2.818E+10 3.772E+00 2.019E+02 3.608E+03 8.973E+03 1.278E+04 1.279E+04 2.635E+07 28.9697 1.00000
  3.162E+10 3.162E+10 3.789E+00 2.267E+02 4.048E+03 1.027E+04 1.454E+04 1.455E+04 2.661E+07 29.1999 1.00000
  3.548E+10 3.548E+10 3.807E+00 2.546E+02 4.542E+03 1.176E+04 1.655E+04 1.656E+04 2.686E+07 29.4302 1.00000
  3.981E+10 3.981E+10 3.824E+00 2.858E+02 5.096E+03 1.346E+04 1.884E+04 1.884E+04 2.710E+07 29.6604 1.00000
  4.467E+10 4.467E+10 3.842E+00 3.209E+02 5.718E+03 1.541E+04 2.144E+04 2.145E+04 2.734E+07 29.8907 1.00000
  5.012E+10 5.012E+10 3.860E+00 3.603E+02 6.415E+03 1.764E+04 2.441E+04 2.442E+04 2.758E+07 30.1210 1.00000
  5.623E+10 5.623E+10 3.877E+00 4.044E+02 7.198E+03 2.019E+04 2.779E+04 2.780E+04 2.782E+07 30.3512 1.00000
  6.310E+10 6.310E+10 3.895E+00 4.540E+02 8.076E+03 2.312E+04 3.165E+04 3.165E+04 2.805E+07 30.5815 1.00000
  7.079E+10 7.079E+10 3.913E+00 5.096E+02 9.061E+03 2.647E+04 3.604E+04 3.605E+04 2.828E+07 30.8117 1.00000
  7.943E+10 7.943E+10 3.932E+00 5.720E+02 1.017E+04 3.031E+04 4.105E+04 4.105E+04 2.850E+07 31.0420 1.00000
  8.913E+10 8.913E+10 3.950E+00 6.420E+02 1.141E+04 3.471E+04 4.676E+04 4.676E+04 2.872E+07 31.2723 1.00000
  1.000E+11 1.000E+11 3.968E+00 7.206E+02 1.280E+04 3.975E+04 5.327E+04 5.327E+04 2.894E+07 31.5025 1.00000
  1.122E+11 1.122E+11 3.987E+00 8.088E+02 1.436E+04 4.552E+04 6.069E+04 6.070E+04 2.916E+07 31.7328 1.00000
  1.259E+11 1.259E+11 4.005E+00 9.077E+02 1.611E+04 5.214E+04 6.916E+04 6.916E+04 2.937E+07 31.9630 1.00000
  1.413E+11 1.413E+11 4.024E+00 1.019E+03 1.808E+04 5.972E+04 7.881E+04 7.882E+04 2.958E+07 32.1933 1.00000
  1.585E+11 1.585E+11 4.042E+00 1.143E+03 2.028E+04 6.840E+04 8.983E+04 8.983E+04 2.978E+07 32.4235 1.00000
  1.778E+11 1.778E+11 4.061E+00 1.283E+03 2.276E+04 7.835E+04 1.024E+05 1.024E+05 2.999E+07 32.6538 1.00000
  1.995E+11 1.995E+11 4.080E+00 1.440E+03 2.553E+04 8.975E+04 1.167E+05 1.167E+05 3.018E+07 32.8841 1.00000
  2.239E+11 2.239E+11 4.099E+00 1.616E+03 2.865E+04 1.028E+05 1.331E+05 1.331E+05 3.038E+07 33.1143 1.00000
  2.512E+11 2.512E+11 4.119E+00 1.813E+03 3.214E+04 1.178E+05 1.518E+05 1.518E+05 3.057E+07 33.3446 1.00000
  2.818E+11 2.818E+11 4.138E+00 2.035E+03 3.606E+04 1.350E+05 1.731E+05 1.731E+05 3.076E+07 33.5748 1.00000
  3.162E+11 3.162E+11 4.157E+00 2.284E+03 4.046E+04 1.546E+05 1.974E+05 1.974E+05 3.095E+07 33.8051 1.00000
  3.548E+11 3.548E+11 4.177E+00 2.563E+03 4.540E+04 1.772E+05 2.252E+05 2.252E+05 3.113E+07 34.0354 1.00000
  3.981E+11 3.981E+11 4.196E+00 2.876E+03 5.094E+04 2.030E+05 2.569E+05 2.569E+05 3.131E+07 34.2656 1.00000
  4.467E+11 4.467E+11 4.216E+00 3.227E+03 5.715E+04 2.327E+05 2.931E+05 2.931E+05 3.149E+07 34.4959 1.00000
  5.012E+11 5.012E+11 4.236E+00 3.621E+03 6.412E+04 2.667E+05 3.344E+05 3.344E+05 3.166E+07 34.7261 1.00000
  5.623E+11 5.623E+11 4.256E+00 4.063E+03 7.194E+04 3.056E+05 3.816E+05 3.816E+05 3.184E+07 34.9564 1.00000
  6.310E+11 6.310E+11 4.276E+00 4.559E+03 8.072E+04 3.503E+05 4.355E+05 4.356E+05 3.200E+07 35.1866 1.00000
  7.079E+11 7.079E+11 4.296E+00 5.116E+03 9.057E+04 4.015E+05 4.972E+05 4.972E+05 3.217E+07 35.4169 1.00000
  7.943E+11 7.943E+11 4.316E+00 5.741E+03 1.016E+05 4.602E+05 5.675E+05 5.676E+05 3.233E+07 35.6472 1.00000
  8.913E+11 8.913E+11 4.337E+00 6.442E+03 1.140E+05 5.275E+05 6.480E+05 6.480E+05 3.249E+07 35.8774 1.00000
  1.000E+12 1.000E+12 4.357E+00 7.228E+03 1.279E+05 6.047E+05 7.399E+05 7.399E+05 3.265E+07 36.1077 1.00000
  1.122E+12 1.122E+12 4.378E+00 8.110E+03 1.435E+05 6.933E+05 8.449E+05 8.449E+05 3.281E+07 36.3379 1.00000
  1.259E+12 1.259E+12 4.399E+00 9.100E+03 1.610E+05 7.948E+05 9.650E+05 9.650E+05 3.296E+07 36.5682 1.00000
  1.413E+12 1.413E+12 4.420E+00 1.021E+04 1.807E+05 9.113E+05 1.102E+06 1.102E+06 3.311E+07 36.7985 1.00000
  1.585E+12 1.585E+12 4.440E+00 1.146E+04 2.027E+05 1.045E+06 1.259E+06 1.259E+06 3.325E+07 37.0287 1.00000
  1.778E+12 1.778E+12 4.462E+00 1.286E+04 2.274E+05 1.198E+06 1.438E+06 1.438E+06 3.340E+07 37.2590 1.00000
  1.995E+12 1.995E+12 4.483E+00 1.443E+04 2.552E+05 1.374E+06 1.644E+06 1.644E+06 3.354E+07 37.4892 1.00000
  2.239E+12 2.239E+12 4.504E+00 1.619E+04 2.863E+05 1.576E+06 1.878E+06 1.878E+06 3.368E+07 37.7195 1.00000
  2.512E+12 2.512E+12 4.526E+00 1.816E+04 3.212E+05 1.807E+06 2.146E+06 2.146E+06 3.381E+07 37.9497 1.00000
  2.818E+12 2.818E+12 4.547E+00 2.038E+04 3.604E+05 2.072E+06 2.453E+06 2.453E+06 3.395E+07 38.1800 1.00000
  3.162E+12 3.162E+12 4.569E+00 2.286E+04 4.043E+05 2.377E+06 2.804E+06 2.804E+06 3.408E+07 38.4103 1.00000
  3.548E+12 3.548E+12 4.591E+00 2.565E+04 4.537E+05 2.726E+06 3.206E+06 3.206E+06 3.421E+07 38.6405 1.00000
  3.981E+12 3.981E+12 4.612E+00 2.879E+04 5.090E+05 3.127E+06 3.665E+06 3.665E+06 3.434E+07 38.8708 1.00000
  4.467E+12 4.467E+12 4.635E+00 3.230E+04 5.711E+05 3.587E+06 4.191E+06 4.191E+06 3.446E+07 39.1010 1.00000
  5.012E+12 5.012E+12 4.657E+00 3.624E+04 6.407E+05 4.115E+06 4.792E+06 4.792E+06 3.458E+07 39.3313 1.00000
  5.623E+12 5.623E+12 4.679E+00 4.066E+04 7.189E+05 4.721E+06 5.481E+06 5.481E+06 3.470E+07 39.5616 1.00000
  6.310E+12 6.310E+12 4.701E+00 4.562E+04 8.066E+05 5.417E+06 6.269E+06 6.269E+06 3.482E+07 39.7918 1.00000
  7.079E+12 7.079E+12 4.724E+00 5.119E+04 9.049E+05 6.215E+06 7.171E+06 7.171E+06 3.493E+07 40.0221 1.00000
  7.943E+12 7.943E+12 4.746E+00 5.744E+04 1.015E+06 7.131E+06 8.204E+06 8.204E+06 3.505E+07 40.2523 1.00000
  8.913E+12 8.913E+12 4.769E+00 6.445E+04 1.139E+06 8.183E+06 9.386E+06 9.386E+06 3.516E+07 40.4826 1.00000
  1.000E+13 1.000E+13 4.792E+00 7.231E+04 1.278E+06 9.390E+06 1.074E+07 1.074E+07 3.527E+07 40.7129 1.00000
  1.122E+13 1.122E+13 4.815E+00 8.113E+04 1.434E+06 1.078E+07 1.229E+07 1.229E+07 3.537E+07 40.9431 1.00000
  1.259E+13 1.259E+13 4.838E+00 9.103E+04 1.609E+06 1.237E+07 1.407E+07 1.407E+07 3.548E+07 41.1734 1.00000
  1.413E+13 1.413E+13 4.862E+00 1.021E+05 1.805E+06 1.419E+07 1.610E+07 1.610E+07 3.558E+07 41.4036 1.00000
  1.585E+13 1.585E+13 4.885E+00 1.146E+05 2.025E+06 1.629E+07 1.843E+07 1.843E+07 3.568E+07 41.6339 1.00000
  1.778E+13 1.778E+13 4.908E+00 1.286E+05 2.272E+06 1.870E+07 2.110E+07 2.110E+07 3.578E+07 41.8641 1.00000
  1.995E+13 1.995E+13 4.932E+00 1.443E+05 2.549E+06 2.146E+07 2.415E+07 2.415E+07 3.587E+07 42.0944 1.00000
  2.239E+13 2.239E+13 4.956E+00 1.619E+05 2.860E+06 2.464E+07 2.766E+07 2.766E+07 3.597E+07 42.3247 1.00000
  2.512E+13 2.512E+13 4.980E+00 1.816E+05 3.209E+06 2.828E+07 3.167E+07 3.167E+07 3.606E+07 42.5549 1.00000
  2.818E+13 2.818E+13 5.004E+00 2.038E+05 3.600E+06 3.247E+07 3.627E+07 3.627E+07 3.615E+07 42.7852 1.00000
  3.162E+13 3.162E+13 5.028E+00 2.287E+05 4.039E+06 3.727E+07 4.154E+07 4.154E+07 3.624E+07 43.0154 1.00000
  3.548E+13 3.548E+13 5.052E+00 2.566E+05 4.532E+06 4.280E+07 4.758E+07 4.758E+07 3.633E+07 43.2457 1.00000
  3.981E+13 3.981E+13 5.077E+00 2.879E+05 5.085E+06 4.914E+07 5.451E+07 5.451E+07 3.641E+07 43.4760 1.00000
  4.467E+13 4.467E+13 5.101E+00 3.230E+05 5.705E+06 5.642E+07 6.245E+07 6.245E+07 3.650E+07 43.7062 1.00000
  5.012E+13 5.012E+13 5.126E+00 3.624E+05 6.401E+06 6.479E+07 7.155E+07 7.155E+07 3.658E+07 43.9365 1.00000
  5.623E+13 5.623E+13 5.151E+00 4.067E+05 7.181E+06 7.440E+07 8.199E+07 8.199E+07 3.666E+07 44.1667 1.00000
  6.310E+13 6.310E+13 5.176E+00 4.563E+05 8.057E+06 8.544E+07 9.395E+07 9.395E+07 3.674E+07 44.3970 1.00000
  7.079E+13 7.079E+13 5.201E+00 5.119E+05 9.040E+06 9.812E+07 1.077E+08 1.077E+08 3.681E+07 44.6272 1.00000
  7.943E+13 7.943E+13 5.226E+00 5.744E+05 1.014E+07 1.127E+08 1.234E+08 1.234E+08 3.689E+07 44.8575 1.00000
  8.913E+13 8.913E+13 5.251E+00 6.445E+05 1.138E+07 1.294E+08 1.415E+08 1.415E+08 3.696E+07 45.0878 1.00000
