 Incident particle is a Tau with M = 1776.82000 MeV
 Index = 0: SodiumCarbonate
      Absorber with <Z/A> = 0.49062
 Sternheimer coef:  a     k=m_s   x_0    x_1    I[eV]   Cbar  delta0
                 0.0872  3.5638  0.1287  2.8591  125.0  3.7178 0.00

 *** Table generated with PUMAS v1.00 ***

      T         p     Ionization  brems     pair     photonuc  Radloss    dE/dx   CSDA Range  delta   beta
    [MeV]    [MeV/c]  -----------------------[MeV cm^2/g]------------------------  [g/cm^2]
  1.000E+05 1.018E+05 2.098E+00 1.720E-04 2.691E-03 8.233E-03 1.110E-02 2.109E+00 2.371E+04  4.5007 0.99985
  1.122E+05 1.140E+05 2.117E+00 1.988E-04 3.242E-03 9.291E-03 1.273E-02 2.130E+00 2.947E+04  4.7088 0.99988
  1.259E+05 1.277E+05 2.136E+00 2.296E-04 3.892E-03 1.043E-02 1.455E-02 2.150E+00 3.586E+04  4.9193 0.99990
  1.413E+05 1.430E+05 2.155E+00 2.650E-04 4.657E-03 1.171E-02 1.663E-02 2.171E+00 4.297E+04  5.1321 0.99992
  1.585E+05 1.603E+05 2.173E+00 3.058E-04 5.556E-03 1.314E-02 1.900E-02 2.192E+00 5.087E+04  5.3469 0.99994
  1.778E+05 1.796E+05 2.192E+00 3.527E-04 6.611E-03 1.474E-02 2.170E-02 2.214E+00 5.965E+04  5.5637 0.99995
  1.995E+05 2.013E+05 2.210E+00 4.066E-04 7.845E-03 1.656E-02 2.481E-02 2.235E+00 6.941E+04  5.7823 0.99996
  2.239E+05 2.256E+05 2.229E+00 4.685E-04 9.287E-03 1.855E-02 2.830E-02 2.257E+00 8.025E+04  6.0025 0.99997
  2.512E+05 2.530E+05 2.247E+00 5.395E-04 1.097E-02 2.077E-02 3.228E-02 2.279E+00 9.229E+04  6.2242 0.99998
  2.818E+05 2.836E+05 2.265E+00 6.211E-04 1.293E-02 2.328E-02 3.683E-02 2.302E+00 1.057E+05  6.4472 0.99998
  3.162E+05 3.180E+05 2.284E+00 7.147E-04 1.520E-02 2.611E-02 4.203E-02 2.326E+00 1.205E+05  6.6713 0.99998
  3.548E+05 3.566E+05 2.302E+00 8.220E-04 1.784E-02 2.929E-02 4.795E-02 2.350E+00 1.370E+05  6.8965 0.99999
  3.981E+05 3.999E+05 2.320E+00 9.451E-04 2.089E-02 3.284E-02 5.468E-02 2.374E+00 1.554E+05  7.1226 0.99999
  4.467E+05 4.485E+05 2.338E+00 1.086E-03 2.443E-02 3.681E-02 6.233E-02 2.400E+00 1.757E+05  7.3495 0.99999
  5.012E+05 5.030E+05 2.356E+00 1.248E-03 2.851E-02 4.129E-02 7.104E-02 2.427E+00 1.983E+05  7.5771 0.99999
  5.623E+05 5.641E+05 2.374E+00 1.433E-03 3.321E-02 4.613E-02 8.077E-02 2.454E+00 2.234E+05  7.8053 1.00000
  6.310E+05 6.327E+05 2.391E+00 1.645E-03 3.864E-02 5.158E-02 9.187E-02 2.483E+00 2.512E+05  8.0339 1.00000
  7.079E+05 7.097E+05 2.409E+00 1.887E-03 4.488E-02 5.774E-02 1.045E-01 2.513E+00 2.820E+05  8.2630 1.00000
  7.943E+05 7.961E+05 2.427E+00 2.165E-03 5.205E-02 6.469E-02 1.189E-01 2.545E+00 3.161E+05  8.4923 1.00000
  8.913E+05 8.930E+05 2.444E+00 2.482E-03 6.028E-02 7.254E-02 1.353E-01 2.579E+00 3.540E+05  8.7219 1.00000
  1.000E+06 1.002E+06 2.461E+00 2.845E-03 6.971E-02 8.142E-02 1.540E-01 2.615E+00 3.958E+05  8.9516 1.00000
  1.122E+06 1.124E+06 2.479E+00 3.260E-03 8.051E-02 9.146E-02 1.752E-01 2.654E+00 4.421E+05  9.1815 1.00000
  1.259E+06 1.261E+06 2.496E+00 3.735E-03 9.288E-02 1.028E-01 1.994E-01 2.695E+00 4.933E+05  9.4114 1.00000
  1.413E+06 1.414E+06 2.513E+00 4.277E-03 1.070E-01 1.157E-01 2.270E-01 2.740E+00 5.498E+05  9.6413 1.00000
  1.585E+06 1.587E+06 2.530E+00 4.897E-03 1.231E-01 1.303E-01 2.584E-01 2.788E+00 6.122E+05  9.8713 1.00000
  1.778E+06 1.780E+06 2.547E+00 5.604E-03 1.415E-01 1.469E-01 2.940E-01 2.841E+00 6.809E+05 10.1013 1.00000
  1.995E+06 1.997E+06 2.564E+00 6.412E-03 1.625E-01 1.657E-01 3.346E-01 2.898E+00 7.565E+05 10.3314 1.00000
  2.239E+06 2.240E+06 2.580E+00 7.334E-03 1.863E-01 1.871E-01 3.808E-01 2.961E+00 8.396E+05 10.5615 1.00000
  2.512E+06 2.514E+06 2.597E+00 8.387E-03 2.135E-01 2.114E-01 4.332E-01 3.030E+00 9.308E+05 10.7915 1.00000
  2.818E+06 2.820E+06 2.613E+00 9.588E-03 2.443E-01 2.390E-01 4.928E-01 3.106E+00 1.031E+06 11.0216 1.00000
  3.162E+06 3.164E+06 2.629E+00 1.096E-02 2.793E-01 2.703E-01 5.606E-01 3.190E+00 1.140E+06 11.2518 1.00000
  3.548E+06 3.550E+06 2.646E+00 1.252E-02 3.190E-01 3.060E-01 6.375E-01 3.283E+00 1.259E+06 11.4819 1.00000
  3.981E+06 3.983E+06 2.661E+00 1.430E-02 3.641E-01 3.466E-01 7.249E-01 3.386E+00 1.389E+06 11.7121 1.00000
  4.467E+06 4.469E+06 2.677E+00 1.633E-02 4.151E-01 3.927E-01 8.242E-01 3.501E+00 1.530E+06 11.9422 1.00000
  5.012E+06 5.014E+06 2.693E+00 1.864E-02 4.729E-01 4.453E-01 9.368E-01 3.630E+00 1.683E+06 12.1724 1.00000
  5.623E+06 5.625E+06 2.708E+00 2.128E-02 5.383E-01 5.052E-01 1.065E+00 3.773E+00 1.848E+06 12.4026 1.00000
  6.310E+06 6.311E+06 2.723E+00 2.428E-02 6.122E-01 5.733E-01 1.210E+00 3.933E+00 2.027E+06 12.6328 1.00000
  7.079E+06 7.081E+06 2.739E+00 2.770E-02 6.958E-01 6.510E-01 1.374E+00 4.113E+00 2.218E+06 12.8630 1.00000
  7.943E+06 7.945E+06 2.754E+00 3.159E-02 7.902E-01 7.394E-01 1.561E+00 4.315E+00 2.423E+06 13.0932 1.00000
  8.913E+06 8.914E+06 2.768E+00 3.601E-02 8.967E-01 8.403E-01 1.773E+00 4.541E+00 2.642E+06 13.3234 1.00000
  1.000E+07 1.000E+07 2.783E+00 4.105E-02 1.017E+00 9.552E-01 2.013E+00 4.796E+00 2.875E+06 13.5536 1.00000
  1.122E+07 1.122E+07 2.798E+00 4.677E-02 1.153E+00 1.086E+00 2.286E+00 5.083E+00 3.123E+06 13.7838 1.00000
  1.259E+07 1.259E+07 2.812E+00 5.328E-02 1.306E+00 1.236E+00 2.594E+00 5.406E+00 3.384E+06 14.0140 1.00000
  1.413E+07 1.413E+07 2.826E+00 6.068E-02 1.478E+00 1.406E+00 2.944E+00 5.771E+00 3.659E+06 14.2443 1.00000
  1.585E+07 1.585E+07 2.840E+00 6.909E-02 1.672E+00 1.600E+00 3.341E+00 6.182E+00 3.948E+06 14.4745 1.00000
  1.778E+07 1.778E+07 2.855E+00 7.864E-02 1.891E+00 1.822E+00 3.791E+00 6.646E+00 4.250E+06 14.7047 1.00000
  1.995E+07 1.995E+07 2.869E+00 8.949E-02 2.137E+00 2.074E+00 4.301E+00 7.169E+00 4.564E+06 14.9350 1.00000
  2.239E+07 2.239E+07 2.882E+00 1.018E-01 2.414E+00 2.362E+00 4.879E+00 7.761E+00 4.891E+06 15.1652 1.00000
  2.512E+07 2.512E+07 2.896E+00 1.158E-01 2.726E+00 2.691E+00 5.534E+00 8.430E+00 5.229E+06 15.3954 1.00000
  2.818E+07 2.819E+07 2.910E+00 1.316E-01 3.077E+00 3.067E+00 6.276E+00 9.186E+00 5.577E+06 15.6257 1.00000
  3.162E+07 3.162E+07 2.924E+00 1.496E-01 3.472E+00 3.495E+00 7.117E+00 1.004E+01 5.936E+06 15.8559 1.00000
  3.548E+07 3.548E+07 2.938E+00 1.700E-01 3.916E+00 3.984E+00 8.069E+00 1.101E+01 6.303E+06 16.0862 1.00000
  3.981E+07 3.981E+07 2.951E+00 1.931E-01 4.415E+00 4.541E+00 9.149E+00 1.210E+01 6.679E+06 16.3164 1.00000
  4.467E+07 4.467E+07 2.965E+00 2.193E-01 4.976E+00 5.178E+00 1.037E+01 1.334E+01 7.062E+06 16.5467 1.00000
  5.012E+07 5.012E+07 2.978E+00 2.490E-01 5.606E+00 5.905E+00 1.176E+01 1.474E+01 7.451E+06 16.7769 1.00000
  5.623E+07 5.624E+07 2.992E+00 2.826E-01 6.314E+00 6.735E+00 1.333E+01 1.632E+01 7.846E+06 17.0072 1.00000
  6.310E+07 6.310E+07 3.006E+00 3.207E-01 7.110E+00 7.682E+00 1.511E+01 1.812E+01 8.245E+06 17.2374 1.00000
  7.079E+07 7.080E+07 3.019E+00 3.638E-01 8.004E+00 8.763E+00 1.713E+01 2.015E+01 8.649E+06 17.4677 1.00000
  7.943E+07 7.943E+07 3.033E+00 4.126E-01 9.009E+00 9.998E+00 1.942E+01 2.245E+01 9.055E+06 17.6979 1.00000
  8.913E+07 8.913E+07 3.047E+00 4.677E-01 1.014E+01 1.141E+01 2.201E+01 2.506E+01 9.465E+06 17.9282 1.00000
  1.000E+08 1.000E+08 3.060E+00 5.301E-01 1.140E+01 1.302E+01 2.495E+01 2.801E+01 9.876E+06 18.1584 1.00000
  1.122E+08 1.122E+08 3.074E+00 6.007E-01 1.283E+01 1.486E+01 2.828E+01 3.136E+01 1.029E+07 18.3887 1.00000
  1.259E+08 1.259E+08 3.088E+00 6.804E-01 1.442E+01 1.696E+01 3.206E+01 3.515E+01 1.070E+07 18.6189 1.00000
  1.413E+08 1.413E+08 3.102E+00 7.705E-01 1.622E+01 1.936E+01 3.634E+01 3.944E+01 1.111E+07 18.8492 1.00000
  1.585E+08 1.585E+08 3.115E+00 8.723E-01 1.823E+01 2.210E+01 4.120E+01 4.431E+01 1.153E+07 19.0795 1.00000
  1.778E+08 1.778E+08 3.129E+00 9.872E-01 2.049E+01 2.523E+01 4.670E+01 4.983E+01 1.194E+07 19.3097 1.00000
  1.995E+08 1.995E+08 3.143E+00 1.117E+00 2.303E+01 2.880E+01 5.295E+01 5.609E+01 1.235E+07 19.5400 1.00000
  2.239E+08 2.239E+08 3.157E+00 1.264E+00 2.587E+01 3.289E+01 6.002E+01 6.318E+01 1.276E+07 19.7702 1.00000
  2.512E+08 2.512E+08 3.171E+00 1.429E+00 2.907E+01 3.755E+01 6.805E+01 7.122E+01 1.317E+07 20.0005 1.00000
  2.818E+08 2.818E+08 3.185E+00 1.615E+00 3.266E+01 4.289E+01 7.716E+01 8.035E+01 1.357E+07 20.2307 1.00000
  3.162E+08 3.162E+08 3.200E+00 1.826E+00 3.669E+01 4.898E+01 8.749E+01 9.069E+01 1.398E+07 20.4610 1.00000
  3.548E+08 3.548E+08 3.214E+00 2.063E+00 4.121E+01 5.594E+01 9.921E+01 1.024E+02 1.438E+07 20.6913 1.00000
  3.981E+08 3.981E+08 3.228E+00 2.330E+00 4.628E+01 6.389E+01 1.125E+02 1.157E+02 1.478E+07 20.9215 1.00000
  4.467E+08 4.467E+08 3.242E+00 2.632E+00 5.197E+01 7.299E+01 1.276E+02 1.308E+02 1.517E+07 21.1518 1.00000
  5.012E+08 5.012E+08 3.257E+00 2.971E+00 5.836E+01 8.338E+01 1.447E+02 1.480E+02 1.557E+07 21.3820 1.00000
  5.623E+08 5.623E+08 3.271E+00 3.354E+00 6.553E+01 9.525E+01 1.641E+02 1.674E+02 1.595E+07 21.6123 1.00000
  6.310E+08 6.310E+08 3.286E+00 3.785E+00 7.358E+01 1.088E+02 1.862E+02 1.895E+02 1.634E+07 21.8425 1.00000
  7.079E+08 7.079E+08 3.301E+00 4.270E+00 8.260E+01 1.243E+02 2.112E+02 2.145E+02 1.672E+07 22.0728 1.00000
  7.943E+08 7.943E+08 3.315E+00 4.817E+00 9.274E+01 1.421E+02 2.396E+02 2.429E+02 1.710E+07 22.3031 1.00000
  8.913E+08 8.913E+08 3.330E+00 5.432E+00 1.041E+02 1.623E+02 2.719E+02 2.752E+02 1.748E+07 22.5333 1.00000
  1.000E+09 1.000E+09 3.345E+00 6.124E+00 1.169E+02 1.855E+02 3.085E+02 3.119E+02 1.785E+07 22.7636 1.00000
  1.122E+09 1.122E+09 3.360E+00 6.903E+00 1.312E+02 2.120E+02 3.501E+02 3.535E+02 1.822E+07 22.9938 1.00000
  1.259E+09 1.259E+09 3.375E+00 7.780E+00 1.472E+02 2.423E+02 3.973E+02 4.007E+02 1.858E+07 23.2241 1.00000
  1.413E+09 1.413E+09 3.390E+00 8.766E+00 1.653E+02 2.769E+02 4.510E+02 4.544E+02 1.894E+07 23.4543 1.00000
  1.585E+09 1.585E+09 3.405E+00 9.875E+00 1.855E+02 3.166E+02 5.119E+02 5.153E+02 1.930E+07 23.6846 1.00000
  1.778E+09 1.778E+09 3.421E+00 1.112E+01 2.082E+02 3.618E+02 5.812E+02 5.846E+02 1.965E+07 23.9149 1.00000
  1.995E+09 1.995E+09 3.436E+00 1.252E+01 2.337E+02 4.136E+02 6.598E+02 6.633E+02 2.000E+07 24.1451 1.00000
  2.239E+09 2.239E+09 3.451E+00 1.410E+01 2.622E+02 4.729E+02 7.492E+02 7.526E+02 2.035E+07 24.3754 1.00000
  2.512E+09 2.512E+09 3.467E+00 1.587E+01 2.943E+02 5.406E+02 8.508E+02 8.542E+02 2.069E+07 24.6056 1.00000
  2.818E+09 2.818E+09 3.483E+00 1.786E+01 3.303E+02 6.181E+02 9.662E+02 9.697E+02 2.103E+07 24.8359 1.00000
  3.162E+09 3.162E+09 3.498E+00 2.010E+01 3.706E+02 7.067E+02 1.097E+03 1.101E+03 2.136E+07 25.0662 1.00000
  3.548E+09 3.548E+09 3.514E+00 2.262E+01 4.159E+02 8.081E+02 1.247E+03 1.250E+03 2.169E+07 25.2964 1.00000
  3.981E+09 3.981E+09 3.530E+00 2.544E+01 4.667E+02 9.241E+02 1.416E+03 1.420E+03 2.202E+07 25.5267 1.00000
  4.467E+09 4.467E+09 3.546E+00 2.861E+01 5.237E+02 1.057E+03 1.609E+03 1.613E+03 2.234E+07 25.7569 1.00000
  5.012E+09 5.012E+09 3.562E+00 3.218E+01 5.877E+02 1.209E+03 1.828E+03 1.832E+03 2.265E+07 25.9872 1.00000
  5.623E+09 5.623E+09 3.578E+00 3.619E+01 6.595E+02 1.382E+03 2.078E+03 2.081E+03 2.297E+07 26.2174 1.00000
  6.310E+09 6.310E+09 3.594E+00 4.068E+01 7.400E+02 1.581E+03 2.362E+03 2.365E+03 2.328E+07 26.4477 1.00000
  7.079E+09 7.079E+09 3.611E+00 4.574E+01 8.304E+02 1.808E+03 2.684E+03 2.688E+03 2.358E+07 26.6780 1.00000
  7.943E+09 7.943E+09 3.627E+00 5.141E+01 9.318E+02 2.068E+03 3.052E+03 3.055E+03 2.389E+07 26.9082 1.00000
  8.913E+09 8.913E+09 3.644E+00 5.778E+01 1.046E+03 2.366E+03 3.469E+03 3.473E+03 2.418E+07 27.1385 1.00000
  1.000E+10 1.000E+10 3.660E+00 6.493E+01 1.173E+03 2.707E+03 3.945E+03 3.948E+03 2.448E+07 27.3687 1.00000
  1.122E+10 1.122E+10 3.677E+00 7.296E+01 1.316E+03 3.097E+03 4.486E+03 4.490E+03 2.477E+07 27.5990 1.00000
  1.259E+10 1.259E+10 3.694E+00 8.198E+01 1.477E+03 3.543E+03 5.102E+03 5.106E+03 2.506E+07 27.8293 1.00000
  1.413E+10 1.413E+10 3.711E+00 9.210E+01 1.657E+03 4.054E+03 5.803E+03 5.807E+03 2.534E+07 28.0595 1.00000
  1.585E+10 1.585E+10 3.728E+00 1.035E+02 1.860E+03 4.638E+03 6.601E+03 6.605E+03 2.562E+07 28.2898 1.00000
  1.778E+10 1.778E+10 3.745E+00 1.162E+02 2.087E+03 5.307E+03 7.510E+03 7.514E+03 2.589E+07 28.5200 1.00000
  1.995E+10 1.995E+10 3.762E+00 1.305E+02 2.341E+03 6.074E+03 8.545E+03 8.549E+03 2.616E+07 28.7503 1.00000
  2.239E+10 2.239E+10 3.779E+00 1.466E+02 2.627E+03 6.951E+03 9.724E+03 9.728E+03 2.643E+07 28.9806 1.00000
  2.512E+10 2.512E+10 3.796E+00 1.646E+02 2.948E+03 7.955E+03 1.107E+04 1.107E+04 2.669E+07 29.2108 1.00000
  2.818E+10 2.818E+10 3.814E+00 1.849E+02 3.307E+03 9.104E+03 1.260E+04 1.260E+04 2.696E+07 29.4411 1.00000
  3.162E+10 3.162E+10 3.832E+00 2.076E+02 3.711E+03 1.042E+04 1.434E+04 1.434E+04 2.721E+07 29.6713 1.00000
  3.548E+10 3.548E+10 3.849E+00 2.331E+02 4.164E+03 1.193E+04 1.633E+04 1.633E+04 2.746E+07 29.9016 1.00000
  3.981E+10 3.981E+10 3.867E+00 2.617E+02 4.672E+03 1.365E+04 1.859E+04 1.859E+04 2.771E+07 30.1318 1.00000
  4.467E+10 4.467E+10 3.885E+00 2.939E+02 5.242E+03 1.563E+04 2.117E+04 2.117E+04 2.796E+07 30.3621 1.00000
  5.012E+10 5.012E+10 3.903E+00 3.299E+02 5.881E+03 1.789E+04 2.411E+04 2.411E+04 2.820E+07 30.5924 1.00000
  5.623E+10 5.623E+10 3.921E+00 3.704E+02 6.599E+03 2.049E+04 2.746E+04 2.746E+04 2.844E+07 30.8226 1.00000
  6.310E+10 6.310E+10 3.939E+00 4.158E+02 7.404E+03 2.346E+04 3.128E+04 3.128E+04 2.867E+07 31.0529 1.00000
  7.079E+10 7.079E+10 3.957E+00 4.667E+02 8.307E+03 2.686E+04 3.563E+04 3.564E+04 2.890E+07 31.2831 1.00000
  7.943E+10 7.943E+10 3.976E+00 5.239E+02 9.321E+03 3.075E+04 4.060E+04 4.060E+04 2.913E+07 31.5134 1.00000
  8.913E+10 8.913E+10 3.994E+00 5.880E+02 1.046E+04 3.522E+04 4.626E+04 4.627E+04 2.936E+07 31.7437 1.00000
  1.000E+11 1.000E+11 4.013E+00 6.600E+02 1.173E+04 4.033E+04 5.273E+04 5.273E+04 2.958E+07 31.9739 1.00000
  1.122E+11 1.122E+11 4.032E+00 7.408E+02 1.317E+04 4.619E+04 6.010E+04 6.010E+04 2.979E+07 32.2042 1.00000
  1.259E+11 1.259E+11 4.050E+00 8.315E+02 1.477E+04 5.290E+04 6.850E+04 6.851E+04 3.001E+07 32.4344 1.00000
  1.413E+11 1.413E+11 4.069E+00 9.332E+02 1.657E+04 6.059E+04 7.810E+04 7.810E+04 3.022E+07 32.6647 1.00000
  1.585E+11 1.585E+11 4.088E+00 1.047E+03 1.860E+04 6.940E+04 8.904E+04 8.905E+04 3.042E+07 32.8949 1.00000
  1.778E+11 1.778E+11 4.107E+00 1.175E+03 2.086E+04 7.950E+04 1.015E+05 1.015E+05 3.063E+07 33.1252 1.00000
  1.995E+11 1.995E+11 4.127E+00 1.319E+03 2.341E+04 9.107E+04 1.158E+05 1.158E+05 3.083E+07 33.3555 1.00000
  2.239E+11 2.239E+11 4.146E+00 1.480E+03 2.626E+04 1.043E+05 1.321E+05 1.321E+05 3.103E+07 33.5857 1.00000
  2.512E+11 2.512E+11 4.165E+00 1.661E+03 2.947E+04 1.195E+05 1.507E+05 1.507E+05 3.122E+07 33.8160 1.00000
  2.818E+11 2.818E+11 4.185E+00 1.864E+03 3.306E+04 1.369E+05 1.719E+05 1.719E+05 3.141E+07 34.0462 1.00000
  3.162E+11 3.162E+11 4.205E+00 2.092E+03 3.710E+04 1.569E+05 1.961E+05 1.961E+05 3.160E+07 34.2765 1.00000
  3.548E+11 3.548E+11 4.224E+00 2.348E+03 4.162E+04 1.798E+05 2.238E+05 2.238E+05 3.178E+07 34.5068 1.00000
  3.981E+11 3.981E+11 4.244E+00 2.634E+03 4.670E+04 2.060E+05 2.554E+05 2.554E+05 3.197E+07 34.7370 1.00000
  4.467E+11 4.467E+11 4.264E+00 2.956E+03 5.240E+04 2.361E+05 2.914E+05 2.914E+05 3.214E+07 34.9673 1.00000
  5.012E+11 5.012E+11 4.284E+00 3.317E+03 5.879E+04 2.706E+05 3.327E+05 3.327E+05 3.232E+07 35.1975 1.00000
  5.623E+11 5.623E+11 4.305E+00 3.722E+03 6.596E+04 3.101E+05 3.798E+05 3.798E+05 3.249E+07 35.4278 1.00000
  6.310E+11 6.310E+11 4.325E+00 4.177E+03 7.400E+04 3.554E+05 4.336E+05 4.336E+05 3.266E+07 35.6580 1.00000
  7.079E+11 7.079E+11 4.345E+00 4.687E+03 8.303E+04 4.074E+05 4.951E+05 4.951E+05 3.283E+07 35.8883 1.00000
  7.943E+11 7.943E+11 4.366E+00 5.259E+03 9.316E+04 4.669E+05 5.654E+05 5.654E+05 3.299E+07 36.1186 1.00000
  8.913E+11 8.913E+11 4.387E+00 5.901E+03 1.045E+05 5.353E+05 6.457E+05 6.457E+05 3.315E+07 36.3488 1.00000
  1.000E+12 1.000E+12 4.407E+00 6.622E+03 1.173E+05 6.136E+05 7.375E+05 7.375E+05 3.331E+07 36.5791 1.00000
  1.122E+12 1.122E+12 4.428E+00 7.430E+03 1.316E+05 7.034E+05 8.424E+05 8.425E+05 3.347E+07 36.8093 1.00000
  1.259E+12 1.259E+12 4.449E+00 8.337E+03 1.476E+05 8.065E+05 9.624E+05 9.625E+05 3.362E+07 37.0396 1.00000
  1.413E+12 1.413E+12 4.470E+00 9.355E+03 1.656E+05 9.247E+05 1.100E+06 1.100E+06 3.377E+07 37.2699 1.00000
  1.585E+12 1.585E+12 4.492E+00 1.050E+04 1.858E+05 1.060E+06 1.257E+06 1.257E+06 3.391E+07 37.5001 1.00000
  1.778E+12 1.778E+12 4.513E+00 1.178E+04 2.085E+05 1.216E+06 1.436E+06 1.436E+06 3.406E+07 37.7304 1.00000
  1.995E+12 1.995E+12 4.535E+00 1.322E+04 2.339E+05 1.394E+06 1.641E+06 1.641E+06 3.420E+07 37.9606 1.00000
  2.239E+12 2.239E+12 4.556E+00 1.483E+04 2.625E+05 1.599E+06 1.876E+06 1.876E+06 3.434E+07 38.1909 1.00000
  2.512E+12 2.512E+12 4.578E+00 1.664E+04 2.945E+05 1.833E+06 2.145E+06 2.145E+06 3.448E+07 38.4211 1.00000
  2.818E+12 2.818E+12 4.600E+00 1.867E+04 3.304E+05 2.103E+06 2.452E+06 2.452E+06 3.461E+07 38.6514 1.00000
  3.162E+12 3.162E+12 4.622E+00 2.095E+04 3.707E+05 2.412E+06 2.803E+06 2.803E+06 3.474E+07 38.8817 1.00000
  3.548E+12 3.548E+12 4.644E+00 2.350E+04 4.159E+05 2.766E+06 3.206E+06 3.206E+06 3.487E+07 39.1119 1.00000
  3.981E+12 3.981E+12 4.666E+00 2.637E+04 4.666E+05 3.173E+06 3.666E+06 3.666E+06 3.500E+07 39.3422 1.00000
  4.467E+12 4.467E+12 4.688E+00 2.959E+04 5.236E+05 3.640E+06 4.193E+06 4.193E+06 3.512E+07 39.5724 1.00000
  5.012E+12 5.012E+12 4.711E+00 3.320E+04 5.874E+05 4.176E+06 4.796E+06 4.796E+06 3.524E+07 39.8027 1.00000
  5.623E+12 5.623E+12 4.733E+00 3.725E+04 6.591E+05 4.791E+06 5.487E+06 5.487E+06 3.536E+07 40.0330 1.00000
  6.310E+12 6.310E+12 4.756E+00 4.180E+04 7.394E+05 5.496E+06 6.277E+06 6.277E+06 3.548E+07 40.2632 1.00000
  7.079E+12 7.079E+12 4.779E+00 4.690E+04 8.296E+05 6.306E+06 7.183E+06 7.183E+06 3.559E+07 40.4935 1.00000
  7.943E+12 7.943E+12 4.802E+00 5.262E+04 9.308E+05 7.236E+06 8.219E+06 8.219E+06 3.571E+07 40.7237 1.00000
  8.913E+12 8.913E+12 4.825E+00 5.904E+04 1.044E+06 8.303E+06 9.406E+06 9.406E+06 3.582E+07 40.9540 1.00000
  1.000E+13 1.000E+13 4.848E+00 6.625E+04 1.172E+06 9.527E+06 1.077E+07 1.077E+07 3.593E+07 41.1843 1.00000
  1.122E+13 1.122E+13 4.871E+00 7.433E+04 1.315E+06 1.093E+07 1.232E+07 1.232E+07 3.603E+07 41.4145 1.00000
  1.259E+13 1.259E+13 4.895E+00 8.340E+04 1.475E+06 1.255E+07 1.411E+07 1.411E+07 3.614E+07 41.6448 1.00000
  1.413E+13 1.413E+13 4.918E+00 9.358E+04 1.655E+06 1.440E+07 1.615E+07 1.615E+07 3.624E+07 41.8750 1.00000
  1.585E+13 1.585E+13 4.942E+00 1.050E+05 1.857E+06 1.653E+07 1.849E+07 1.849E+07 3.634E+07 42.1053 1.00000
  1.778E+13 1.778E+13 4.966E+00 1.178E+05 2.083E+06 1.897E+07 2.117E+07 2.117E+07 3.644E+07 42.3355 1.00000
  1.995E+13 1.995E+13 4.990E+00 1.322E+05 2.337E+06 2.178E+07 2.425E+07 2.425E+07 3.653E+07 42.5658 1.00000
  2.239E+13 2.239E+13 5.014E+00 1.483E+05 2.622E+06 2.500E+07 2.777E+07 2.777E+07 3.663E+07 42.7961 1.00000
  2.512E+13 2.512E+13 5.038E+00 1.664E+05 2.942E+06 2.870E+07 3.180E+07 3.180E+07 3.672E+07 43.0263 1.00000
  2.818E+13 2.818E+13 5.063E+00 1.867E+05 3.301E+06 3.294E+07 3.643E+07 3.643E+07 3.681E+07 43.2566 1.00000
  3.162E+13 3.162E+13 5.087E+00 2.095E+05 3.703E+06 3.782E+07 4.173E+07 4.173E+07 3.690E+07 43.4868 1.00000
  3.548E+13 3.548E+13 5.112E+00 2.351E+05 4.155E+06 4.342E+07 4.781E+07 4.781E+07 3.698E+07 43.7171 1.00000
  3.981E+13 3.981E+13 5.137E+00 2.638E+05 4.662E+06 4.986E+07 5.478E+07 5.478E+07 3.707E+07 43.9474 1.00000
  4.467E+13 4.467E+13 5.161E+00 2.959E+05 5.230E+06 5.725E+07 6.277E+07 6.277E+07 3.715E+07 44.1776 1.00000
  5.012E+13 5.012E+13 5.186E+00 3.320E+05 5.868E+06 6.574E+07 7.194E+07 7.194E+07 3.723E+07 44.4079 1.00000
  5.623E+13 5.623E+13 5.212E+00 3.726E+05 6.584E+06 7.549E+07 8.244E+07 8.244E+07 3.731E+07 44.6381 1.00000
  6.310E+13 6.310E+13 5.237E+00 4.180E+05 7.387E+06 8.669E+07 9.450E+07 9.450E+07 3.739E+07 44.8684 1.00000
  7.079E+13 7.079E+13 5.262E+00 4.690E+05 8.287E+06 9.956E+07 1.083E+08 1.083E+08 3.747E+07 45.0986 1.00000
  7.943E+13 7.943E+13 5.288E+00 5.263E+05 9.298E+06 1.143E+08 1.242E+08 1.242E+08 3.754E+07 45.3289 1.00000
  8.913E+13 8.913E+13 5.314E+00 5.905E+05 1.043E+07 1.313E+08 1.424E+08 1.424E+08 3.761E+07 45.5592 1.00000
