 Incident particle is a Tau with M = 1776.82000 MeV
 Index = 0: SodiumChloride
      Absorber with <Z/A> = 0.47910
 Sternheimer coef:  a     k=m_s   x_0    x_1    I[eV]   Cbar  delta0
                 0.1596  3.0000  0.1995  2.9995  175.3  4.4227 0.00

 *** Table generated with PUMAS v1.00 ***

      T         p     Ionization  brems     pair     photonuc  Radloss    dE/dx   CSDA Range  delta   beta
    [MeV]    [MeV/c]  -----------------------[MeV cm^2/g]------------------------  [g/cm^2]
  1.000E+05 1.018E+05 2.037E+00 2.620E-04 4.177E-03 8.083E-03 1.252E-02 2.050E+00 2.439E+04  3.9784 0.99985
  1.122E+05 1.140E+05 2.057E+00 3.029E-04 5.020E-03 9.111E-03 1.443E-02 2.071E+00 3.031E+04  4.1700 0.99988
  1.259E+05 1.277E+05 2.077E+00 3.501E-04 6.014E-03 1.021E-02 1.658E-02 2.093E+00 3.689E+04  4.3647 0.99990
  1.413E+05 1.430E+05 2.096E+00 4.044E-04 7.183E-03 1.146E-02 1.904E-02 2.115E+00 4.419E+04  4.5624 0.99992
  1.585E+05 1.603E+05 2.115E+00 4.670E-04 8.555E-03 1.284E-02 2.186E-02 2.137E+00 5.230E+04  4.7630 0.99994
  1.778E+05 1.796E+05 2.135E+00 5.389E-04 1.016E-02 1.439E-02 2.509E-02 2.160E+00 6.130E+04  4.9662 0.99995
  1.995E+05 2.013E+05 2.154E+00 6.215E-04 1.204E-02 1.615E-02 2.881E-02 2.182E+00 7.129E+04  5.1720 0.99996
  2.239E+05 2.256E+05 2.172E+00 7.165E-04 1.424E-02 1.806E-02 3.302E-02 2.205E+00 8.239E+04  5.3802 0.99997
  2.512E+05 2.530E+05 2.191E+00 8.256E-04 1.679E-02 2.021E-02 3.783E-02 2.229E+00 9.471E+04  5.5908 0.99998
  2.818E+05 2.836E+05 2.210E+00 9.509E-04 1.976E-02 2.263E-02 4.334E-02 2.253E+00 1.084E+05  5.8035 0.99998
  3.162E+05 3.180E+05 2.228E+00 1.095E-03 2.321E-02 2.535E-02 4.966E-02 2.278E+00 1.236E+05  6.0182 0.99998
  3.548E+05 3.566E+05 2.247E+00 1.259E-03 2.721E-02 2.841E-02 5.688E-02 2.304E+00 1.404E+05  6.2348 0.99999
  3.981E+05 3.999E+05 2.265E+00 1.449E-03 3.184E-02 3.182E-02 6.510E-02 2.330E+00 1.591E+05  6.4532 0.99999
  4.467E+05 4.485E+05 2.283E+00 1.665E-03 3.718E-02 3.563E-02 7.448E-02 2.357E+00 1.798E+05  6.6733 0.99999
  5.012E+05 5.030E+05 2.301E+00 1.914E-03 4.335E-02 3.992E-02 8.518E-02 2.386E+00 2.028E+05  6.8949 0.99999
  5.623E+05 5.641E+05 2.319E+00 2.198E-03 5.046E-02 4.456E-02 9.721E-02 2.416E+00 2.283E+05  7.1179 1.00000
  6.310E+05 6.327E+05 2.336E+00 2.523E-03 5.864E-02 4.978E-02 1.109E-01 2.447E+00 2.565E+05  7.3421 1.00000
  7.079E+05 7.097E+05 2.354E+00 2.896E-03 6.804E-02 5.567E-02 1.266E-01 2.480E+00 2.878E+05  7.5675 1.00000
  7.943E+05 7.961E+05 2.371E+00 3.322E-03 7.883E-02 6.231E-02 1.445E-01 2.516E+00 3.223E+05  7.7938 1.00000
  8.913E+05 8.930E+05 2.388E+00 3.810E-03 9.121E-02 6.982E-02 1.648E-01 2.553E+00 3.606E+05  8.0211 1.00000
  1.000E+06 1.002E+06 2.406E+00 4.368E-03 1.054E-01 7.830E-02 1.880E-01 2.594E+00 4.028E+05  8.2492 1.00000
  1.122E+06 1.124E+06 2.423E+00 5.005E-03 1.216E-01 8.789E-02 2.145E-01 2.637E+00 4.495E+05  8.4778 1.00000
  1.259E+06 1.261E+06 2.439E+00 5.733E-03 1.401E-01 9.875E-02 2.446E-01 2.684E+00 5.010E+05  8.7070 1.00000
  1.413E+06 1.414E+06 2.456E+00 6.565E-03 1.613E-01 1.110E-01 2.789E-01 2.735E+00 5.577E+05  8.9366 1.00000
  1.585E+06 1.587E+06 2.473E+00 7.515E-03 1.854E-01 1.250E-01 3.179E-01 2.791E+00 6.200E+05  9.1665 1.00000
  1.778E+06 1.780E+06 2.489E+00 8.600E-03 2.129E-01 1.408E-01 3.623E-01 2.852E+00 6.886E+05  9.3964 1.00000
  1.995E+06 1.997E+06 2.506E+00 9.838E-03 2.442E-01 1.587E-01 4.128E-01 2.918E+00 7.638E+05  9.6265 1.00000
  2.239E+06 2.240E+06 2.522E+00 1.125E-02 2.798E-01 1.791E-01 4.701E-01 2.992E+00 8.462E+05  9.8566 1.00000
  2.512E+06 2.514E+06 2.538E+00 1.286E-02 3.202E-01 2.022E-01 5.353E-01 3.073E+00 9.363E+05 10.0866 1.00000
  2.818E+06 2.820E+06 2.554E+00 1.470E-02 3.661E-01 2.285E-01 6.093E-01 3.163E+00 1.035E+06 10.3167 1.00000
  3.162E+06 3.164E+06 2.570E+00 1.680E-02 4.182E-01 2.584E-01 6.934E-01 3.263E+00 1.142E+06 10.5469 1.00000
  3.548E+06 3.550E+06 2.585E+00 1.918E-02 4.773E-01 2.923E-01 7.888E-01 3.374E+00 1.258E+06 10.7770 1.00000
  3.981E+06 3.983E+06 2.601E+00 2.191E-02 5.442E-01 3.310E-01 8.971E-01 3.498E+00 1.384E+06 11.0072 1.00000
  4.467E+06 4.469E+06 2.616E+00 2.501E-02 6.199E-01 3.749E-01 1.020E+00 3.636E+00 1.520E+06 11.2373 1.00000
  5.012E+06 5.014E+06 2.632E+00 2.854E-02 7.056E-01 4.250E-01 1.159E+00 3.791E+00 1.667E+06 11.4675 1.00000
  5.623E+06 5.625E+06 2.647E+00 3.256E-02 8.025E-01 4.819E-01 1.317E+00 3.964E+00 1.825E+06 11.6977 1.00000
  6.310E+06 6.311E+06 2.662E+00 3.713E-02 9.119E-01 5.468E-01 1.496E+00 4.157E+00 1.994E+06 11.9279 1.00000
  7.079E+06 7.081E+06 2.676E+00 4.234E-02 1.036E+00 6.207E-01 1.699E+00 4.375E+00 2.175E+06 12.1581 1.00000
  7.943E+06 7.945E+06 2.691E+00 4.826E-02 1.175E+00 7.049E-01 1.928E+00 4.619E+00 2.367E+06 12.3883 1.00000
  8.913E+06 8.914E+06 2.705E+00 5.499E-02 1.333E+00 8.009E-01 2.188E+00 4.894E+00 2.571E+06 12.6185 1.00000
  1.000E+07 1.000E+07 2.720E+00 6.265E-02 1.510E+00 9.102E-01 2.483E+00 5.203E+00 2.786E+06 12.8487 1.00000
  1.122E+07 1.122E+07 2.734E+00 7.135E-02 1.710E+00 1.035E+00 2.817E+00 5.551E+00 3.013E+06 13.0789 1.00000
  1.259E+07 1.259E+07 2.748E+00 8.123E-02 1.936E+00 1.177E+00 3.194E+00 5.942E+00 3.252E+06 13.3091 1.00000
  1.413E+07 1.413E+07 2.762E+00 9.246E-02 2.190E+00 1.339E+00 3.622E+00 6.383E+00 3.502E+06 13.5394 1.00000
  1.585E+07 1.585E+07 2.776E+00 1.052E-01 2.476E+00 1.524E+00 4.105E+00 6.881E+00 3.762E+06 13.7696 1.00000
  1.778E+07 1.778E+07 2.790E+00 1.197E-01 2.798E+00 1.734E+00 4.653E+00 7.442E+00 4.032E+06 13.9998 1.00000
  1.995E+07 1.995E+07 2.803E+00 1.361E-01 3.161E+00 1.975E+00 5.272E+00 8.075E+00 4.312E+06 14.2301 1.00000
  2.239E+07 2.239E+07 2.817E+00 1.547E-01 3.569E+00 2.249E+00 5.973E+00 8.790E+00 4.602E+06 14.4603 1.00000
  2.512E+07 2.512E+07 2.830E+00 1.759E-01 4.028E+00 2.562E+00 6.766E+00 9.596E+00 4.899E+06 14.6905 1.00000
  2.818E+07 2.819E+07 2.844E+00 1.998E-01 4.544E+00 2.919E+00 7.663E+00 1.051E+01 5.205E+06 14.9208 1.00000
  3.162E+07 3.162E+07 2.857E+00 2.270E-01 5.124E+00 3.326E+00 8.677E+00 1.153E+01 5.518E+06 15.1510 1.00000
  3.548E+07 3.548E+07 2.871E+00 2.578E-01 5.776E+00 3.791E+00 9.825E+00 1.270E+01 5.837E+06 15.3813 1.00000
  3.981E+07 3.981E+07 2.884E+00 2.927E-01 6.510E+00 4.322E+00 1.112E+01 1.401E+01 6.162E+06 15.6115 1.00000
  4.467E+07 4.467E+07 2.897E+00 3.322E-01 7.333E+00 4.927E+00 1.259E+01 1.549E+01 6.492E+06 15.8418 1.00000
  5.012E+07 5.012E+07 2.911E+00 3.769E-01 8.259E+00 5.619E+00 1.425E+01 1.717E+01 6.827E+06 16.0720 1.00000
  5.623E+07 5.624E+07 2.924E+00 4.275E-01 9.299E+00 6.408E+00 1.613E+01 1.906E+01 7.165E+06 16.3023 1.00000
  6.310E+07 6.310E+07 2.937E+00 4.847E-01 1.047E+01 7.309E+00 1.826E+01 2.120E+01 7.507E+06 16.5325 1.00000
  7.079E+07 7.080E+07 2.951E+00 5.495E-01 1.178E+01 8.338E+00 2.067E+01 2.362E+01 7.852E+06 16.7628 1.00000
  7.943E+07 7.943E+07 2.964E+00 6.228E-01 1.325E+01 9.512E+00 2.339E+01 2.635E+01 8.199E+06 16.9930 1.00000
  8.913E+07 8.913E+07 2.977E+00 7.056E-01 1.491E+01 1.085E+01 2.647E+01 2.945E+01 8.547E+06 17.2233 1.00000
  1.000E+08 1.000E+08 2.991E+00 7.992E-01 1.677E+01 1.239E+01 2.995E+01 3.294E+01 8.897E+06 17.4535 1.00000
  1.122E+08 1.122E+08 3.004E+00 9.049E-01 1.885E+01 1.413E+01 3.389E+01 3.690E+01 9.247E+06 17.6838 1.00000
  1.259E+08 1.259E+08 3.017E+00 1.024E+00 2.120E+01 1.613E+01 3.835E+01 4.137E+01 9.598E+06 17.9140 1.00000
  1.413E+08 1.413E+08 3.031E+00 1.159E+00 2.383E+01 1.841E+01 4.340E+01 4.643E+01 9.949E+06 18.1443 1.00000
  1.585E+08 1.585E+08 3.044E+00 1.312E+00 2.678E+01 2.102E+01 4.911E+01 5.216E+01 1.030E+07 18.3746 1.00000
  1.778E+08 1.778E+08 3.058E+00 1.483E+00 3.010E+01 2.400E+01 5.558E+01 5.863E+01 1.065E+07 18.6048 1.00000
  1.995E+08 1.995E+08 3.072E+00 1.677E+00 3.382E+01 2.740E+01 6.289E+01 6.596E+01 1.100E+07 18.8351 1.00000
  2.239E+08 2.239E+08 3.085E+00 1.896E+00 3.799E+01 3.128E+01 7.117E+01 7.426E+01 1.135E+07 19.0653 1.00000
  2.512E+08 2.512E+08 3.099E+00 2.143E+00 4.268E+01 3.572E+01 8.055E+01 8.364E+01 1.170E+07 19.2956 1.00000
  2.818E+08 2.818E+08 3.113E+00 2.421E+00 4.794E+01 4.079E+01 9.116E+01 9.427E+01 1.204E+07 19.5258 1.00000
  3.162E+08 3.162E+08 3.127E+00 2.735E+00 5.385E+01 4.659E+01 1.032E+02 1.063E+02 1.239E+07 19.7561 1.00000
  3.548E+08 3.548E+08 3.140E+00 3.088E+00 6.047E+01 5.321E+01 1.168E+02 1.199E+02 1.273E+07 19.9864 1.00000
  3.981E+08 3.981E+08 3.154E+00 3.486E+00 6.791E+01 6.078E+01 1.322E+02 1.353E+02 1.307E+07 20.2166 1.00000
  4.467E+08 4.467E+08 3.168E+00 3.935E+00 7.626E+01 6.942E+01 1.496E+02 1.528E+02 1.341E+07 20.4469 1.00000
  5.012E+08 5.012E+08 3.183E+00 4.440E+00 8.562E+01 7.931E+01 1.694E+02 1.726E+02 1.374E+07 20.6771 1.00000
  5.623E+08 5.623E+08 3.197E+00 5.008E+00 9.614E+01 9.060E+01 1.917E+02 1.949E+02 1.408E+07 20.9074 1.00000
  6.310E+08 6.310E+08 3.211E+00 5.648E+00 1.079E+02 1.035E+02 2.171E+02 2.203E+02 1.441E+07 21.1376 1.00000
  7.079E+08 7.079E+08 3.225E+00 6.369E+00 1.212E+02 1.183E+02 2.458E+02 2.490E+02 1.474E+07 21.3679 1.00000
  7.943E+08 7.943E+08 3.240E+00 7.180E+00 1.360E+02 1.351E+02 2.783E+02 2.816E+02 1.507E+07 21.5982 1.00000
  8.913E+08 8.913E+08 3.254E+00 8.092E+00 1.527E+02 1.544E+02 3.152E+02 3.184E+02 1.539E+07 21.8284 1.00000
  1.000E+09 1.000E+09 3.269E+00 9.119E+00 1.714E+02 1.765E+02 3.570E+02 3.602E+02 1.571E+07 22.0587 1.00000
  1.122E+09 1.122E+09 3.283E+00 1.027E+01 1.924E+02 2.017E+02 4.043E+02 4.076E+02 1.603E+07 22.2889 1.00000
  1.259E+09 1.259E+09 3.298E+00 1.157E+01 2.159E+02 2.305E+02 4.580E+02 4.613E+02 1.635E+07 22.5192 1.00000
  1.413E+09 1.413E+09 3.313E+00 1.303E+01 2.423E+02 2.634E+02 5.188E+02 5.221E+02 1.666E+07 22.7494 1.00000
  1.585E+09 1.585E+09 3.327E+00 1.467E+01 2.720E+02 3.011E+02 5.878E+02 5.911E+02 1.697E+07 22.9797 1.00000
  1.778E+09 1.778E+09 3.342E+00 1.652E+01 3.053E+02 3.442E+02 6.660E+02 6.693E+02 1.728E+07 23.2100 1.00000
  1.995E+09 1.995E+09 3.357E+00 1.859E+01 3.426E+02 3.934E+02 7.546E+02 7.580E+02 1.758E+07 23.4402 1.00000
  2.239E+09 2.239E+09 3.372E+00 2.092E+01 3.845E+02 4.498E+02 8.552E+02 8.585E+02 1.789E+07 23.6705 1.00000
  2.512E+09 2.512E+09 3.388E+00 2.354E+01 4.315E+02 5.142E+02 9.692E+02 9.726E+02 1.819E+07 23.9007 1.00000
  2.818E+09 2.818E+09 3.403E+00 2.648E+01 4.842E+02 5.879E+02 1.099E+03 1.102E+03 1.848E+07 24.1310 1.00000
  3.162E+09 3.162E+09 3.418E+00 2.978E+01 5.434E+02 6.722E+02 1.245E+03 1.249E+03 1.878E+07 24.3613 1.00000
  3.548E+09 3.548E+09 3.434E+00 3.350E+01 6.098E+02 7.686E+02 1.412E+03 1.415E+03 1.907E+07 24.5915 1.00000
  3.981E+09 3.981E+09 3.449E+00 3.767E+01 6.843E+02 8.789E+02 1.601E+03 1.604E+03 1.936E+07 24.8218 1.00000
  4.467E+09 4.467E+09 3.465E+00 4.235E+01 7.678E+02 1.005E+03 1.815E+03 1.819E+03 1.964E+07 25.0520 1.00000
  5.012E+09 5.012E+09 3.480E+00 4.761E+01 8.616E+02 1.149E+03 2.059E+03 2.062E+03 1.992E+07 25.2823 1.00000
  5.623E+09 5.623E+09 3.496E+00 5.352E+01 9.668E+02 1.315E+03 2.335E+03 2.338E+03 2.020E+07 25.5125 1.00000
  6.310E+09 6.310E+09 3.512E+00 6.015E+01 1.085E+03 1.504E+03 2.649E+03 2.652E+03 2.048E+07 25.7428 1.00000
  7.079E+09 7.079E+09 3.528E+00 6.760E+01 1.217E+03 1.720E+03 3.005E+03 3.008E+03 2.075E+07 25.9731 1.00000
  7.943E+09 7.943E+09 3.544E+00 7.596E+01 1.366E+03 1.967E+03 3.409E+03 3.413E+03 2.102E+07 26.2033 1.00000
  8.913E+09 8.913E+09 3.560E+00 8.535E+01 1.533E+03 2.250E+03 3.869E+03 3.872E+03 2.129E+07 26.4336 1.00000
  1.000E+10 1.000E+10 3.576E+00 9.589E+01 1.720E+03 2.574E+03 4.390E+03 4.394E+03 2.155E+07 26.6638 1.00000
  1.122E+10 1.122E+10 3.593E+00 1.077E+02 1.930E+03 2.945E+03 4.983E+03 4.986E+03 2.181E+07 26.8941 1.00000
  1.259E+10 1.259E+10 3.609E+00 1.210E+02 2.165E+03 3.370E+03 5.656E+03 5.660E+03 2.207E+07 27.1244 1.00000
  1.413E+10 1.413E+10 3.626E+00 1.359E+02 2.430E+03 3.856E+03 6.421E+03 6.425E+03 2.233E+07 27.3546 1.00000
  1.585E+10 1.585E+10 3.642E+00 1.526E+02 2.726E+03 4.412E+03 7.290E+03 7.294E+03 2.258E+07 27.5849 1.00000
  1.778E+10 1.778E+10 3.659E+00 1.714E+02 3.059E+03 5.048E+03 8.278E+03 8.282E+03 2.283E+07 27.8151 1.00000
  1.995E+10 1.995E+10 3.676E+00 1.925E+02 3.432E+03 5.777E+03 9.402E+03 9.405E+03 2.307E+07 28.0454 1.00000
  2.239E+10 2.239E+10 3.692E+00 2.162E+02 3.851E+03 6.611E+03 1.068E+04 1.068E+04 2.332E+07 28.2757 1.00000
  2.512E+10 2.512E+10 3.709E+00 2.427E+02 4.321E+03 7.566E+03 1.213E+04 1.213E+04 2.356E+07 28.5059 1.00000
  2.818E+10 2.818E+10 3.727E+00 2.725E+02 4.848E+03 8.660E+03 1.378E+04 1.378E+04 2.380E+07 28.7362 1.00000
  3.162E+10 3.162E+10 3.744E+00 3.060E+02 5.440E+03 9.912E+03 1.566E+04 1.566E+04 2.403E+07 28.9664 1.00000
  3.548E+10 3.548E+10 3.761E+00 3.435E+02 6.103E+03 1.135E+04 1.779E+04 1.780E+04 2.426E+07 29.1967 1.00000
  3.981E+10 3.981E+10 3.778E+00 3.856E+02 6.848E+03 1.299E+04 2.022E+04 2.022E+04 2.449E+07 29.4269 1.00000
  4.467E+10 4.467E+10 3.796E+00 4.329E+02 7.684E+03 1.487E+04 2.298E+04 2.299E+04 2.472E+07 29.6572 1.00000
  5.012E+10 5.012E+10 3.813E+00 4.859E+02 8.621E+03 1.702E+04 2.613E+04 2.613E+04 2.494E+07 29.8875 1.00000
  5.623E+10 5.623E+10 3.831E+00 5.455E+02 9.673E+03 1.949E+04 2.971E+04 2.971E+04 2.516E+07 30.1177 1.00000
  6.310E+10 6.310E+10 3.849E+00 6.123E+02 1.085E+04 2.231E+04 3.378E+04 3.378E+04 2.538E+07 30.3480 1.00000
  7.079E+10 7.079E+10 3.867E+00 6.872E+02 1.218E+04 2.555E+04 3.841E+04 3.841E+04 2.559E+07 30.5782 1.00000
  7.943E+10 7.943E+10 3.884E+00 7.713E+02 1.366E+04 2.925E+04 4.369E+04 4.369E+04 2.580E+07 30.8085 1.00000
  8.913E+10 8.913E+10 3.903E+00 8.657E+02 1.533E+04 3.350E+04 4.969E+04 4.970E+04 2.601E+07 31.0388 1.00000
  1.000E+11 1.000E+11 3.921E+00 9.716E+02 1.720E+04 3.836E+04 5.653E+04 5.654E+04 2.622E+07 31.2690 1.00000
  1.122E+11 1.122E+11 3.939E+00 1.090E+03 1.930E+04 4.393E+04 6.432E+04 6.433E+04 2.642E+07 31.4993 1.00000
  1.259E+11 1.259E+11 3.957E+00 1.224E+03 2.165E+04 5.032E+04 7.319E+04 7.320E+04 2.662E+07 31.7295 1.00000
  1.413E+11 1.413E+11 3.976E+00 1.373E+03 2.429E+04 5.763E+04 8.330E+04 8.330E+04 2.682E+07 31.9598 1.00000
  1.585E+11 1.585E+11 3.994E+00 1.541E+03 2.726E+04 6.601E+04 9.481E+04 9.481E+04 2.701E+07 32.1900 1.00000
  1.778E+11 1.778E+11 4.013E+00 1.730E+03 3.058E+04 7.562E+04 1.079E+05 1.079E+05 2.720E+07 32.4203 1.00000
  1.995E+11 1.995E+11 4.032E+00 1.941E+03 3.431E+04 8.662E+04 1.229E+05 1.229E+05 2.739E+07 32.6506 1.00000
  2.239E+11 2.239E+11 4.051E+00 2.178E+03 3.850E+04 9.923E+04 1.399E+05 1.399E+05 2.758E+07 32.8808 1.00000
  2.512E+11 2.512E+11 4.070E+00 2.444E+03 4.320E+04 1.137E+05 1.593E+05 1.593E+05 2.776E+07 33.1111 1.00000
  2.818E+11 2.818E+11 4.089E+00 2.743E+03 4.846E+04 1.303E+05 1.815E+05 1.815E+05 2.794E+07 33.3413 1.00000
  3.162E+11 3.162E+11 4.108E+00 3.078E+03 5.438E+04 1.492E+05 2.067E+05 2.067E+05 2.812E+07 33.5716 1.00000
  3.548E+11 3.548E+11 4.127E+00 3.454E+03 6.101E+04 1.710E+05 2.355E+05 2.355E+05 2.829E+07 33.8019 1.00000
  3.981E+11 3.981E+11 4.147E+00 3.876E+03 6.845E+04 1.960E+05 2.683E+05 2.683E+05 2.847E+07 34.0321 1.00000
  4.467E+11 4.467E+11 4.166E+00 4.349E+03 7.680E+04 2.246E+05 3.057E+05 3.057E+05 2.864E+07 34.2624 1.00000
  5.012E+11 5.012E+11 4.186E+00 4.880E+03 8.617E+04 2.573E+05 3.484E+05 3.484E+05 2.880E+07 34.4926 1.00000
  5.623E+11 5.623E+11 4.206E+00 5.476E+03 9.668E+04 2.949E+05 3.971E+05 3.971E+05 2.897E+07 34.7229 1.00000
  6.310E+11 6.310E+11 4.225E+00 6.145E+03 1.085E+05 3.380E+05 4.527E+05 4.527E+05 2.913E+07 34.9531 1.00000
  7.079E+11 7.079E+11 4.245E+00 6.895E+03 1.217E+05 3.875E+05 5.161E+05 5.161E+05 2.929E+07 35.1834 1.00000
  7.943E+11 7.943E+11 4.265E+00 7.736E+03 1.366E+05 4.441E+05 5.884E+05 5.884E+05 2.945E+07 35.4137 1.00000
  8.913E+11 8.913E+11 4.286E+00 8.681E+03 1.532E+05 5.091E+05 6.710E+05 6.710E+05 2.960E+07 35.6439 1.00000
  1.000E+12 1.000E+12 4.306E+00 9.740E+03 1.719E+05 5.836E+05 7.653E+05 7.653E+05 2.975E+07 35.8742 1.00000
  1.122E+12 1.122E+12 4.326E+00 1.093E+04 1.929E+05 6.691E+05 8.729E+05 8.729E+05 2.990E+07 36.1044 1.00000
  1.259E+12 1.259E+12 4.347E+00 1.226E+04 2.164E+05 7.671E+05 9.957E+05 9.958E+05 3.005E+07 36.3347 1.00000
  1.413E+12 1.413E+12 4.368E+00 1.376E+04 2.428E+05 8.795E+05 1.136E+06 1.136E+06 3.020E+07 36.5650 1.00000
  1.585E+12 1.585E+12 4.388E+00 1.544E+04 2.724E+05 1.008E+06 1.296E+06 1.296E+06 3.034E+07 36.7952 1.00000
  1.778E+12 1.778E+12 4.409E+00 1.732E+04 3.056E+05 1.156E+06 1.479E+06 1.479E+06 3.048E+07 37.0255 1.00000
  1.995E+12 1.995E+12 4.430E+00 1.944E+04 3.429E+05 1.326E+06 1.688E+06 1.688E+06 3.062E+07 37.2557 1.00000
  2.239E+12 2.239E+12 4.451E+00 2.181E+04 3.847E+05 1.521E+06 1.927E+06 1.927E+06 3.075E+07 37.4860 1.00000
  2.512E+12 2.512E+12 4.472E+00 2.447E+04 4.317E+05 1.744E+06 2.200E+06 2.200E+06 3.088E+07 37.7162 1.00000
  2.818E+12 2.818E+12 4.494E+00 2.746E+04 4.843E+05 2.000E+06 2.512E+06 2.512E+06 3.101E+07 37.9465 1.00000
  3.162E+12 3.162E+12 4.515E+00 3.081E+04 5.434E+05 2.294E+06 2.868E+06 2.868E+06 3.114E+07 38.1768 1.00000
  3.548E+12 3.548E+12 4.537E+00 3.457E+04 6.096E+05 2.631E+06 3.275E+06 3.275E+06 3.127E+07 38.4070 1.00000
  3.981E+12 3.981E+12 4.559E+00 3.879E+04 6.840E+05 3.018E+06 3.741E+06 3.741E+06 3.139E+07 38.6373 1.00000
  4.467E+12 4.467E+12 4.580E+00 4.352E+04 7.674E+05 3.462E+06 4.273E+06 4.273E+06 3.151E+07 38.8675 1.00000
  5.012E+12 5.012E+12 4.602E+00 4.883E+04 8.610E+05 3.972E+06 4.882E+06 4.882E+06 3.163E+07 39.0978 1.00000
  5.623E+12 5.623E+12 4.624E+00 5.479E+04 9.660E+05 4.557E+06 5.577E+06 5.577E+06 3.175E+07 39.3281 1.00000
  6.310E+12 6.310E+12 4.646E+00 6.148E+04 1.084E+06 5.228E+06 6.373E+06 6.373E+06 3.187E+07 39.5583 1.00000
  7.079E+12 7.079E+12 4.669E+00 6.898E+04 1.216E+06 5.998E+06 7.283E+06 7.283E+06 3.198E+07 39.7886 1.00000
  7.943E+12 7.943E+12 4.691E+00 7.740E+04 1.364E+06 6.882E+06 8.324E+06 8.324E+06 3.209E+07 40.0188 1.00000
  8.913E+12 8.913E+12 4.714E+00 8.684E+04 1.531E+06 7.897E+06 9.515E+06 9.515E+06 3.220E+07 40.2491 1.00000
  1.000E+13 1.000E+13 4.736E+00 9.744E+04 1.717E+06 9.062E+06 1.088E+07 1.088E+07 3.231E+07 40.4794 1.00000
  1.122E+13 1.122E+13 4.759E+00 1.093E+05 1.927E+06 1.040E+07 1.244E+07 1.244E+07 3.241E+07 40.7096 1.00000
  1.259E+13 1.259E+13 4.782E+00 1.227E+05 2.162E+06 1.193E+07 1.422E+07 1.422E+07 3.252E+07 40.9399 1.00000
  1.413E+13 1.413E+13 4.805E+00 1.376E+05 2.426E+06 1.370E+07 1.626E+07 1.626E+07 3.262E+07 41.1701 1.00000
  1.585E+13 1.585E+13 4.828E+00 1.544E+05 2.722E+06 1.572E+07 1.860E+07 1.860E+07 3.272E+07 41.4004 1.00000
  1.778E+13 1.778E+13 4.851E+00 1.733E+05 3.053E+06 1.804E+07 2.127E+07 2.127E+07 3.281E+07 41.6306 1.00000
  1.995E+13 1.995E+13 4.875E+00 1.944E+05 3.426E+06 2.071E+07 2.433E+07 2.433E+07 3.291E+07 41.8609 1.00000
  2.239E+13 2.239E+13 4.898E+00 2.181E+05 3.844E+06 2.378E+07 2.784E+07 2.784E+07 3.300E+07 42.0912 1.00000
  2.512E+13 2.512E+13 4.922E+00 2.448E+05 4.312E+06 2.729E+07 3.185E+07 3.185E+07 3.310E+07 42.3214 1.00000
  2.818E+13 2.818E+13 4.946E+00 2.746E+05 4.838E+06 3.133E+07 3.645E+07 3.645E+07 3.319E+07 42.5517 1.00000
  3.162E+13 3.162E+13 4.970E+00 3.081E+05 5.428E+06 3.597E+07 4.171E+07 4.171E+07 3.327E+07 42.7819 1.00000
  3.548E+13 3.548E+13 4.994E+00 3.457E+05 6.090E+06 4.130E+07 4.774E+07 4.774E+07 3.336E+07 43.0122 1.00000
  3.981E+13 3.981E+13 5.018E+00 3.879E+05 6.833E+06 4.742E+07 5.464E+07 5.464E+07 3.345E+07 43.2425 1.00000
  4.467E+13 4.467E+13 5.042E+00 4.352E+05 7.667E+06 5.445E+07 6.255E+07 6.255E+07 3.353E+07 43.4727 1.00000
  5.012E+13 5.012E+13 5.067E+00 4.884E+05 8.601E+06 6.253E+07 7.162E+07 7.162E+07 3.361E+07 43.7030 1.00000
  5.623E+13 5.623E+13 5.091E+00 5.479E+05 9.650E+06 7.180E+07 8.200E+07 8.200E+07 3.369E+07 43.9332 1.00000
  6.310E+13 6.310E+13 5.116E+00 6.148E+05 1.083E+07 8.246E+07 9.390E+07 9.390E+07 3.377E+07 44.1635 1.00000
  7.079E+13 7.079E+13 5.141E+00 6.898E+05 1.215E+07 9.470E+07 1.075E+08 1.075E+08 3.385E+07 44.3937 1.00000
  7.943E+13 7.943E+13 5.166E+00 7.740E+05 1.363E+07 1.088E+08 1.232E+08 1.232E+08 3.392E+07 44.6240 1.00000
  8.913E+13 8.913E+13 5.191E+00 8.684E+05 1.529E+07 1.249E+08 1.411E+08 1.411E+08 3.399E+07 44.8543 1.00000
