 Incident particle is a Tau with M = 1776.82000 MeV
 Index = 0: SodiumNitrate
      Absorber with <Z/A> = 0.49415
 Sternheimer coef:  a     k=m_s   x_0    x_1    I[eV]   Cbar  delta0
                 0.0939  3.5097  0.1534  2.8221  114.6  3.6502 0.00

 *** Table generated with PUMAS v1.00 ***

      T         p     Ionization  brems     pair     photonuc  Radloss    dE/dx   CSDA Range  delta   beta
    [MeV]    [MeV/c]  -----------------------[MeV cm^2/g]------------------------  [g/cm^2]
  1.000E+05 1.018E+05 2.122E+00 1.660E-04 2.590E-03 8.248E-03 1.100E-02 2.133E+00 2.345E+04  4.5622 0.99985
  1.122E+05 1.140E+05 2.141E+00 1.918E-04 3.122E-03 9.308E-03 1.262E-02 2.153E+00 2.914E+04  4.7709 0.99988
  1.259E+05 1.277E+05 2.160E+00 2.215E-04 3.748E-03 1.045E-02 1.442E-02 2.174E+00 3.547E+04  4.9819 0.99990
  1.413E+05 1.430E+05 2.178E+00 2.556E-04 4.487E-03 1.173E-02 1.648E-02 2.195E+00 4.250E+04  5.1952 0.99992
  1.585E+05 1.603E+05 2.197E+00 2.950E-04 5.354E-03 1.317E-02 1.882E-02 2.216E+00 5.032E+04  5.4106 0.99994
  1.778E+05 1.796E+05 2.216E+00 3.402E-04 6.372E-03 1.477E-02 2.148E-02 2.237E+00 5.900E+04  5.6279 0.99995
  1.995E+05 2.013E+05 2.235E+00 3.921E-04 7.563E-03 1.660E-02 2.455E-02 2.259E+00 6.865E+04  5.8469 0.99996
  2.239E+05 2.256E+05 2.253E+00 4.518E-04 8.954E-03 1.859E-02 2.800E-02 2.281E+00 7.938E+04  6.0675 0.99997
  2.512E+05 2.530E+05 2.272E+00 5.203E-04 1.058E-02 2.083E-02 3.193E-02 2.303E+00 9.130E+04  6.2895 0.99998
  2.818E+05 2.836E+05 2.290E+00 5.989E-04 1.247E-02 2.335E-02 3.641E-02 2.326E+00 1.045E+05  6.5128 0.99998
  3.162E+05 3.180E+05 2.308E+00 6.891E-04 1.466E-02 2.619E-02 4.154E-02 2.350E+00 1.192E+05  6.7373 0.99998
  3.548E+05 3.566E+05 2.326E+00 7.926E-04 1.721E-02 2.938E-02 4.738E-02 2.374E+00 1.356E+05  6.9627 0.99999
  3.981E+05 3.999E+05 2.345E+00 9.112E-04 2.016E-02 3.294E-02 5.401E-02 2.399E+00 1.537E+05  7.1891 0.99999
  4.467E+05 4.485E+05 2.363E+00 1.047E-03 2.357E-02 3.693E-02 6.155E-02 2.424E+00 1.739E+05  7.4162 0.99999
  5.012E+05 5.030E+05 2.381E+00 1.203E-03 2.751E-02 4.142E-02 7.013E-02 2.451E+00 1.962E+05  7.6440 0.99999
  5.623E+05 5.641E+05 2.399E+00 1.381E-03 3.206E-02 4.628E-02 7.972E-02 2.478E+00 2.210E+05  7.8724 1.00000
  6.310E+05 6.327E+05 2.417E+00 1.585E-03 3.730E-02 5.176E-02 9.064E-02 2.507E+00 2.486E+05  8.1012 1.00000
  7.079E+05 7.097E+05 2.434E+00 1.819E-03 4.332E-02 5.794E-02 1.031E-01 2.537E+00 2.791E+05  8.3304 1.00000
  7.943E+05 7.961E+05 2.452E+00 2.087E-03 5.025E-02 6.492E-02 1.173E-01 2.569E+00 3.129E+05  8.5598 1.00000
  8.913E+05 8.930E+05 2.470E+00 2.393E-03 5.820E-02 7.280E-02 1.334E-01 2.603E+00 3.504E+05  8.7894 1.00000
  1.000E+06 1.002E+06 2.487E+00 2.743E-03 6.732E-02 8.172E-02 1.518E-01 2.639E+00 3.919E+05  9.0192 1.00000
  1.122E+06 1.124E+06 2.505E+00 3.143E-03 7.776E-02 9.181E-02 1.727E-01 2.677E+00 4.378E+05  9.2491 1.00000
  1.259E+06 1.261E+06 2.522E+00 3.600E-03 8.971E-02 1.032E-01 1.965E-01 2.719E+00 4.886E+05  9.4790 1.00000
  1.413E+06 1.414E+06 2.539E+00 4.123E-03 1.034E-01 1.162E-01 2.237E-01 2.763E+00 5.446E+05  9.7089 1.00000
  1.585E+06 1.587E+06 2.556E+00 4.720E-03 1.190E-01 1.309E-01 2.545E-01 2.811E+00 6.065E+05  9.9389 1.00000
  1.778E+06 1.780E+06 2.573E+00 5.402E-03 1.367E-01 1.475E-01 2.897E-01 2.863E+00 6.746E+05 10.1689 1.00000
  1.995E+06 1.997E+06 2.590E+00 6.181E-03 1.570E-01 1.664E-01 3.296E-01 2.920E+00 7.497E+05 10.3990 1.00000
  2.239E+06 2.240E+06 2.607E+00 7.071E-03 1.801E-01 1.879E-01 3.750E-01 2.982E+00 8.322E+05 10.6291 1.00000
  2.512E+06 2.514E+06 2.624E+00 8.086E-03 2.063E-01 2.123E-01 4.267E-01 3.050E+00 9.228E+05 10.8591 1.00000
  2.818E+06 2.820E+06 2.640E+00 9.244E-03 2.361E-01 2.400E-01 4.854E-01 3.125E+00 1.022E+06 11.0892 1.00000
  3.162E+06 3.164E+06 2.656E+00 1.057E-02 2.700E-01 2.715E-01 5.521E-01 3.208E+00 1.131E+06 11.3194 1.00000
  3.548E+06 3.550E+06 2.673E+00 1.207E-02 3.085E-01 3.073E-01 6.278E-01 3.300E+00 1.249E+06 11.5495 1.00000
  3.981E+06 3.983E+06 2.689E+00 1.379E-02 3.520E-01 3.481E-01 7.139E-01 3.403E+00 1.378E+06 11.7797 1.00000
  4.467E+06 4.469E+06 2.704E+00 1.575E-02 4.014E-01 3.945E-01 8.116E-01 3.516E+00 1.519E+06 12.0098 1.00000
  5.012E+06 5.014E+06 2.720E+00 1.798E-02 4.573E-01 4.473E-01 9.226E-01 3.643E+00 1.671E+06 12.2400 1.00000
  5.623E+06 5.625E+06 2.736E+00 2.052E-02 5.206E-01 5.074E-01 1.049E+00 3.784E+00 1.836E+06 12.4702 1.00000
  6.310E+06 6.311E+06 2.751E+00 2.342E-02 5.922E-01 5.759E-01 1.192E+00 3.943E+00 2.014E+06 12.7004 1.00000
  7.079E+06 7.081E+06 2.766E+00 2.671E-02 6.731E-01 6.539E-01 1.354E+00 4.120E+00 2.205E+06 12.9306 1.00000
  7.943E+06 7.945E+06 2.781E+00 3.047E-02 7.644E-01 7.428E-01 1.538E+00 4.319E+00 2.410E+06 13.1608 1.00000
  8.913E+06 8.914E+06 2.796E+00 3.474E-02 8.676E-01 8.441E-01 1.746E+00 4.543E+00 2.628E+06 13.3910 1.00000
  1.000E+07 1.000E+07 2.811E+00 3.960E-02 9.841E-01 9.596E-01 1.983E+00 4.794E+00 2.862E+06 13.6212 1.00000
  1.122E+07 1.122E+07 2.826E+00 4.512E-02 1.115E+00 1.091E+00 2.252E+00 5.077E+00 3.109E+06 13.8514 1.00000
  1.259E+07 1.259E+07 2.840E+00 5.141E-02 1.264E+00 1.241E+00 2.556E+00 5.396E+00 3.371E+06 14.0816 1.00000
  1.413E+07 1.413E+07 2.855E+00 5.855E-02 1.430E+00 1.412E+00 2.901E+00 5.756E+00 3.646E+06 14.3119 1.00000
  1.585E+07 1.585E+07 2.869E+00 6.667E-02 1.619E+00 1.608E+00 3.293E+00 6.162E+00 3.936E+06 14.5421 1.00000
  1.778E+07 1.778E+07 2.883E+00 7.589E-02 1.830E+00 1.830E+00 3.736E+00 6.619E+00 4.239E+06 14.7723 1.00000
  1.995E+07 1.995E+07 2.897E+00 8.636E-02 2.069E+00 2.084E+00 4.239E+00 7.136E+00 4.555E+06 15.0026 1.00000
  2.239E+07 2.239E+07 2.911E+00 9.825E-02 2.337E+00 2.374E+00 4.809E+00 7.721E+00 4.883E+06 15.2328 1.00000
  2.512E+07 2.512E+07 2.925E+00 1.117E-01 2.640E+00 2.704E+00 5.455E+00 8.381E+00 5.223E+06 15.4630 1.00000
  2.818E+07 2.819E+07 2.939E+00 1.271E-01 2.980E+00 3.081E+00 6.188E+00 9.127E+00 5.574E+06 15.6933 1.00000
  3.162E+07 3.162E+07 2.953E+00 1.444E-01 3.362E+00 3.511E+00 7.018E+00 9.971E+00 5.935E+06 15.9235 1.00000
  3.548E+07 3.548E+07 2.967E+00 1.641E-01 3.792E+00 4.002E+00 7.959E+00 1.093E+01 6.305E+06 16.1538 1.00000
  3.981E+07 3.981E+07 2.980E+00 1.865E-01 4.275E+00 4.563E+00 9.025E+00 1.201E+01 6.683E+06 16.3840 1.00000
  4.467E+07 4.467E+07 2.994E+00 2.118E-01 4.819E+00 5.203E+00 1.023E+01 1.323E+01 7.069E+06 16.6143 1.00000
  5.012E+07 5.012E+07 3.008E+00 2.405E-01 5.429E+00 5.933E+00 1.160E+01 1.461E+01 7.462E+06 16.8445 1.00000
  5.623E+07 5.624E+07 3.022E+00 2.729E-01 6.116E+00 6.767E+00 1.316E+01 1.618E+01 7.860E+06 17.0748 1.00000
  6.310E+07 6.310E+07 3.035E+00 3.097E-01 6.887E+00 7.718E+00 1.491E+01 1.795E+01 8.263E+06 17.3050 1.00000
  7.079E+07 7.080E+07 3.049E+00 3.514E-01 7.753E+00 8.805E+00 1.691E+01 1.996E+01 8.670E+06 17.5353 1.00000
  7.943E+07 7.943E+07 3.063E+00 3.985E-01 8.726E+00 1.005E+01 1.917E+01 2.223E+01 9.081E+06 17.7655 1.00000
  8.913E+07 8.913E+07 3.077E+00 4.518E-01 9.819E+00 1.146E+01 2.173E+01 2.481E+01 9.494E+06 17.9958 1.00000
  1.000E+08 1.000E+08 3.090E+00 5.121E-01 1.105E+01 1.308E+01 2.464E+01 2.773E+01 9.910E+06 18.2260 1.00000
  1.122E+08 1.122E+08 3.104E+00 5.803E-01 1.242E+01 1.493E+01 2.793E+01 3.104E+01 1.033E+07 18.4563 1.00000
  1.259E+08 1.259E+08 3.118E+00 6.574E-01 1.397E+01 1.704E+01 3.167E+01 3.479E+01 1.074E+07 18.6865 1.00000
  1.413E+08 1.413E+08 3.132E+00 7.445E-01 1.571E+01 1.945E+01 3.590E+01 3.903E+01 1.116E+07 18.9168 1.00000
  1.585E+08 1.585E+08 3.146E+00 8.429E-01 1.766E+01 2.220E+01 4.071E+01 4.385E+01 1.158E+07 19.1471 1.00000
  1.778E+08 1.778E+08 3.160E+00 9.541E-01 1.985E+01 2.535E+01 4.615E+01 4.931E+01 1.200E+07 19.3773 1.00000
  1.995E+08 1.995E+08 3.174E+00 1.080E+00 2.231E+01 2.894E+01 5.233E+01 5.550E+01 1.241E+07 19.6076 1.00000
  2.239E+08 2.239E+08 3.188E+00 1.221E+00 2.507E+01 3.304E+01 5.933E+01 6.252E+01 1.282E+07 19.8378 1.00000
  2.512E+08 2.512E+08 3.202E+00 1.381E+00 2.817E+01 3.773E+01 6.728E+01 7.048E+01 1.324E+07 20.0681 1.00000
  2.818E+08 2.818E+08 3.216E+00 1.562E+00 3.164E+01 4.309E+01 7.629E+01 7.951E+01 1.365E+07 20.2983 1.00000
  3.162E+08 3.162E+08 3.231E+00 1.765E+00 3.555E+01 4.921E+01 8.652E+01 8.975E+01 1.405E+07 20.5286 1.00000
  3.548E+08 3.548E+08 3.245E+00 1.995E+00 3.993E+01 5.621E+01 9.813E+01 1.014E+02 1.446E+07 20.7589 1.00000
  3.981E+08 3.981E+08 3.259E+00 2.253E+00 4.484E+01 6.420E+01 1.113E+02 1.146E+02 1.486E+07 20.9891 1.00000
  4.467E+08 4.467E+08 3.274E+00 2.545E+00 5.036E+01 7.333E+01 1.262E+02 1.295E+02 1.526E+07 21.2194 1.00000
  5.012E+08 5.012E+08 3.288E+00 2.874E+00 5.655E+01 8.377E+01 1.432E+02 1.465E+02 1.566E+07 21.4496 1.00000
  5.623E+08 5.623E+08 3.303E+00 3.244E+00 6.350E+01 9.571E+01 1.624E+02 1.657E+02 1.605E+07 21.6799 1.00000
  6.310E+08 6.310E+08 3.318E+00 3.661E+00 7.129E+01 1.093E+02 1.843E+02 1.876E+02 1.644E+07 21.9101 1.00000
  7.079E+08 7.079E+08 3.332E+00 4.131E+00 8.004E+01 1.249E+02 2.091E+02 2.124E+02 1.683E+07 22.1404 1.00000
  7.943E+08 7.943E+08 3.347E+00 4.659E+00 8.986E+01 1.427E+02 2.373E+02 2.406E+02 1.721E+07 22.3707 1.00000
  8.913E+08 8.913E+08 3.362E+00 5.255E+00 1.009E+02 1.631E+02 2.692E+02 2.726E+02 1.759E+07 22.6009 1.00000
  1.000E+09 1.000E+09 3.377E+00 5.925E+00 1.132E+02 1.864E+02 3.056E+02 3.089E+02 1.797E+07 22.8312 1.00000
  1.122E+09 1.122E+09 3.392E+00 6.679E+00 1.271E+02 2.130E+02 3.468E+02 3.502E+02 1.834E+07 23.0614 1.00000
  1.259E+09 1.259E+09 3.407E+00 7.528E+00 1.427E+02 2.435E+02 3.937E+02 3.971E+02 1.871E+07 23.2917 1.00000
  1.413E+09 1.413E+09 3.423E+00 8.482E+00 1.601E+02 2.783E+02 4.469E+02 4.503E+02 1.907E+07 23.5219 1.00000
  1.585E+09 1.585E+09 3.438E+00 9.556E+00 1.797E+02 3.181E+02 5.074E+02 5.108E+02 1.943E+07 23.7522 1.00000
  1.778E+09 1.778E+09 3.453E+00 1.076E+01 2.017E+02 3.636E+02 5.761E+02 5.795E+02 1.979E+07 23.9825 1.00000
  1.995E+09 1.995E+09 3.469E+00 1.212E+01 2.264E+02 4.156E+02 6.542E+02 6.576E+02 2.014E+07 24.2127 1.00000
  2.239E+09 2.239E+09 3.484E+00 1.365E+01 2.541E+02 4.751E+02 7.429E+02 7.464E+02 2.049E+07 24.4430 1.00000
  2.512E+09 2.512E+09 3.500E+00 1.536E+01 2.852E+02 5.432E+02 8.437E+02 8.472E+02 2.083E+07 24.6732 1.00000
  2.818E+09 2.818E+09 3.516E+00 1.729E+01 3.200E+02 6.211E+02 9.584E+02 9.619E+02 2.117E+07 24.9035 1.00000
  3.162E+09 3.162E+09 3.531E+00 1.946E+01 3.591E+02 7.101E+02 1.089E+03 1.092E+03 2.151E+07 25.1338 1.00000
  3.548E+09 3.548E+09 3.547E+00 2.189E+01 4.030E+02 8.120E+02 1.237E+03 1.240E+03 2.184E+07 25.3640 1.00000
  3.981E+09 3.981E+09 3.563E+00 2.463E+01 4.523E+02 9.285E+02 1.405E+03 1.409E+03 2.217E+07 25.5943 1.00000
  4.467E+09 4.467E+09 3.579E+00 2.770E+01 5.075E+02 1.062E+03 1.597E+03 1.601E+03 2.249E+07 25.8245 1.00000
  5.012E+09 5.012E+09 3.596E+00 3.116E+01 5.695E+02 1.214E+03 1.815E+03 1.819E+03 2.281E+07 26.0548 1.00000
  5.623E+09 5.623E+09 3.612E+00 3.503E+01 6.391E+02 1.389E+03 2.063E+03 2.067E+03 2.313E+07 26.2850 1.00000
  6.310E+09 6.310E+09 3.628E+00 3.939E+01 7.171E+02 1.588E+03 2.345E+03 2.349E+03 2.344E+07 26.5153 1.00000
  7.079E+09 7.079E+09 3.645E+00 4.428E+01 8.047E+02 1.817E+03 2.666E+03 2.669E+03 2.375E+07 26.7456 1.00000
  7.943E+09 7.943E+09 3.661E+00 4.978E+01 9.030E+02 2.078E+03 3.031E+03 3.035E+03 2.405E+07 26.9758 1.00000
  8.913E+09 8.913E+09 3.678E+00 5.595E+01 1.013E+03 2.377E+03 3.446E+03 3.450E+03 2.435E+07 27.2061 1.00000
  1.000E+10 1.000E+10 3.695E+00 6.288E+01 1.137E+03 2.720E+03 3.919E+03 3.923E+03 2.465E+07 27.4363 1.00000
  1.122E+10 1.122E+10 3.711E+00 7.066E+01 1.276E+03 3.111E+03 4.458E+03 4.461E+03 2.494E+07 27.6666 1.00000
  1.259E+10 1.259E+10 3.728E+00 7.939E+01 1.431E+03 3.560E+03 5.071E+03 5.074E+03 2.523E+07 27.8969 1.00000
  1.413E+10 1.413E+10 3.745E+00 8.919E+01 1.606E+03 4.073E+03 5.768E+03 5.772E+03 2.551E+07 28.1271 1.00000
  1.585E+10 1.585E+10 3.762E+00 1.002E+02 1.802E+03 4.660E+03 6.563E+03 6.567E+03 2.579E+07 28.3574 1.00000
  1.778E+10 1.778E+10 3.780E+00 1.126E+02 2.022E+03 5.333E+03 7.468E+03 7.471E+03 2.607E+07 28.5876 1.00000
  1.995E+10 1.995E+10 3.797E+00 1.264E+02 2.269E+03 6.103E+03 8.498E+03 8.502E+03 2.634E+07 28.8179 1.00000
  2.239E+10 2.239E+10 3.814E+00 1.420E+02 2.546E+03 6.984E+03 9.672E+03 9.675E+03 2.661E+07 29.0482 1.00000
  2.512E+10 2.512E+10 3.832E+00 1.595E+02 2.856E+03 7.993E+03 1.101E+04 1.101E+04 2.688E+07 29.2784 1.00000
  2.818E+10 2.818E+10 3.849E+00 1.791E+02 3.205E+03 9.148E+03 1.253E+04 1.254E+04 2.714E+07 29.5087 1.00000
  3.162E+10 3.162E+10 3.867E+00 2.011E+02 3.596E+03 1.047E+04 1.427E+04 1.427E+04 2.740E+07 29.7389 1.00000
  3.548E+10 3.548E+10 3.885E+00 2.258E+02 4.035E+03 1.199E+04 1.625E+04 1.625E+04 2.765E+07 29.9692 1.00000
  3.981E+10 3.981E+10 3.903E+00 2.535E+02 4.527E+03 1.372E+04 1.850E+04 1.850E+04 2.790E+07 30.1994 1.00000
  4.467E+10 4.467E+10 3.921E+00 2.847E+02 5.080E+03 1.571E+04 2.107E+04 2.107E+04 2.815E+07 30.4297 1.00000
  5.012E+10 5.012E+10 3.939E+00 3.196E+02 5.699E+03 1.798E+04 2.400E+04 2.400E+04 2.839E+07 30.6600 1.00000
  5.623E+10 5.623E+10 3.957E+00 3.588E+02 6.395E+03 2.059E+04 2.734E+04 2.734E+04 2.863E+07 30.8902 1.00000
  6.310E+10 6.310E+10 3.975E+00 4.027E+02 7.175E+03 2.357E+04 3.115E+04 3.115E+04 2.886E+07 31.1205 1.00000
  7.079E+10 7.079E+10 3.994E+00 4.521E+02 8.050E+03 2.699E+04 3.549E+04 3.549E+04 2.910E+07 31.3507 1.00000
  7.943E+10 7.943E+10 4.012E+00 5.075E+02 9.032E+03 3.090E+04 4.044E+04 4.045E+04 2.932E+07 31.5810 1.00000
  8.913E+10 8.913E+10 4.031E+00 5.696E+02 1.013E+04 3.539E+04 4.609E+04 4.609E+04 2.955E+07 31.8113 1.00000
  1.000E+11 1.000E+11 4.050E+00 6.394E+02 1.137E+04 4.052E+04 5.253E+04 5.254E+04 2.977E+07 32.0415 1.00000
  1.122E+11 1.122E+11 4.069E+00 7.176E+02 1.276E+04 4.641E+04 5.989E+04 5.989E+04 2.999E+07 32.2718 1.00000
  1.259E+11 1.259E+11 4.087E+00 8.055E+02 1.431E+04 5.315E+04 6.827E+04 6.828E+04 3.020E+07 32.5020 1.00000
  1.413E+11 1.413E+11 4.107E+00 9.040E+02 1.606E+04 6.088E+04 7.784E+04 7.785E+04 3.041E+07 32.7323 1.00000
  1.585E+11 1.585E+11 4.126E+00 1.015E+03 1.802E+04 6.973E+04 8.877E+04 8.877E+04 3.062E+07 32.9625 1.00000
  1.778E+11 1.778E+11 4.145E+00 1.139E+03 2.022E+04 7.988E+04 1.012E+05 1.012E+05 3.083E+07 33.1928 1.00000
  1.995E+11 1.995E+11 4.164E+00 1.278E+03 2.268E+04 9.150E+04 1.155E+05 1.155E+05 3.103E+07 33.4231 1.00000
  2.239E+11 2.239E+11 4.184E+00 1.434E+03 2.545E+04 1.048E+05 1.317E+05 1.317E+05 3.123E+07 33.6533 1.00000
  2.512E+11 2.512E+11 4.203E+00 1.609E+03 2.856E+04 1.201E+05 1.503E+05 1.503E+05 3.142E+07 33.8836 1.00000
  2.818E+11 2.818E+11 4.223E+00 1.806E+03 3.204E+04 1.376E+05 1.714E+05 1.714E+05 3.161E+07 34.1138 1.00000
  3.162E+11 3.162E+11 4.243E+00 2.027E+03 3.595E+04 1.577E+05 1.956E+05 1.956E+05 3.180E+07 34.3441 1.00000
  3.548E+11 3.548E+11 4.263E+00 2.274E+03 4.033E+04 1.806E+05 2.233E+05 2.233E+05 3.199E+07 34.5744 1.00000
  3.981E+11 3.981E+11 4.283E+00 2.552E+03 4.525E+04 2.070E+05 2.548E+05 2.548E+05 3.217E+07 34.8046 1.00000
  4.467E+11 4.467E+11 4.303E+00 2.864E+03 5.077E+04 2.372E+05 2.909E+05 2.909E+05 3.235E+07 35.0349 1.00000
  5.012E+11 5.012E+11 4.323E+00 3.214E+03 5.697E+04 2.719E+05 3.320E+05 3.320E+05 3.252E+07 35.2651 1.00000
  5.623E+11 5.623E+11 4.344E+00 3.606E+03 6.392E+04 3.116E+05 3.791E+05 3.791E+05 3.269E+07 35.4954 1.00000
  6.310E+11 6.310E+11 4.364E+00 4.047E+03 7.171E+04 3.571E+05 4.329E+05 4.329E+05 3.286E+07 35.7256 1.00000
  7.079E+11 7.079E+11 4.385E+00 4.541E+03 8.046E+04 4.093E+05 4.943E+05 4.943E+05 3.303E+07 35.9559 1.00000
  7.943E+11 7.943E+11 4.405E+00 5.095E+03 9.028E+04 4.692E+05 5.645E+05 5.645E+05 3.319E+07 36.1862 1.00000
  8.913E+11 8.913E+11 4.426E+00 5.717E+03 1.013E+05 5.378E+05 6.448E+05 6.448E+05 3.336E+07 36.4164 1.00000
  1.000E+12 1.000E+12 4.447E+00 6.415E+03 1.136E+05 6.165E+05 7.366E+05 7.366E+05 3.351E+07 36.6467 1.00000
  1.122E+12 1.122E+12 4.468E+00 7.198E+03 1.275E+05 7.068E+05 8.415E+05 8.415E+05 3.367E+07 36.8769 1.00000
  1.259E+12 1.259E+12 4.489E+00 8.077E+03 1.431E+05 8.103E+05 9.615E+05 9.615E+05 3.382E+07 37.1072 1.00000
  1.413E+12 1.413E+12 4.511E+00 9.063E+03 1.605E+05 9.291E+05 1.099E+06 1.099E+06 3.397E+07 37.3375 1.00000
  1.585E+12 1.585E+12 4.532E+00 1.017E+04 1.801E+05 1.065E+06 1.256E+06 1.256E+06 3.412E+07 37.5677 1.00000
  1.778E+12 1.778E+12 4.554E+00 1.141E+04 2.020E+05 1.222E+06 1.435E+06 1.435E+06 3.426E+07 37.7980 1.00000
  1.995E+12 1.995E+12 4.575E+00 1.280E+04 2.267E+05 1.401E+06 1.640E+06 1.640E+06 3.440E+07 38.0282 1.00000
  2.239E+12 2.239E+12 4.597E+00 1.437E+04 2.543E+05 1.606E+06 1.875E+06 1.875E+06 3.454E+07 38.2585 1.00000
  2.512E+12 2.512E+12 4.619E+00 1.612E+04 2.854E+05 1.842E+06 2.144E+06 2.144E+06 3.468E+07 38.4887 1.00000
  2.818E+12 2.818E+12 4.641E+00 1.809E+04 3.202E+05 2.113E+06 2.451E+06 2.451E+06 3.481E+07 38.7190 1.00000
  3.162E+12 3.162E+12 4.663E+00 2.029E+04 3.592E+05 2.423E+06 2.803E+06 2.803E+06 3.495E+07 38.9493 1.00000
  3.548E+12 3.548E+12 4.685E+00 2.277E+04 4.030E+05 2.780E+06 3.205E+06 3.205E+06 3.508E+07 39.1795 1.00000
  3.981E+12 3.981E+12 4.708E+00 2.555E+04 4.522E+05 3.188E+06 3.666E+06 3.666E+06 3.520E+07 39.4098 1.00000
  4.467E+12 4.467E+12 4.730E+00 2.867E+04 5.074E+05 3.657E+06 4.193E+06 4.193E+06 3.533E+07 39.6400 1.00000
  5.012E+12 5.012E+12 4.753E+00 3.217E+04 5.692E+05 4.196E+06 4.797E+06 4.797E+06 3.545E+07 39.8703 1.00000
  5.623E+12 5.623E+12 4.775E+00 3.609E+04 6.387E+05 4.813E+06 5.488E+06 5.488E+06 3.557E+07 40.1006 1.00000
  6.310E+12 6.310E+12 4.798E+00 4.050E+04 7.166E+05 5.522E+06 6.280E+06 6.280E+06 3.568E+07 40.3308 1.00000
  7.079E+12 7.079E+12 4.821E+00 4.544E+04 8.040E+05 6.336E+06 7.186E+06 7.186E+06 3.580E+07 40.5611 1.00000
  7.943E+12 7.943E+12 4.844E+00 5.098E+04 9.020E+05 7.270E+06 8.223E+06 8.223E+06 3.591E+07 40.7913 1.00000
  8.913E+12 8.913E+12 4.868E+00 5.720E+04 1.012E+06 8.342E+06 9.412E+06 9.412E+06 3.602E+07 41.0216 1.00000
  1.000E+13 1.000E+13 4.891E+00 6.418E+04 1.135E+06 9.573E+06 1.077E+07 1.077E+07 3.613E+07 41.2519 1.00000
  1.122E+13 1.122E+13 4.914E+00 7.202E+04 1.274E+06 1.099E+07 1.233E+07 1.233E+07 3.624E+07 41.4821 1.00000
  1.259E+13 1.259E+13 4.938E+00 8.080E+04 1.429E+06 1.261E+07 1.412E+07 1.412E+07 3.634E+07 41.7124 1.00000
  1.413E+13 1.413E+13 4.962E+00 9.066E+04 1.604E+06 1.447E+07 1.616E+07 1.616E+07 3.644E+07 41.9426 1.00000
  1.585E+13 1.585E+13 4.986E+00 1.017E+05 1.799E+06 1.661E+07 1.851E+07 1.851E+07 3.654E+07 42.1729 1.00000
  1.778E+13 1.778E+13 5.010E+00 1.141E+05 2.019E+06 1.906E+07 2.119E+07 2.119E+07 3.664E+07 42.4031 1.00000
  1.995E+13 1.995E+13 5.034E+00 1.281E+05 2.265E+06 2.188E+07 2.427E+07 2.427E+07 3.674E+07 42.6334 1.00000
  2.239E+13 2.239E+13 5.058E+00 1.437E+05 2.541E+06 2.512E+07 2.780E+07 2.780E+07 3.683E+07 42.8637 1.00000
  2.512E+13 2.512E+13 5.083E+00 1.612E+05 2.851E+06 2.883E+07 3.184E+07 3.184E+07 3.692E+07 43.0939 1.00000
  2.818E+13 2.818E+13 5.107E+00 1.809E+05 3.199E+06 3.310E+07 3.648E+07 3.648E+07 3.701E+07 43.3242 1.00000
  3.162E+13 3.162E+13 5.132E+00 2.030E+05 3.589E+06 3.800E+07 4.179E+07 4.179E+07 3.710E+07 43.5544 1.00000
  3.548E+13 3.548E+13 5.157E+00 2.277E+05 4.026E+06 4.363E+07 4.788E+07 4.788E+07 3.719E+07 43.7847 1.00000
  3.981E+13 3.981E+13 5.181E+00 2.555E+05 4.517E+06 5.010E+07 5.487E+07 5.487E+07 3.727E+07 44.0150 1.00000
  4.467E+13 4.467E+13 5.207E+00 2.867E+05 5.068E+06 5.752E+07 6.288E+07 6.288E+07 3.735E+07 44.2452 1.00000
  5.012E+13 5.012E+13 5.232E+00 3.217E+05 5.686E+06 6.605E+07 7.206E+07 7.206E+07 3.744E+07 44.4755 1.00000
  5.623E+13 5.623E+13 5.257E+00 3.609E+05 6.380E+06 7.585E+07 8.259E+07 8.259E+07 3.752E+07 44.7057 1.00000
  6.310E+13 6.310E+13 5.283E+00 4.050E+05 7.158E+06 8.711E+07 9.467E+07 9.467E+07 3.759E+07 44.9360 1.00000
  7.079E+13 7.079E+13 5.308E+00 4.544E+05 8.031E+06 1.000E+08 1.085E+08 1.085E+08 3.767E+07 45.1662 1.00000
  7.943E+13 7.943E+13 5.334E+00 5.099E+05 9.010E+06 1.149E+08 1.244E+08 1.244E+08 3.774E+07 45.3965 1.00000
  8.913E+13 8.913E+13 5.360E+00 5.721E+05 1.011E+07 1.320E+08 1.426E+08 1.426E+08 3.782E+07 45.6268 1.00000
