 Incident particle is a Tau with M = 1776.82000 MeV
 Index = 0: SoftTissueICRUFourComponent
      Absorber with <Z/A> = 0.54967
 Sternheimer coef:  a     k=m_s   x_0    x_1    I[eV]   Cbar  delta0
                 0.0963  3.4371  0.2377  2.7908   74.9  3.5087 0.00

 *** Table generated with PUMAS v1.00 ***

      T         p     Ionization  brems     pair     photonuc  Radloss    dE/dx   CSDA Range  delta   beta
    [MeV]    [MeV/c]  -----------------------[MeV cm^2/g]------------------------  [g/cm^2]
  1.000E+05 1.018E+05 2.421E+00 1.414E-04 2.204E-03 8.376E-03 1.072E-02 2.431E+00 2.057E+04  4.6945 0.99985
  1.122E+05 1.140E+05 2.442E+00 1.634E-04 2.662E-03 9.462E-03 1.229E-02 2.454E+00 2.556E+04  4.9044 0.99988
  1.259E+05 1.277E+05 2.463E+00 1.886E-04 3.202E-03 1.063E-02 1.402E-02 2.477E+00 3.111E+04  5.1166 0.99990
  1.413E+05 1.430E+05 2.484E+00 2.177E-04 3.838E-03 1.195E-02 1.601E-02 2.500E+00 3.729E+04  5.3309 0.99992
  1.585E+05 1.603E+05 2.504E+00 2.511E-04 4.587E-03 1.342E-02 1.826E-02 2.523E+00 4.415E+04  5.5471 0.99994
  1.778E+05 1.796E+05 2.525E+00 2.896E-04 5.465E-03 1.507E-02 2.083E-02 2.546E+00 5.178E+04  5.7652 0.99995
  1.995E+05 2.013E+05 2.546E+00 3.337E-04 6.494E-03 1.695E-02 2.378E-02 2.570E+00 6.027E+04  5.9849 0.99996
  2.239E+05 2.256E+05 2.566E+00 3.844E-04 7.698E-03 1.901E-02 2.709E-02 2.593E+00 6.970E+04  6.2061 0.99997
  2.512E+05 2.530E+05 2.587E+00 4.427E-04 9.101E-03 2.132E-02 3.086E-02 2.618E+00 8.018E+04  6.4286 0.99998
  2.818E+05 2.836E+05 2.607E+00 5.095E-04 1.074E-02 2.391E-02 3.516E-02 2.642E+00 9.184E+04  6.6523 0.99998
  3.162E+05 3.180E+05 2.628E+00 5.862E-04 1.264E-02 2.685E-02 4.008E-02 2.668E+00 1.048E+05  6.8772 0.99998
  3.548E+05 3.566E+05 2.648E+00 6.742E-04 1.484E-02 3.015E-02 4.567E-02 2.693E+00 1.192E+05  7.1030 0.99999
  3.981E+05 3.999E+05 2.668E+00 7.751E-04 1.740E-02 3.383E-02 5.201E-02 2.720E+00 1.352E+05  7.3296 0.99999
  4.467E+05 4.485E+05 2.688E+00 8.907E-04 2.036E-02 3.797E-02 5.922E-02 2.747E+00 1.529E+05  7.5570 0.99999
  5.012E+05 5.030E+05 2.708E+00 1.023E-03 2.378E-02 4.262E-02 6.742E-02 2.776E+00 1.727E+05  7.7850 0.99999
  5.623E+05 5.641E+05 2.728E+00 1.175E-03 2.773E-02 4.766E-02 7.657E-02 2.805E+00 1.946E+05  8.0135 1.00000
  6.310E+05 6.327E+05 2.748E+00 1.349E-03 3.228E-02 5.335E-02 8.698E-02 2.835E+00 2.189E+05  8.2424 1.00000
  7.079E+05 7.097E+05 2.768E+00 1.548E-03 3.752E-02 5.976E-02 9.883E-02 2.867E+00 2.459E+05  8.4717 1.00000
  7.943E+05 7.961E+05 2.787E+00 1.775E-03 4.355E-02 6.701E-02 1.123E-01 2.900E+00 2.759E+05  8.7012 1.00000
  8.913E+05 8.930E+05 2.807E+00 2.036E-03 5.047E-02 7.521E-02 1.277E-01 2.935E+00 3.091E+05  8.9309 1.00000
  1.000E+06 1.002E+06 2.827E+00 2.334E-03 5.840E-02 8.448E-02 1.452E-01 2.972E+00 3.460E+05  9.1607 1.00000
  1.122E+06 1.124E+06 2.846E+00 2.675E-03 6.750E-02 9.497E-02 1.652E-01 3.011E+00 3.868E+05  9.3906 1.00000
  1.259E+06 1.261E+06 2.865E+00 3.065E-03 7.792E-02 1.069E-01 1.878E-01 3.053E+00 4.319E+05  9.6205 1.00000
  1.413E+06 1.414E+06 2.884E+00 3.511E-03 8.982E-02 1.203E-01 2.137E-01 3.098E+00 4.819E+05  9.8504 1.00000
  1.585E+06 1.587E+06 2.903E+00 4.021E-03 1.034E-01 1.356E-01 2.431E-01 3.147E+00 5.371E+05 10.0804 1.00000
  1.778E+06 1.780E+06 2.922E+00 4.603E-03 1.190E-01 1.530E-01 2.765E-01 3.199E+00 5.980E+05 10.3104 1.00000
  1.995E+06 1.997E+06 2.941E+00 5.268E-03 1.367E-01 1.726E-01 3.146E-01 3.256E+00 6.653E+05 10.5405 1.00000
  2.239E+06 2.240E+06 2.960E+00 6.028E-03 1.568E-01 1.950E-01 3.578E-01 3.318E+00 7.393E+05 10.7706 1.00000
  2.512E+06 2.514E+06 2.978E+00 6.896E-03 1.798E-01 2.204E-01 4.071E-01 3.385E+00 8.209E+05 11.0006 1.00000
  2.818E+06 2.820E+06 2.997E+00 7.886E-03 2.059E-01 2.493E-01 4.630E-01 3.460E+00 9.104E+05 11.2307 1.00000
  3.162E+06 3.164E+06 3.015E+00 9.017E-03 2.355E-01 2.821E-01 5.266E-01 3.541E+00 1.009E+06 11.4609 1.00000
  3.548E+06 3.550E+06 3.033E+00 1.031E-02 2.692E-01 3.195E-01 5.989E-01 3.632E+00 1.116E+06 11.6910 1.00000
  3.981E+06 3.983E+06 3.051E+00 1.178E-02 3.073E-01 3.620E-01 6.811E-01 3.732E+00 1.234E+06 11.9212 1.00000
  4.467E+06 4.469E+06 3.068E+00 1.346E-02 3.506E-01 4.104E-01 7.744E-01 3.843E+00 1.362E+06 12.1513 1.00000
  5.012E+06 5.014E+06 3.086E+00 1.537E-02 3.997E-01 4.654E-01 8.805E-01 3.966E+00 1.502E+06 12.3815 1.00000
  5.623E+06 5.625E+06 3.103E+00 1.755E-02 4.552E-01 5.281E-01 1.001E+00 4.104E+00 1.653E+06 12.6117 1.00000
  6.310E+06 6.311E+06 3.120E+00 2.004E-02 5.180E-01 5.996E-01 1.138E+00 4.258E+00 1.818E+06 12.8419 1.00000
  7.079E+06 7.081E+06 3.137E+00 2.287E-02 5.890E-01 6.809E-01 1.293E+00 4.430E+00 1.995E+06 13.0721 1.00000
  7.943E+06 7.945E+06 3.154E+00 2.610E-02 6.693E-01 7.737E-01 1.469E+00 4.623E+00 2.186E+06 13.3023 1.00000
  8.913E+06 8.914E+06 3.170E+00 2.977E-02 7.599E-01 8.793E-01 1.669E+00 4.839E+00 2.391E+06 13.5325 1.00000
  1.000E+07 1.000E+07 3.187E+00 3.395E-02 8.623E-01 9.998E-01 1.896E+00 5.083E+00 2.610E+06 13.7627 1.00000
  1.122E+07 1.122E+07 3.203E+00 3.871E-02 9.777E-01 1.137E+00 2.154E+00 5.357E+00 2.844E+06 13.9929 1.00000
  1.259E+07 1.259E+07 3.219E+00 4.412E-02 1.108E+00 1.294E+00 2.446E+00 5.665E+00 3.093E+06 14.2231 1.00000
  1.413E+07 1.413E+07 3.235E+00 5.028E-02 1.255E+00 1.472E+00 2.777E+00 6.013E+00 3.356E+06 14.4534 1.00000
  1.585E+07 1.585E+07 3.251E+00 5.728E-02 1.420E+00 1.676E+00 3.153E+00 6.405E+00 3.634E+06 14.6836 1.00000
  1.778E+07 1.778E+07 3.267E+00 6.523E-02 1.607E+00 1.908E+00 3.580E+00 6.847E+00 3.926E+06 14.9138 1.00000
  1.995E+07 1.995E+07 3.283E+00 7.428E-02 1.817E+00 2.173E+00 4.064E+00 7.347E+00 4.232E+06 15.1441 1.00000
  2.239E+07 2.239E+07 3.298E+00 8.455E-02 2.053E+00 2.475E+00 4.613E+00 7.911E+00 4.552E+06 15.3743 1.00000
  2.512E+07 2.512E+07 3.314E+00 9.621E-02 2.320E+00 2.820E+00 5.236E+00 8.549E+00 4.884E+06 15.6045 1.00000
  2.818E+07 2.819E+07 3.329E+00 1.095E-01 2.619E+00 3.213E+00 5.942E+00 9.271E+00 5.229E+06 15.8348 1.00000
  3.162E+07 3.162E+07 3.345E+00 1.245E-01 2.956E+00 3.662E+00 6.743E+00 1.009E+01 5.585E+06 16.0650 1.00000
  3.548E+07 3.548E+07 3.360E+00 1.415E-01 3.335E+00 4.175E+00 7.651E+00 1.101E+01 5.951E+06 16.2953 1.00000
  3.981E+07 3.981E+07 3.375E+00 1.609E-01 3.761E+00 4.759E+00 8.682E+00 1.206E+01 6.327E+06 16.5255 1.00000
  4.467E+07 4.467E+07 3.391E+00 1.828E-01 4.240E+00 5.427E+00 9.850E+00 1.324E+01 6.712E+06 16.7558 1.00000
  5.012E+07 5.012E+07 3.406E+00 2.077E-01 4.779E+00 6.189E+00 1.118E+01 1.458E+01 7.105E+06 16.9860 1.00000
  5.623E+07 5.624E+07 3.421E+00 2.358E-01 5.384E+00 7.059E+00 1.268E+01 1.610E+01 7.505E+06 17.2163 1.00000
  6.310E+07 6.310E+07 3.436E+00 2.678E-01 6.064E+00 8.052E+00 1.438E+01 1.782E+01 7.910E+06 17.4465 1.00000
  7.079E+07 7.080E+07 3.452E+00 3.039E-01 6.829E+00 9.186E+00 1.632E+01 1.977E+01 8.321E+06 17.6768 1.00000
  7.943E+07 7.943E+07 3.467E+00 3.449E-01 7.687E+00 1.048E+01 1.851E+01 2.198E+01 8.736E+06 17.9070 1.00000
  8.913E+07 8.913E+07 3.482E+00 3.912E-01 8.651E+00 1.196E+01 2.100E+01 2.448E+01 9.154E+06 18.1373 1.00000
  1.000E+08 1.000E+08 3.498E+00 4.436E-01 9.734E+00 1.365E+01 2.383E+01 2.732E+01 9.575E+06 18.3675 1.00000
  1.122E+08 1.122E+08 3.513E+00 5.029E-01 1.095E+01 1.558E+01 2.703E+01 3.054E+01 9.998E+06 18.5978 1.00000
  1.259E+08 1.259E+08 3.528E+00 5.700E-01 1.232E+01 1.778E+01 3.066E+01 3.419E+01 1.042E+07 18.8280 1.00000
  1.413E+08 1.413E+08 3.544E+00 6.458E-01 1.385E+01 2.029E+01 3.479E+01 3.833E+01 1.085E+07 19.0583 1.00000
  1.585E+08 1.585E+08 3.559E+00 7.316E-01 1.557E+01 2.317E+01 3.947E+01 4.303E+01 1.127E+07 19.2886 1.00000
  1.778E+08 1.778E+08 3.575E+00 8.284E-01 1.750E+01 2.645E+01 4.478E+01 4.835E+01 1.170E+07 19.5188 1.00000
  1.995E+08 1.995E+08 3.590E+00 9.379E-01 1.967E+01 3.020E+01 5.081E+01 5.440E+01 1.212E+07 19.7491 1.00000
  2.239E+08 2.239E+08 3.606E+00 1.061E+00 2.211E+01 3.448E+01 5.765E+01 6.126E+01 1.254E+07 19.9793 1.00000
  2.512E+08 2.512E+08 3.622E+00 1.201E+00 2.484E+01 3.937E+01 6.542E+01 6.904E+01 1.296E+07 20.2096 1.00000
  2.818E+08 2.818E+08 3.638E+00 1.358E+00 2.791E+01 4.496E+01 7.423E+01 7.787E+01 1.338E+07 20.4398 1.00000
  3.162E+08 3.162E+08 3.653E+00 1.536E+00 3.136E+01 5.135E+01 8.424E+01 8.790E+01 1.380E+07 20.6701 1.00000
  3.548E+08 3.548E+08 3.669E+00 1.737E+00 3.522E+01 5.865E+01 9.561E+01 9.928E+01 1.421E+07 20.9004 1.00000
  3.981E+08 3.981E+08 3.685E+00 1.963E+00 3.956E+01 6.699E+01 1.085E+02 1.122E+02 1.462E+07 21.1306 1.00000
  4.467E+08 4.467E+08 3.702E+00 2.218E+00 4.443E+01 7.652E+01 1.232E+02 1.269E+02 1.503E+07 21.3609 1.00000
  5.012E+08 5.012E+08 3.718E+00 2.505E+00 4.990E+01 8.742E+01 1.398E+02 1.435E+02 1.544E+07 21.5911 1.00000
  5.623E+08 5.623E+08 3.734E+00 2.829E+00 5.603E+01 9.987E+01 1.587E+02 1.625E+02 1.584E+07 21.8214 1.00000
  6.310E+08 6.310E+08 3.750E+00 3.194E+00 6.292E+01 1.141E+02 1.802E+02 1.840E+02 1.624E+07 22.0516 1.00000
  7.079E+08 7.079E+08 3.767E+00 3.605E+00 7.064E+01 1.304E+02 2.046E+02 2.084E+02 1.663E+07 22.2819 1.00000
  7.943E+08 7.943E+08 3.783E+00 4.068E+00 7.931E+01 1.490E+02 2.323E+02 2.361E+02 1.702E+07 22.5122 1.00000
  8.913E+08 8.913E+08 3.800E+00 4.590E+00 8.903E+01 1.702E+02 2.638E+02 2.676E+02 1.741E+07 22.7424 1.00000
  1.000E+09 1.000E+09 3.816E+00 5.177E+00 9.995E+01 1.945E+02 2.996E+02 3.035E+02 1.779E+07 22.9727 1.00000
  1.122E+09 1.122E+09 3.833E+00 5.838E+00 1.122E+02 2.223E+02 3.403E+02 3.442E+02 1.817E+07 23.2029 1.00000
  1.259E+09 1.259E+09 3.850E+00 6.582E+00 1.259E+02 2.541E+02 3.866E+02 3.904E+02 1.854E+07 23.4332 1.00000
  1.413E+09 1.413E+09 3.867E+00 7.419E+00 1.414E+02 2.904E+02 4.392E+02 4.430E+02 1.891E+07 23.6634 1.00000
  1.585E+09 1.585E+09 3.884E+00 8.361E+00 1.587E+02 3.319E+02 4.989E+02 5.028E+02 1.928E+07 23.8937 1.00000
  1.778E+09 1.778E+09 3.901E+00 9.421E+00 1.781E+02 3.794E+02 5.669E+02 5.708E+02 1.964E+07 24.1240 1.00000
  1.995E+09 1.995E+09 3.918E+00 1.061E+01 1.999E+02 4.337E+02 6.442E+02 6.481E+02 2.000E+07 24.3542 1.00000
  2.239E+09 2.239E+09 3.936E+00 1.195E+01 2.243E+02 4.958E+02 7.321E+02 7.360E+02 2.035E+07 24.5845 1.00000
  2.512E+09 2.512E+09 3.953E+00 1.346E+01 2.517E+02 5.668E+02 8.321E+02 8.360E+02 2.070E+07 24.8147 1.00000
  2.818E+09 2.818E+09 3.971E+00 1.515E+01 2.825E+02 6.481E+02 9.458E+02 9.497E+02 2.104E+07 25.0450 1.00000
  3.162E+09 3.162E+09 3.988E+00 1.706E+01 3.171E+02 7.410E+02 1.075E+03 1.079E+03 2.138E+07 25.2753 1.00000
  3.548E+09 3.548E+09 4.006E+00 1.920E+01 3.558E+02 8.473E+02 1.222E+03 1.226E+03 2.172E+07 25.5055 1.00000
  3.981E+09 3.981E+09 4.024E+00 2.160E+01 3.993E+02 9.689E+02 1.390E+03 1.394E+03 2.205E+07 25.7358 1.00000
  4.467E+09 4.467E+09 4.041E+00 2.430E+01 4.481E+02 1.108E+03 1.580E+03 1.584E+03 2.238E+07 25.9660 1.00000
  5.012E+09 5.012E+09 4.059E+00 2.734E+01 5.028E+02 1.267E+03 1.797E+03 1.801E+03 2.270E+07 26.1963 1.00000
  5.623E+09 5.623E+09 4.078E+00 3.075E+01 5.642E+02 1.449E+03 2.044E+03 2.048E+03 2.302E+07 26.4265 1.00000
  6.310E+09 6.310E+09 4.096E+00 3.458E+01 6.331E+02 1.658E+03 2.325E+03 2.329E+03 2.334E+07 26.6568 1.00000
  7.079E+09 7.079E+09 4.114E+00 3.889E+01 7.105E+02 1.896E+03 2.645E+03 2.649E+03 2.365E+07 26.8871 1.00000
  7.943E+09 7.943E+09 4.132E+00 4.372E+01 7.972E+02 2.169E+03 3.010E+03 3.014E+03 2.395E+07 27.1173 1.00000
  8.913E+09 8.913E+09 4.151E+00 4.915E+01 8.946E+02 2.481E+03 3.425E+03 3.429E+03 2.426E+07 27.3476 1.00000
  1.000E+10 1.000E+10 4.170E+00 5.525E+01 1.004E+03 2.838E+03 3.897E+03 3.901E+03 2.455E+07 27.5778 1.00000
  1.122E+10 1.122E+10 4.188E+00 6.210E+01 1.126E+03 3.247E+03 4.435E+03 4.439E+03 2.485E+07 27.8081 1.00000
  1.259E+10 1.259E+10 4.207E+00 6.978E+01 1.264E+03 3.715E+03 5.048E+03 5.053E+03 2.514E+07 28.0384 1.00000
  1.413E+10 1.413E+10 4.226E+00 7.841E+01 1.418E+03 4.250E+03 5.747E+03 5.751E+03 2.542E+07 28.2686 1.00000
  1.585E+10 1.585E+10 4.245E+00 8.811E+01 1.591E+03 4.863E+03 6.543E+03 6.547E+03 2.570E+07 28.4989 1.00000
  1.778E+10 1.778E+10 4.264E+00 9.898E+01 1.785E+03 5.565E+03 7.449E+03 7.454E+03 2.598E+07 28.7291 1.00000
  1.995E+10 1.995E+10 4.283E+00 1.112E+02 2.003E+03 6.368E+03 8.483E+03 8.487E+03 2.625E+07 28.9594 1.00000
  2.239E+10 2.239E+10 4.303E+00 1.249E+02 2.248E+03 7.288E+03 9.661E+03 9.665E+03 2.652E+07 29.1897 1.00000
  2.512E+10 2.512E+10 4.322E+00 1.403E+02 2.522E+03 8.341E+03 1.100E+04 1.101E+04 2.679E+07 29.4199 1.00000
  2.818E+10 2.818E+10 4.342E+00 1.576E+02 2.830E+03 9.546E+03 1.253E+04 1.254E+04 2.705E+07 29.6502 1.00000
  3.162E+10 3.162E+10 4.362E+00 1.770E+02 3.175E+03 1.093E+04 1.428E+04 1.428E+04 2.731E+07 29.8804 1.00000
  3.548E+10 3.548E+10 4.381E+00 1.987E+02 3.563E+03 1.251E+04 1.627E+04 1.627E+04 2.756E+07 30.1107 1.00000
  3.981E+10 3.981E+10 4.401E+00 2.231E+02 3.997E+03 1.432E+04 1.854E+04 1.854E+04 2.781E+07 30.3409 1.00000
  4.467E+10 4.467E+10 4.421E+00 2.506E+02 4.485E+03 1.639E+04 2.113E+04 2.113E+04 2.806E+07 30.5712 1.00000
  5.012E+10 5.012E+10 4.441E+00 2.813E+02 5.032E+03 1.876E+04 2.408E+04 2.408E+04 2.830E+07 30.8015 1.00000
  5.623E+10 5.623E+10 4.462E+00 3.158E+02 5.646E+03 2.148E+04 2.744E+04 2.745E+04 2.854E+07 31.0317 1.00000
  6.310E+10 6.310E+10 4.482E+00 3.546E+02 6.335E+03 2.460E+04 3.128E+04 3.129E+04 2.877E+07 31.2620 1.00000
  7.079E+10 7.079E+10 4.502E+00 3.981E+02 7.108E+03 2.816E+04 3.567E+04 3.567E+04 2.900E+07 31.4922 1.00000
  7.943E+10 7.943E+10 4.523E+00 4.469E+02 7.975E+03 3.225E+04 4.067E+04 4.067E+04 2.923E+07 31.7225 1.00000
  8.913E+10 8.913E+10 4.544E+00 5.016E+02 8.948E+03 3.693E+04 4.638E+04 4.638E+04 2.945E+07 31.9528 1.00000
  1.000E+11 1.000E+11 4.565E+00 5.631E+02 1.004E+04 4.229E+04 5.289E+04 5.290E+04 2.967E+07 32.1830 1.00000
  1.122E+11 1.122E+11 4.586E+00 6.320E+02 1.126E+04 4.843E+04 6.033E+04 6.033E+04 2.989E+07 32.4133 1.00000
  1.259E+11 1.259E+11 4.607E+00 7.094E+02 1.264E+04 5.547E+04 6.882E+04 6.882E+04 3.010E+07 32.6435 1.00000
  1.413E+11 1.413E+11 4.628E+00 7.962E+02 1.418E+04 6.353E+04 7.851E+04 7.851E+04 3.031E+07 32.8738 1.00000
  1.585E+11 1.585E+11 4.649E+00 8.937E+02 1.591E+04 7.277E+04 8.957E+04 8.958E+04 3.052E+07 33.1040 1.00000
  1.778E+11 1.778E+11 4.671E+00 1.003E+03 1.785E+04 8.336E+04 1.022E+05 1.022E+05 3.072E+07 33.3343 1.00000
  1.995E+11 1.995E+11 4.692E+00 1.126E+03 2.003E+04 9.549E+04 1.166E+05 1.166E+05 3.092E+07 33.5646 1.00000
  2.239E+11 2.239E+11 4.714E+00 1.263E+03 2.247E+04 1.094E+05 1.331E+05 1.331E+05 3.112E+07 33.7948 1.00000
  2.512E+11 2.512E+11 4.736E+00 1.418E+03 2.521E+04 1.253E+05 1.520E+05 1.520E+05 3.131E+07 34.0251 1.00000
  2.818E+11 2.818E+11 4.757E+00 1.591E+03 2.829E+04 1.436E+05 1.735E+05 1.735E+05 3.150E+07 34.2553 1.00000
  3.162E+11 3.162E+11 4.779E+00 1.786E+03 3.174E+04 1.645E+05 1.980E+05 1.981E+05 3.168E+07 34.4856 1.00000
  3.548E+11 3.548E+11 4.802E+00 2.004E+03 3.561E+04 1.885E+05 2.261E+05 2.261E+05 3.187E+07 34.7159 1.00000
  3.981E+11 3.981E+11 4.824E+00 2.249E+03 3.996E+04 2.160E+05 2.582E+05 2.582E+05 3.205E+07 34.9461 1.00000
  4.467E+11 4.467E+11 4.846E+00 2.523E+03 4.483E+04 2.475E+05 2.949E+05 2.949E+05 3.222E+07 35.1764 1.00000
  5.012E+11 5.012E+11 4.869E+00 2.832E+03 5.030E+04 2.837E+05 3.368E+05 3.368E+05 3.240E+07 35.4066 1.00000
  5.623E+11 5.623E+11 4.891E+00 3.177E+03 5.644E+04 3.251E+05 3.847E+05 3.847E+05 3.257E+07 35.6369 1.00000
  6.310E+11 6.310E+11 4.914E+00 3.565E+03 6.332E+04 3.726E+05 4.395E+05 4.395E+05 3.273E+07 35.8671 1.00000
  7.079E+11 7.079E+11 4.937E+00 4.001E+03 7.104E+04 4.271E+05 5.022E+05 5.022E+05 3.290E+07 36.0974 1.00000
  7.943E+11 7.943E+11 4.960E+00 4.489E+03 7.971E+04 4.896E+05 5.738E+05 5.738E+05 3.306E+07 36.3277 1.00000
  8.913E+11 8.913E+11 4.983E+00 5.038E+03 8.943E+04 5.612E+05 6.557E+05 6.557E+05 3.322E+07 36.5579 1.00000
  1.000E+12 1.000E+12 5.007E+00 5.653E+03 1.003E+05 6.434E+05 7.494E+05 7.494E+05 3.337E+07 36.7882 1.00000
  1.122E+12 1.122E+12 5.030E+00 6.343E+03 1.126E+05 7.376E+05 8.565E+05 8.565E+05 3.353E+07 37.0184 1.00000
  1.259E+12 1.259E+12 5.054E+00 7.117E+03 1.263E+05 8.456E+05 9.791E+05 9.791E+05 3.368E+07 37.2487 1.00000
  1.413E+12 1.413E+12 5.077E+00 7.986E+03 1.417E+05 9.695E+05 1.119E+06 1.119E+06 3.382E+07 37.4790 1.00000
  1.585E+12 1.585E+12 5.101E+00 8.961E+03 1.590E+05 1.112E+06 1.280E+06 1.280E+06 3.397E+07 37.7092 1.00000
  1.778E+12 1.778E+12 5.125E+00 1.005E+04 1.784E+05 1.275E+06 1.463E+06 1.463E+06 3.411E+07 37.9395 1.00000
  1.995E+12 1.995E+12 5.149E+00 1.128E+04 2.002E+05 1.462E+06 1.673E+06 1.673E+06 3.425E+07 38.1697 1.00000
  2.239E+12 2.239E+12 5.173E+00 1.266E+04 2.246E+05 1.676E+06 1.914E+06 1.914E+06 3.438E+07 38.4000 1.00000
  2.512E+12 2.512E+12 5.198E+00 1.420E+04 2.520E+05 1.922E+06 2.189E+06 2.189E+06 3.452E+07 38.6302 1.00000
  2.818E+12 2.818E+12 5.222E+00 1.594E+04 2.827E+05 2.205E+06 2.503E+06 2.503E+06 3.465E+07 38.8605 1.00000
  3.162E+12 3.162E+12 5.247E+00 1.788E+04 3.172E+05 2.529E+06 2.864E+06 2.864E+06 3.478E+07 39.0908 1.00000
  3.548E+12 3.548E+12 5.271E+00 2.007E+04 3.559E+05 2.901E+06 3.277E+06 3.277E+06 3.490E+07 39.3210 1.00000
  3.981E+12 3.981E+12 5.296E+00 2.251E+04 3.993E+05 3.327E+06 3.749E+06 3.749E+06 3.503E+07 39.5513 1.00000
  4.467E+12 4.467E+12 5.321E+00 2.526E+04 4.480E+05 3.817E+06 4.290E+06 4.290E+06 3.515E+07 39.7815 1.00000
  5.012E+12 5.012E+12 5.347E+00 2.835E+04 5.026E+05 4.378E+06 4.909E+06 4.909E+06 3.527E+07 40.0118 1.00000
  5.623E+12 5.623E+12 5.372E+00 3.180E+04 5.639E+05 5.023E+06 5.619E+06 5.619E+06 3.539E+07 40.2421 1.00000
  6.310E+12 6.310E+12 5.397E+00 3.569E+04 6.327E+05 5.763E+06 6.431E+06 6.431E+06 3.550E+07 40.4723 1.00000
  7.079E+12 7.079E+12 5.423E+00 4.004E+04 7.099E+05 6.612E+06 7.362E+06 7.362E+06 3.561E+07 40.7026 1.00000
  7.943E+12 7.943E+12 5.449E+00 4.493E+04 7.964E+05 7.587E+06 8.428E+06 8.428E+06 3.572E+07 40.9328 1.00000
  8.913E+12 8.913E+12 5.474E+00 5.041E+04 8.936E+05 8.705E+06 9.649E+06 9.649E+06 3.583E+07 41.1631 1.00000
  1.000E+13 1.000E+13 5.500E+00 5.656E+04 1.003E+06 9.990E+06 1.105E+07 1.105E+07 3.594E+07 41.3934 1.00000
  1.122E+13 1.122E+13 5.527E+00 6.346E+04 1.125E+06 1.146E+07 1.265E+07 1.265E+07 3.604E+07 41.6236 1.00000
  1.259E+13 1.259E+13 5.553E+00 7.121E+04 1.262E+06 1.316E+07 1.449E+07 1.449E+07 3.614E+07 41.8539 1.00000
  1.413E+13 1.413E+13 5.579E+00 7.989E+04 1.416E+06 1.510E+07 1.660E+07 1.660E+07 3.624E+07 42.0841 1.00000
  1.585E+13 1.585E+13 5.606E+00 8.964E+04 1.589E+06 1.733E+07 1.901E+07 1.901E+07 3.634E+07 42.3144 1.00000
  1.778E+13 1.778E+13 5.633E+00 1.006E+05 1.782E+06 1.989E+07 2.177E+07 2.177E+07 3.643E+07 42.5446 1.00000
  1.995E+13 1.995E+13 5.659E+00 1.129E+05 2.000E+06 2.283E+07 2.495E+07 2.495E+07 3.653E+07 42.7749 1.00000
  2.239E+13 2.239E+13 5.686E+00 1.266E+05 2.244E+06 2.621E+07 2.858E+07 2.858E+07 3.662E+07 43.0052 1.00000
  2.512E+13 2.512E+13 5.714E+00 1.421E+05 2.517E+06 3.009E+07 3.275E+07 3.275E+07 3.671E+07 43.2354 1.00000
  2.818E+13 2.818E+13 5.741E+00 1.594E+05 2.824E+06 3.454E+07 3.752E+07 3.752E+07 3.679E+07 43.4657 1.00000
  3.162E+13 3.162E+13 5.768E+00 1.789E+05 3.169E+06 3.966E+07 4.300E+07 4.300E+07 3.688E+07 43.6959 1.00000
  3.548E+13 3.548E+13 5.796E+00 2.007E+05 3.555E+06 4.553E+07 4.929E+07 4.929E+07 3.696E+07 43.9262 1.00000
  3.981E+13 3.981E+13 5.824E+00 2.252E+05 3.989E+06 5.228E+07 5.649E+07 5.649E+07 3.705E+07 44.1565 1.00000
  4.467E+13 4.467E+13 5.851E+00 2.527E+05 4.475E+06 6.003E+07 6.475E+07 6.475E+07 3.713E+07 44.3867 1.00000
  5.012E+13 5.012E+13 5.879E+00 2.835E+05 5.021E+06 6.893E+07 7.423E+07 7.423E+07 3.720E+07 44.6170 1.00000
  5.623E+13 5.623E+13 5.908E+00 3.181E+05 5.633E+06 7.915E+07 8.510E+07 8.510E+07 3.728E+07 44.8472 1.00000
  6.310E+13 6.310E+13 5.936E+00 3.569E+05 6.320E+06 9.090E+07 9.757E+07 9.757E+07 3.736E+07 45.0775 1.00000
  7.079E+13 7.079E+13 5.964E+00 4.004E+05 7.091E+06 1.044E+08 1.119E+08 1.119E+08 3.743E+07 45.3077 1.00000
  7.943E+13 7.943E+13 5.993E+00 4.493E+05 7.956E+06 1.199E+08 1.283E+08 1.283E+08 3.750E+07 45.5380 1.00000
  8.913E+13 8.913E+13 6.022E+00 5.041E+05 8.926E+06 1.377E+08 1.471E+08 1.471E+08 3.757E+07 45.7683 1.00000
