 Incident particle is a Tau with M = 1776.82000 MeV
 Index = 0: SoftTissue
      Absorber with <Z/A> = 0.55113
 Sternheimer coef:  a     k=m_s   x_0    x_1    I[eV]   Cbar  delta0
                 0.0893  3.5110  0.2211  2.7799   72.3  3.4354 0.00

 *** Table generated with PUMAS v1.00 ***

      T         p     Ionization  brems     pair     photonuc  Radloss    dE/dx   CSDA Range  delta   beta
    [MeV]    [MeV/c]  -----------------------[MeV cm^2/g]------------------------  [g/cm^2]
  1.000E+05 1.018E+05 2.428E+00 1.377E-04 2.147E-03 8.388E-03 1.067E-02 2.438E+00 2.051E+04  4.7566 0.99985
  1.122E+05 1.140E+05 2.449E+00 1.591E-04 2.593E-03 9.476E-03 1.223E-02 2.461E+00 2.549E+04  4.9678 0.99988
  1.259E+05 1.277E+05 2.470E+00 1.837E-04 3.120E-03 1.065E-02 1.395E-02 2.484E+00 3.102E+04  5.1812 0.99990
  1.413E+05 1.430E+05 2.491E+00 2.120E-04 3.741E-03 1.197E-02 1.592E-02 2.506E+00 3.718E+04  5.3966 0.99992
  1.585E+05 1.603E+05 2.511E+00 2.446E-04 4.472E-03 1.345E-02 1.817E-02 2.529E+00 4.403E+04  5.6139 0.99994
  1.778E+05 1.796E+05 2.532E+00 2.820E-04 5.329E-03 1.510E-02 2.071E-02 2.553E+00 5.164E+04  5.8329 0.99995
  1.995E+05 2.013E+05 2.553E+00 3.250E-04 6.333E-03 1.699E-02 2.365E-02 2.576E+00 6.010E+04  6.0535 0.99996
  2.239E+05 2.256E+05 2.573E+00 3.744E-04 7.507E-03 1.905E-02 2.693E-02 2.600E+00 6.950E+04  6.2754 0.99997
  2.512E+05 2.530E+05 2.594E+00 4.311E-04 8.877E-03 2.136E-02 3.067E-02 2.624E+00 7.996E+04  6.4987 0.99998
  2.818E+05 2.836E+05 2.614E+00 4.962E-04 1.047E-02 2.397E-02 3.494E-02 2.649E+00 9.159E+04  6.7231 0.99998
  3.162E+05 3.180E+05 2.634E+00 5.709E-04 1.233E-02 2.691E-02 3.981E-02 2.674E+00 1.045E+05  6.9485 0.99998
  3.548E+05 3.566E+05 2.655E+00 6.565E-04 1.448E-02 3.022E-02 4.536E-02 2.700E+00 1.189E+05  7.1748 0.99999
  3.981E+05 3.999E+05 2.675E+00 7.547E-04 1.698E-02 3.392E-02 5.165E-02 2.727E+00 1.348E+05  7.4018 0.99999
  4.467E+05 4.485E+05 2.695E+00 8.673E-04 1.987E-02 3.806E-02 5.880E-02 2.754E+00 1.525E+05  7.6295 0.99999
  5.012E+05 5.030E+05 2.715E+00 9.963E-04 2.321E-02 4.273E-02 6.694E-02 2.782E+00 1.722E+05  7.8578 0.99999
  5.623E+05 5.641E+05 2.735E+00 1.144E-03 2.706E-02 4.779E-02 7.600E-02 2.811E+00 1.941E+05  8.0865 1.00000
  6.310E+05 6.327E+05 2.755E+00 1.313E-03 3.151E-02 5.349E-02 8.632E-02 2.841E+00 2.184E+05  8.3155 1.00000
  7.079E+05 7.097E+05 2.775E+00 1.507E-03 3.663E-02 5.993E-02 9.807E-02 2.873E+00 2.453E+05  8.5449 1.00000
  7.943E+05 7.961E+05 2.795E+00 1.729E-03 4.251E-02 6.721E-02 1.114E-01 2.906E+00 2.752E+05  8.7745 1.00000
  8.913E+05 8.930E+05 2.814E+00 1.983E-03 4.927E-02 7.543E-02 1.267E-01 2.941E+00 3.084E+05  9.0042 1.00000
  1.000E+06 1.002E+06 2.834E+00 2.273E-03 5.702E-02 8.473E-02 1.440E-01 2.978E+00 3.451E+05  9.2340 1.00000
  1.122E+06 1.124E+06 2.853E+00 2.605E-03 6.591E-02 9.527E-02 1.638E-01 3.017E+00 3.858E+05  9.4639 1.00000
  1.259E+06 1.261E+06 2.873E+00 2.985E-03 7.608E-02 1.072E-01 1.863E-01 3.059E+00 4.309E+05  9.6938 1.00000
  1.413E+06 1.414E+06 2.892E+00 3.420E-03 8.772E-02 1.207E-01 2.119E-01 3.104E+00 4.808E+05  9.9237 1.00000
  1.585E+06 1.587E+06 2.911E+00 3.916E-03 1.010E-01 1.361E-01 2.410E-01 3.152E+00 5.359E+05 10.1537 1.00000
  1.778E+06 1.780E+06 2.930E+00 4.483E-03 1.162E-01 1.535E-01 2.741E-01 3.204E+00 5.967E+05 10.3837 1.00000
  1.995E+06 1.997E+06 2.949E+00 5.132E-03 1.335E-01 1.732E-01 3.118E-01 3.261E+00 6.639E+05 10.6138 1.00000
  2.239E+06 2.240E+06 2.967E+00 5.872E-03 1.532E-01 1.957E-01 3.547E-01 3.322E+00 7.378E+05 10.8439 1.00000
  2.512E+06 2.514E+06 2.986E+00 6.718E-03 1.756E-01 2.212E-01 4.035E-01 3.389E+00 8.193E+05 11.0739 1.00000
  2.818E+06 2.820E+06 3.004E+00 7.683E-03 2.011E-01 2.502E-01 4.589E-01 3.463E+00 9.087E+05 11.3040 1.00000
  3.162E+06 3.164E+06 3.023E+00 8.785E-03 2.301E-01 2.831E-01 5.220E-01 3.544E+00 1.007E+06 11.5342 1.00000
  3.548E+06 3.550E+06 3.041E+00 1.004E-02 2.630E-01 3.206E-01 5.936E-01 3.634E+00 1.114E+06 11.7643 1.00000
  3.981E+06 3.983E+06 3.058E+00 1.148E-02 3.003E-01 3.633E-01 6.750E-01 3.733E+00 1.232E+06 11.9945 1.00000
  4.467E+06 4.469E+06 3.076E+00 1.311E-02 3.426E-01 4.118E-01 7.676E-01 3.844E+00 1.360E+06 12.2246 1.00000
  5.012E+06 5.014E+06 3.094E+00 1.498E-02 3.905E-01 4.671E-01 8.726E-01 3.966E+00 1.500E+06 12.4548 1.00000
  5.623E+06 5.625E+06 3.111E+00 1.711E-02 4.448E-01 5.301E-01 9.920E-01 4.103E+00 1.651E+06 12.6850 1.00000
  6.310E+06 6.311E+06 3.128E+00 1.953E-02 5.062E-01 6.018E-01 1.128E+00 4.256E+00 1.816E+06 12.9152 1.00000
  7.079E+06 7.081E+06 3.145E+00 2.229E-02 5.757E-01 6.834E-01 1.281E+00 4.426E+00 1.993E+06 13.1454 1.00000
  7.943E+06 7.945E+06 3.162E+00 2.544E-02 6.541E-01 7.765E-01 1.456E+00 4.618E+00 2.184E+06 13.3756 1.00000
  8.913E+06 8.914E+06 3.179E+00 2.902E-02 7.428E-01 8.826E-01 1.654E+00 4.833E+00 2.389E+06 13.6058 1.00000
  1.000E+07 1.000E+07 3.195E+00 3.310E-02 8.429E-01 1.003E+00 1.879E+00 5.074E+00 2.609E+06 13.8360 1.00000
  1.122E+07 1.122E+07 3.211E+00 3.774E-02 9.558E-01 1.141E+00 2.135E+00 5.346E+00 2.843E+06 14.0662 1.00000
  1.259E+07 1.259E+07 3.228E+00 4.302E-02 1.083E+00 1.298E+00 2.425E+00 5.652E+00 3.093E+06 14.2964 1.00000
  1.413E+07 1.413E+07 3.244E+00 4.902E-02 1.227E+00 1.478E+00 2.754E+00 5.997E+00 3.357E+06 14.5267 1.00000
  1.585E+07 1.585E+07 3.260E+00 5.585E-02 1.389E+00 1.682E+00 3.127E+00 6.386E+00 3.635E+06 14.7569 1.00000
  1.778E+07 1.778E+07 3.275E+00 6.361E-02 1.571E+00 1.915E+00 3.550E+00 6.825E+00 3.928E+06 14.9871 1.00000
  1.995E+07 1.995E+07 3.291E+00 7.244E-02 1.777E+00 2.181E+00 4.030E+00 7.321E+00 4.235E+06 15.2174 1.00000
  2.239E+07 2.239E+07 3.307E+00 8.246E-02 2.008E+00 2.484E+00 4.575E+00 7.882E+00 4.556E+06 15.4476 1.00000
  2.512E+07 2.512E+07 3.322E+00 9.384E-02 2.268E+00 2.831E+00 5.193E+00 8.515E+00 4.890E+06 15.6778 1.00000
  2.818E+07 2.819E+07 3.338E+00 1.068E-01 2.561E+00 3.225E+00 5.894E+00 9.231E+00 5.236E+06 15.9081 1.00000
  3.162E+07 3.162E+07 3.353E+00 1.214E-01 2.891E+00 3.676E+00 6.689E+00 1.004E+01 5.593E+06 16.1383 1.00000
  3.548E+07 3.548E+07 3.369E+00 1.381E-01 3.262E+00 4.191E+00 7.590E+00 1.096E+01 5.961E+06 16.3686 1.00000
  3.981E+07 3.981E+07 3.384E+00 1.570E-01 3.679E+00 4.778E+00 8.613E+00 1.200E+01 6.339E+06 16.5988 1.00000
  4.467E+07 4.467E+07 3.399E+00 1.784E-01 4.147E+00 5.448E+00 9.773E+00 1.317E+01 6.726E+06 16.8291 1.00000
  5.012E+07 5.012E+07 3.415E+00 2.026E-01 4.674E+00 6.213E+00 1.109E+01 1.450E+01 7.121E+06 17.0593 1.00000
  5.623E+07 5.624E+07 3.430E+00 2.301E-01 5.267E+00 7.086E+00 1.258E+01 1.601E+01 7.523E+06 17.2896 1.00000
  6.310E+07 6.310E+07 3.445E+00 2.613E-01 5.932E+00 8.083E+00 1.428E+01 1.772E+01 7.931E+06 17.5198 1.00000
  7.079E+07 7.080E+07 3.461E+00 2.966E-01 6.680E+00 9.221E+00 1.620E+01 1.966E+01 8.344E+06 17.7501 1.00000
  7.943E+07 7.943E+07 3.476E+00 3.366E-01 7.520E+00 1.052E+01 1.838E+01 2.185E+01 8.761E+06 17.9803 1.00000
  8.913E+07 8.913E+07 3.491E+00 3.818E-01 8.463E+00 1.200E+01 2.085E+01 2.434E+01 9.182E+06 18.2106 1.00000
  1.000E+08 1.000E+08 3.507E+00 4.330E-01 9.523E+00 1.370E+01 2.366E+01 2.716E+01 9.605E+06 18.4408 1.00000
  1.122E+08 1.122E+08 3.522E+00 4.909E-01 1.071E+01 1.564E+01 2.684E+01 3.036E+01 1.003E+07 18.6711 1.00000
  1.259E+08 1.259E+08 3.537E+00 5.564E-01 1.205E+01 1.785E+01 3.045E+01 3.399E+01 1.046E+07 18.9013 1.00000
  1.413E+08 1.413E+08 3.553E+00 6.305E-01 1.355E+01 2.037E+01 3.455E+01 3.810E+01 1.089E+07 19.1316 1.00000
  1.585E+08 1.585E+08 3.568E+00 7.142E-01 1.523E+01 2.325E+01 3.920E+01 4.277E+01 1.131E+07 19.3619 1.00000
  1.778E+08 1.778E+08 3.584E+00 8.089E-01 1.713E+01 2.655E+01 4.448E+01 4.807E+01 1.174E+07 19.5921 1.00000
  1.995E+08 1.995E+08 3.600E+00 9.158E-01 1.925E+01 3.031E+01 5.048E+01 5.408E+01 1.217E+07 19.8224 1.00000
  2.239E+08 2.239E+08 3.615E+00 1.036E+00 2.163E+01 3.461E+01 5.728E+01 6.090E+01 1.259E+07 20.0526 1.00000
  2.512E+08 2.512E+08 3.631E+00 1.173E+00 2.431E+01 3.952E+01 6.500E+01 6.863E+01 1.301E+07 20.2829 1.00000
  2.818E+08 2.818E+08 3.647E+00 1.327E+00 2.731E+01 4.514E+01 7.377E+01 7.742E+01 1.344E+07 20.5131 1.00000
  3.162E+08 3.162E+08 3.663E+00 1.500E+00 3.068E+01 5.155E+01 8.373E+01 8.739E+01 1.386E+07 20.7434 1.00000
  3.548E+08 3.548E+08 3.679E+00 1.696E+00 3.446E+01 5.888E+01 9.504E+01 9.871E+01 1.427E+07 20.9737 1.00000
  3.981E+08 3.981E+08 3.695E+00 1.917E+00 3.871E+01 6.725E+01 1.079E+02 1.116E+02 1.468E+07 21.2039 1.00000
  4.467E+08 4.467E+08 3.711E+00 2.166E+00 4.348E+01 7.682E+01 1.225E+02 1.262E+02 1.509E+07 21.4342 1.00000
  5.012E+08 5.012E+08 3.727E+00 2.447E+00 4.882E+01 8.775E+01 1.390E+02 1.428E+02 1.550E+07 21.6644 1.00000
  5.623E+08 5.623E+08 3.744E+00 2.764E+00 5.482E+01 1.003E+02 1.578E+02 1.616E+02 1.591E+07 21.8947 1.00000
  6.310E+08 6.310E+08 3.760E+00 3.120E+00 6.156E+01 1.145E+02 1.792E+02 1.830E+02 1.630E+07 22.1249 1.00000
  7.079E+08 7.079E+08 3.776E+00 3.522E+00 6.912E+01 1.309E+02 2.035E+02 2.073E+02 1.670E+07 22.3552 1.00000
  7.943E+08 7.943E+08 3.793E+00 3.975E+00 7.760E+01 1.495E+02 2.311E+02 2.349E+02 1.709E+07 22.5855 1.00000
  8.913E+08 8.913E+08 3.810E+00 4.485E+00 8.712E+01 1.709E+02 2.625E+02 2.663E+02 1.748E+07 22.8157 1.00000
  1.000E+09 1.000E+09 3.826E+00 5.059E+00 9.780E+01 1.953E+02 2.981E+02 3.019E+02 1.787E+07 23.0460 1.00000
  1.122E+09 1.122E+09 3.843E+00 5.705E+00 1.098E+02 2.232E+02 3.386E+02 3.425E+02 1.825E+07 23.2762 1.00000
  1.259E+09 1.259E+09 3.860E+00 6.433E+00 1.232E+02 2.550E+02 3.847E+02 3.886E+02 1.862E+07 23.5065 1.00000
  1.413E+09 1.413E+09 3.877E+00 7.251E+00 1.383E+02 2.915E+02 4.371E+02 4.409E+02 1.899E+07 23.7367 1.00000
  1.585E+09 1.585E+09 3.894E+00 8.172E+00 1.553E+02 3.332E+02 4.966E+02 5.005E+02 1.936E+07 23.9670 1.00000
  1.778E+09 1.778E+09 3.911E+00 9.208E+00 1.743E+02 3.809E+02 5.643E+02 5.682E+02 1.972E+07 24.1973 1.00000
  1.995E+09 1.995E+09 3.928E+00 1.037E+01 1.956E+02 4.354E+02 6.413E+02 6.453E+02 2.008E+07 24.4275 1.00000
  2.239E+09 2.239E+09 3.946E+00 1.168E+01 2.195E+02 4.977E+02 7.289E+02 7.328E+02 2.044E+07 24.6578 1.00000
  2.512E+09 2.512E+09 3.963E+00 1.316E+01 2.463E+02 5.690E+02 8.285E+02 8.325E+02 2.079E+07 24.8880 1.00000
  2.818E+09 2.818E+09 3.981E+00 1.481E+01 2.765E+02 6.506E+02 9.419E+02 9.458E+02 2.114E+07 25.1183 1.00000
  3.162E+09 3.162E+09 3.998E+00 1.667E+01 3.102E+02 7.439E+02 1.071E+03 1.075E+03 2.148E+07 25.3486 1.00000
  3.548E+09 3.548E+09 4.016E+00 1.877E+01 3.482E+02 8.506E+02 1.218E+03 1.222E+03 2.181E+07 25.5788 1.00000
  3.981E+09 3.981E+09 4.034E+00 2.112E+01 3.907E+02 9.726E+02 1.384E+03 1.389E+03 2.215E+07 25.8091 1.00000
  4.467E+09 4.467E+09 4.052E+00 2.376E+01 4.384E+02 1.112E+03 1.574E+03 1.579E+03 2.248E+07 26.0393 1.00000
  5.012E+09 5.012E+09 4.070E+00 2.673E+01 4.920E+02 1.272E+03 1.791E+03 1.795E+03 2.280E+07 26.2696 1.00000
  5.623E+09 5.623E+09 4.088E+00 3.007E+01 5.521E+02 1.455E+03 2.037E+03 2.041E+03 2.312E+07 26.4998 1.00000
  6.310E+09 6.310E+09 4.106E+00 3.382E+01 6.195E+02 1.664E+03 2.317E+03 2.321E+03 2.344E+07 26.7301 1.00000
  7.079E+09 7.079E+09 4.125E+00 3.803E+01 6.952E+02 1.903E+03 2.636E+03 2.641E+03 2.375E+07 26.9604 1.00000
  7.943E+09 7.943E+09 4.143E+00 4.275E+01 7.801E+02 2.177E+03 3.000E+03 3.004E+03 2.406E+07 27.1906 1.00000
  8.913E+09 8.913E+09 4.162E+00 4.806E+01 8.753E+02 2.490E+03 3.414E+03 3.418E+03 2.436E+07 27.4209 1.00000
  1.000E+10 1.000E+10 4.180E+00 5.403E+01 9.822E+02 2.849E+03 3.885E+03 3.889E+03 2.466E+07 27.6511 1.00000
  1.122E+10 1.122E+10 4.199E+00 6.072E+01 1.102E+03 3.259E+03 4.422E+03 4.426E+03 2.495E+07 27.8814 1.00000
  1.259E+10 1.259E+10 4.218E+00 6.824E+01 1.237E+03 3.729E+03 5.034E+03 5.038E+03 2.524E+07 28.1117 1.00000
  1.413E+10 1.413E+10 4.237E+00 7.668E+01 1.388E+03 4.267E+03 5.731E+03 5.735E+03 2.553E+07 28.3419 1.00000
  1.585E+10 1.585E+10 4.256E+00 8.616E+01 1.557E+03 4.882E+03 6.525E+03 6.529E+03 2.581E+07 28.5722 1.00000
  1.778E+10 1.778E+10 4.275E+00 9.680E+01 1.747E+03 5.586E+03 7.430E+03 7.435E+03 2.609E+07 28.8024 1.00000
  1.995E+10 1.995E+10 4.295E+00 1.087E+02 1.960E+03 6.393E+03 8.462E+03 8.466E+03 2.636E+07 29.0327 1.00000
  2.239E+10 2.239E+10 4.314E+00 1.222E+02 2.199E+03 7.316E+03 9.638E+03 9.642E+03 2.663E+07 29.2630 1.00000
  2.512E+10 2.512E+10 4.334E+00 1.372E+02 2.468E+03 8.373E+03 1.098E+04 1.098E+04 2.690E+07 29.4932 1.00000
  2.818E+10 2.818E+10 4.353E+00 1.541E+02 2.769E+03 9.583E+03 1.251E+04 1.251E+04 2.716E+07 29.7235 1.00000
  3.162E+10 3.162E+10 4.373E+00 1.731E+02 3.107E+03 1.097E+04 1.425E+04 1.425E+04 2.742E+07 29.9537 1.00000
  3.548E+10 3.548E+10 4.393E+00 1.944E+02 3.486E+03 1.256E+04 1.624E+04 1.624E+04 2.767E+07 30.1840 1.00000
  3.981E+10 3.981E+10 4.413E+00 2.183E+02 3.911E+03 1.437E+04 1.850E+04 1.851E+04 2.792E+07 30.4142 1.00000
  4.467E+10 4.467E+10 4.433E+00 2.451E+02 4.389E+03 1.645E+04 2.109E+04 2.109E+04 2.817E+07 30.6445 1.00000
  5.012E+10 5.012E+10 4.453E+00 2.752E+02 4.924E+03 1.884E+04 2.403E+04 2.404E+04 2.841E+07 30.8748 1.00000
  5.623E+10 5.623E+10 4.473E+00 3.089E+02 5.525E+03 2.156E+04 2.740E+04 2.740E+04 2.865E+07 31.1050 1.00000
  6.310E+10 6.310E+10 4.494E+00 3.468E+02 6.199E+03 2.469E+04 3.124E+04 3.124E+04 2.889E+07 31.3353 1.00000
  7.079E+10 7.079E+10 4.514E+00 3.894E+02 6.955E+03 2.827E+04 3.561E+04 3.562E+04 2.912E+07 31.5655 1.00000
  7.943E+10 7.943E+10 4.535E+00 4.371E+02 7.804E+03 3.237E+04 4.061E+04 4.062E+04 2.935E+07 31.7958 1.00000
  8.913E+10 8.913E+10 4.556E+00 4.907E+02 8.756E+03 3.707E+04 4.632E+04 4.632E+04 2.957E+07 32.0261 1.00000
  1.000E+11 1.000E+11 4.576E+00 5.508E+02 9.824E+03 4.245E+04 5.283E+04 5.283E+04 2.979E+07 32.2563 1.00000
  1.122E+11 1.122E+11 4.597E+00 6.182E+02 1.102E+04 4.862E+04 6.026E+04 6.026E+04 3.001E+07 32.4866 1.00000
  1.259E+11 1.259E+11 4.619E+00 6.939E+02 1.237E+04 5.568E+04 6.874E+04 6.875E+04 3.022E+07 32.7168 1.00000
  1.413E+11 1.413E+11 4.640E+00 7.789E+02 1.388E+04 6.378E+04 7.843E+04 7.843E+04 3.043E+07 32.9471 1.00000
  1.585E+11 1.585E+11 4.661E+00 8.742E+02 1.557E+04 7.305E+04 8.949E+04 8.950E+04 3.064E+07 33.1773 1.00000
  1.778E+11 1.778E+11 4.683E+00 9.811E+02 1.747E+04 8.368E+04 1.021E+05 1.021E+05 3.084E+07 33.4076 1.00000
  1.995E+11 1.995E+11 4.704E+00 1.101E+03 1.960E+04 9.586E+04 1.166E+05 1.166E+05 3.104E+07 33.6379 1.00000
  2.239E+11 2.239E+11 4.726E+00 1.236E+03 2.199E+04 1.098E+05 1.330E+05 1.330E+05 3.123E+07 33.8681 1.00000
  2.512E+11 2.512E+11 4.748E+00 1.387E+03 2.467E+04 1.258E+05 1.519E+05 1.519E+05 3.143E+07 34.0984 1.00000
  2.818E+11 2.818E+11 4.770E+00 1.556E+03 2.768E+04 1.441E+05 1.734E+05 1.734E+05 3.162E+07 34.3286 1.00000
  3.162E+11 3.162E+11 4.792E+00 1.747E+03 3.106E+04 1.652E+05 1.980E+05 1.980E+05 3.180E+07 34.5589 1.00000
  3.548E+11 3.548E+11 4.814E+00 1.960E+03 3.485E+04 1.892E+05 2.260E+05 2.261E+05 3.198E+07 34.7892 1.00000
  3.981E+11 3.981E+11 4.836E+00 2.200E+03 3.910E+04 2.168E+05 2.581E+05 2.582E+05 3.216E+07 35.0194 1.00000
  4.467E+11 4.467E+11 4.859E+00 2.468E+03 4.387E+04 2.485E+05 2.948E+05 2.948E+05 3.234E+07 35.2497 1.00000
  5.012E+11 5.012E+11 4.881E+00 2.770E+03 4.922E+04 2.848E+05 3.368E+05 3.368E+05 3.251E+07 35.4799 1.00000
  5.623E+11 5.623E+11 4.904E+00 3.108E+03 5.522E+04 3.264E+05 3.847E+05 3.847E+05 3.268E+07 35.7102 1.00000
  6.310E+11 6.310E+11 4.927E+00 3.488E+03 6.196E+04 3.741E+05 4.395E+05 4.395E+05 3.285E+07 35.9404 1.00000
  7.079E+11 7.079E+11 4.950E+00 3.914E+03 6.952E+04 4.288E+05 5.022E+05 5.022E+05 3.302E+07 36.1707 1.00000
  7.943E+11 7.943E+11 4.973E+00 4.392E+03 7.800E+04 4.915E+05 5.739E+05 5.739E+05 3.318E+07 36.4010 1.00000
  8.913E+11 8.913E+11 4.996E+00 4.928E+03 8.751E+04 5.634E+05 6.558E+05 6.558E+05 3.334E+07 36.6312 1.00000
  1.000E+12 1.000E+12 5.020E+00 5.530E+03 9.818E+04 6.459E+05 7.496E+05 7.496E+05 3.349E+07 36.8615 1.00000
  1.122E+12 1.122E+12 5.043E+00 6.205E+03 1.102E+05 7.404E+05 8.568E+05 8.568E+05 3.364E+07 37.0917 1.00000
  1.259E+12 1.259E+12 5.067E+00 6.962E+03 1.236E+05 8.489E+05 9.794E+05 9.794E+05 3.379E+07 37.3220 1.00000
  1.413E+12 1.413E+12 5.091E+00 7.812E+03 1.387E+05 9.733E+05 1.120E+06 1.120E+06 3.394E+07 37.5523 1.00000
  1.585E+12 1.585E+12 5.114E+00 8.766E+03 1.556E+05 1.116E+06 1.280E+06 1.280E+06 3.408E+07 37.7825 1.00000
  1.778E+12 1.778E+12 5.138E+00 9.836E+03 1.746E+05 1.280E+06 1.464E+06 1.464E+06 3.423E+07 38.0128 1.00000
  1.995E+12 1.995E+12 5.163E+00 1.104E+04 1.959E+05 1.467E+06 1.674E+06 1.674E+06 3.437E+07 38.2430 1.00000
  2.239E+12 2.239E+12 5.187E+00 1.238E+04 2.197E+05 1.683E+06 1.915E+06 1.915E+06 3.450E+07 38.4733 1.00000
  2.512E+12 2.512E+12 5.211E+00 1.390E+04 2.466E+05 1.930E+06 2.190E+06 2.190E+06 3.464E+07 38.7035 1.00000
  2.818E+12 2.818E+12 5.236E+00 1.559E+04 2.766E+05 2.213E+06 2.506E+06 2.506E+06 3.477E+07 38.9338 1.00000
  3.162E+12 3.162E+12 5.260E+00 1.749E+04 3.104E+05 2.539E+06 2.866E+06 2.866E+06 3.489E+07 39.1641 1.00000
  3.548E+12 3.548E+12 5.285E+00 1.963E+04 3.482E+05 2.912E+06 3.280E+06 3.280E+06 3.502E+07 39.3943 1.00000
  3.981E+12 3.981E+12 5.310E+00 2.202E+04 3.907E+05 3.340E+06 3.753E+06 3.753E+06 3.514E+07 39.6246 1.00000
  4.467E+12 4.467E+12 5.335E+00 2.471E+04 4.383E+05 3.831E+06 4.294E+06 4.294E+06 3.527E+07 39.8548 1.00000
  5.012E+12 5.012E+12 5.361E+00 2.773E+04 4.918E+05 4.395E+06 4.915E+06 4.915E+06 3.538E+07 40.0851 1.00000
  5.623E+12 5.623E+12 5.386E+00 3.111E+04 5.518E+05 5.042E+06 5.625E+06 5.625E+06 3.550E+07 40.3154 1.00000
  6.310E+12 6.310E+12 5.411E+00 3.491E+04 6.191E+05 5.785E+06 6.439E+06 6.439E+06 3.562E+07 40.5456 1.00000
  7.079E+12 7.079E+12 5.437E+00 3.917E+04 6.946E+05 6.638E+06 7.371E+06 7.371E+06 3.573E+07 40.7759 1.00000
  7.943E+12 7.943E+12 5.463E+00 4.395E+04 7.793E+05 7.616E+06 8.439E+06 8.439E+06 3.584E+07 41.0061 1.00000
  8.913E+12 8.913E+12 5.489E+00 4.931E+04 8.744E+05 8.739E+06 9.663E+06 9.663E+06 3.594E+07 41.2364 1.00000
  1.000E+13 1.000E+13 5.515E+00 5.533E+04 9.810E+05 1.003E+07 1.106E+07 1.106E+07 3.605E+07 41.4667 1.00000
  1.122E+13 1.122E+13 5.541E+00 6.208E+04 1.101E+06 1.151E+07 1.267E+07 1.267E+07 3.615E+07 41.6969 1.00000
  1.259E+13 1.259E+13 5.567E+00 6.966E+04 1.235E+06 1.321E+07 1.451E+07 1.451E+07 3.625E+07 41.9272 1.00000
  1.413E+13 1.413E+13 5.594E+00 7.816E+04 1.385E+06 1.516E+07 1.662E+07 1.662E+07 3.635E+07 42.1574 1.00000
  1.585E+13 1.585E+13 5.620E+00 8.769E+04 1.554E+06 1.740E+07 1.904E+07 1.904E+07 3.645E+07 42.3877 1.00000
  1.778E+13 1.778E+13 5.647E+00 9.839E+04 1.744E+06 1.997E+07 2.181E+07 2.181E+07 3.655E+07 42.6179 1.00000
  1.995E+13 1.995E+13 5.674E+00 1.104E+05 1.957E+06 2.292E+07 2.499E+07 2.499E+07 3.664E+07 42.8482 1.00000
  2.239E+13 2.239E+13 5.701E+00 1.239E+05 2.195E+06 2.631E+07 2.863E+07 2.863E+07 3.673E+07 43.0785 1.00000
  2.512E+13 2.512E+13 5.728E+00 1.390E+05 2.463E+06 3.020E+07 3.281E+07 3.281E+07 3.682E+07 43.3087 1.00000
  2.818E+13 2.818E+13 5.756E+00 1.559E+05 2.764E+06 3.467E+07 3.759E+07 3.759E+07 3.691E+07 43.5390 1.00000
  3.162E+13 3.162E+13 5.783E+00 1.750E+05 3.101E+06 3.981E+07 4.308E+07 4.308E+07 3.699E+07 43.7692 1.00000
  3.548E+13 3.548E+13 5.811E+00 1.963E+05 3.479E+06 4.571E+07 4.938E+07 4.938E+07 3.708E+07 43.9995 1.00000
  3.981E+13 3.981E+13 5.839E+00 2.203E+05 3.903E+06 5.248E+07 5.660E+07 5.660E+07 3.716E+07 44.2298 1.00000
  4.467E+13 4.467E+13 5.867E+00 2.472E+05 4.379E+06 6.026E+07 6.488E+07 6.488E+07 3.724E+07 44.4600 1.00000
  5.012E+13 5.012E+13 5.895E+00 2.773E+05 4.913E+06 6.919E+07 7.438E+07 7.438E+07 3.732E+07 44.6903 1.00000
  5.623E+13 5.623E+13 5.923E+00 3.112E+05 5.512E+06 7.946E+07 8.528E+07 8.528E+07 3.739E+07 44.9205 1.00000
  6.310E+13 6.310E+13 5.952E+00 3.491E+05 6.184E+06 9.125E+07 9.778E+07 9.778E+07 3.747E+07 45.1508 1.00000
  7.079E+13 7.079E+13 5.980E+00 3.917E+05 6.939E+06 1.048E+08 1.121E+08 1.121E+08 3.754E+07 45.3810 1.00000
  7.943E+13 7.943E+13 6.009E+00 4.395E+05 7.785E+06 1.204E+08 1.286E+08 1.286E+08 3.762E+07 45.6113 1.00000
  8.913E+13 8.913E+13 6.038E+00 4.931E+05 8.734E+06 1.382E+08 1.475E+08 1.475E+08 3.769E+07 45.8416 1.00000
