 Incident particle is a Tau with M = 1776.82000 MeV
 Index = 0: Stilbene
      Absorber with <Z/A> = 0.53255
 Sternheimer coef:  a     k=m_s   x_0    x_1    I[eV]   Cbar  delta0
                 0.1666  3.2168  0.1734  2.5142   67.7  3.3680 0.00

 *** Table generated with PUMAS v1.00 ***

      T         p     Ionization  brems     pair     photonuc  Radloss    dE/dx   CSDA Range  delta   beta
    [MeV]    [MeV/c]  -----------------------[MeV cm^2/g]------------------------  [g/cm^2]
  1.000E+05 1.018E+05 2.353E+00 1.154E-04 1.790E-03 8.416E-03 1.032E-02 2.364E+00 2.115E+04  4.7954 0.99985
  1.122E+05 1.140E+05 2.374E+00 1.332E-04 2.164E-03 9.510E-03 1.181E-02 2.385E+00 2.629E+04  5.0088 0.99988
  1.259E+05 1.277E+05 2.394E+00 1.538E-04 2.608E-03 1.069E-02 1.345E-02 2.407E+00 3.200E+04  5.2243 0.99990
  1.413E+05 1.430E+05 2.414E+00 1.774E-04 3.130E-03 1.202E-02 1.532E-02 2.429E+00 3.836E+04  5.4420 0.99992
  1.585E+05 1.603E+05 2.434E+00 2.046E-04 3.745E-03 1.350E-02 1.745E-02 2.451E+00 4.542E+04  5.6616 0.99994
  1.778E+05 1.796E+05 2.453E+00 2.359E-04 4.467E-03 1.517E-02 1.987E-02 2.473E+00 5.328E+04  5.8828 0.99995
  1.995E+05 2.013E+05 2.473E+00 2.718E-04 5.313E-03 1.706E-02 2.265E-02 2.496E+00 6.201E+04  6.1056 0.99996
  2.239E+05 2.256E+05 2.493E+00 3.131E-04 6.303E-03 1.914E-02 2.575E-02 2.519E+00 7.172E+04  6.3297 0.99997
  2.512E+05 2.530E+05 2.512E+00 3.604E-04 7.458E-03 2.147E-02 2.928E-02 2.542E+00 8.252E+04  6.5551 0.99998
  2.818E+05 2.836E+05 2.532E+00 4.148E-04 8.804E-03 2.409E-02 3.331E-02 2.565E+00 9.452E+04  6.7814 0.99998
  3.162E+05 3.180E+05 2.552E+00 4.772E-04 1.037E-02 2.705E-02 3.790E-02 2.589E+00 1.079E+05  7.0087 0.99998
  3.548E+05 3.566E+05 2.571E+00 5.487E-04 1.219E-02 3.039E-02 4.312E-02 2.614E+00 1.227E+05  7.2366 0.99999
  3.981E+05 3.999E+05 2.590E+00 6.307E-04 1.430E-02 3.411E-02 4.904E-02 2.639E+00 1.392E+05  7.4652 0.99999
  4.467E+05 4.485E+05 2.610E+00 7.248E-04 1.674E-02 3.828E-02 5.575E-02 2.665E+00 1.575E+05  7.6941 0.99999
  5.012E+05 5.030E+05 2.629E+00 8.325E-04 1.956E-02 4.298E-02 6.338E-02 2.692E+00 1.778E+05  7.9234 0.99999
  5.623E+05 5.641E+05 2.648E+00 9.560E-04 2.283E-02 4.808E-02 7.186E-02 2.720E+00 2.004E+05  8.1529 1.00000
  6.310E+05 6.327E+05 2.667E+00 1.097E-03 2.659E-02 5.383E-02 8.151E-02 2.749E+00 2.255E+05  8.3824 1.00000
  7.079E+05 7.097E+05 2.687E+00 1.259E-03 3.092E-02 6.031E-02 9.249E-02 2.779E+00 2.534E+05  8.6121 1.00000
  7.943E+05 7.961E+05 2.706E+00 1.445E-03 3.590E-02 6.764E-02 1.050E-01 2.811E+00 2.843E+05  8.8418 1.00000
  8.913E+05 8.930E+05 2.725E+00 1.657E-03 4.163E-02 7.593E-02 1.192E-01 2.844E+00 3.186E+05  9.0716 1.00000
  1.000E+06 1.002E+06 2.744E+00 1.900E-03 4.821E-02 8.530E-02 1.354E-01 2.879E+00 3.566E+05  9.3014 1.00000
  1.122E+06 1.124E+06 2.762E+00 2.177E-03 5.574E-02 9.592E-02 1.538E-01 2.916E+00 3.987E+05  9.5313 1.00000
  1.259E+06 1.261E+06 2.781E+00 2.495E-03 6.437E-02 1.079E-01 1.748E-01 2.956E+00 4.453E+05  9.7612 1.00000
  1.413E+06 1.414E+06 2.800E+00 2.858E-03 7.425E-02 1.216E-01 1.987E-01 2.998E+00 4.969E+05  9.9911 1.00000
  1.585E+06 1.587E+06 2.818E+00 3.274E-03 8.554E-02 1.370E-01 2.258E-01 3.044E+00 5.540E+05 10.2211 1.00000
  1.778E+06 1.780E+06 2.836E+00 3.748E-03 9.843E-02 1.546E-01 2.568E-01 3.093E+00 6.170E+05 10.4511 1.00000
  1.995E+06 1.997E+06 2.855E+00 4.291E-03 1.131E-01 1.745E-01 2.919E-01 3.146E+00 6.866E+05 10.6812 1.00000
  2.239E+06 2.240E+06 2.873E+00 4.911E-03 1.299E-01 1.971E-01 3.319E-01 3.205E+00 7.632E+05 10.9113 1.00000
  2.512E+06 2.514E+06 2.891E+00 5.619E-03 1.490E-01 2.228E-01 3.774E-01 3.268E+00 8.477E+05 11.1413 1.00000
  2.818E+06 2.820E+06 2.908E+00 6.428E-03 1.707E-01 2.521E-01 4.291E-01 3.337E+00 9.405E+05 11.3714 1.00000
  3.162E+06 3.164E+06 2.926E+00 7.352E-03 1.953E-01 2.853E-01 4.880E-01 3.414E+00 1.042E+06 11.6016 1.00000
  3.548E+06 3.550E+06 2.943E+00 8.407E-03 2.234E-01 3.231E-01 5.549E-01 3.498E+00 1.154E+06 11.8317 1.00000
  3.981E+06 3.983E+06 2.961E+00 9.610E-03 2.552E-01 3.661E-01 6.309E-01 3.591E+00 1.276E+06 12.0619 1.00000
  4.467E+06 4.469E+06 2.978E+00 1.098E-02 2.912E-01 4.151E-01 7.173E-01 3.695E+00 1.410E+06 12.2920 1.00000
  5.012E+06 5.014E+06 2.995E+00 1.255E-02 3.321E-01 4.708E-01 8.155E-01 3.810E+00 1.555E+06 12.5222 1.00000
  5.623E+06 5.625E+06 3.011E+00 1.434E-02 3.784E-01 5.343E-01 9.270E-01 3.938E+00 1.713E+06 12.7524 1.00000
  6.310E+06 6.311E+06 3.028E+00 1.637E-02 4.308E-01 6.066E-01 1.054E+00 4.082E+00 1.884E+06 12.9826 1.00000
  7.079E+06 7.081E+06 3.044E+00 1.869E-02 4.901E-01 6.889E-01 1.198E+00 4.242E+00 2.069E+06 13.2128 1.00000
  7.943E+06 7.945E+06 3.061E+00 2.134E-02 5.571E-01 7.828E-01 1.361E+00 4.422E+00 2.268E+06 13.4430 1.00000
  8.913E+06 8.914E+06 3.077E+00 2.435E-02 6.328E-01 8.897E-01 1.547E+00 4.623E+00 2.483E+06 13.6732 1.00000
  1.000E+07 1.000E+07 3.093E+00 2.778E-02 7.184E-01 1.012E+00 1.758E+00 4.850E+00 2.713E+06 13.9034 1.00000
  1.122E+07 1.122E+07 3.108E+00 3.169E-02 8.149E-01 1.151E+00 1.997E+00 5.105E+00 2.958E+06 14.1336 1.00000
  1.259E+07 1.259E+07 3.124E+00 3.613E-02 9.238E-01 1.309E+00 2.269E+00 5.393E+00 3.219E+06 14.3638 1.00000
  1.413E+07 1.413E+07 3.139E+00 4.119E-02 1.047E+00 1.490E+00 2.578E+00 5.717E+00 3.496E+06 14.5941 1.00000
  1.585E+07 1.585E+07 3.155E+00 4.695E-02 1.185E+00 1.696E+00 2.928E+00 6.083E+00 3.788E+06 14.8243 1.00000
  1.778E+07 1.778E+07 3.170E+00 5.349E-02 1.341E+00 1.931E+00 3.326E+00 6.496E+00 4.096E+06 15.0545 1.00000
  1.995E+07 1.995E+07 3.185E+00 6.093E-02 1.517E+00 2.199E+00 3.777E+00 6.962E+00 4.419E+06 15.2848 1.00000
  2.239E+07 2.239E+07 3.200E+00 6.938E-02 1.715E+00 2.505E+00 4.289E+00 7.490E+00 4.756E+06 15.5150 1.00000
  2.512E+07 2.512E+07 3.216E+00 7.899E-02 1.938E+00 2.854E+00 4.871E+00 8.087E+00 5.107E+06 15.7452 1.00000
  2.818E+07 2.819E+07 3.230E+00 8.990E-02 2.189E+00 3.252E+00 5.531E+00 8.762E+00 5.472E+06 15.9755 1.00000
  3.162E+07 3.162E+07 3.245E+00 1.023E-01 2.471E+00 3.707E+00 6.280E+00 9.526E+00 5.848E+06 16.2057 1.00000
  3.548E+07 3.548E+07 3.260E+00 1.163E-01 2.789E+00 4.225E+00 7.131E+00 1.039E+01 6.237E+06 16.4360 1.00000
  3.981E+07 3.981E+07 3.275E+00 1.323E-01 3.146E+00 4.817E+00 8.096E+00 1.137E+01 6.635E+06 16.6662 1.00000
  4.467E+07 4.467E+07 3.290E+00 1.504E-01 3.548E+00 5.493E+00 9.191E+00 1.248E+01 7.044E+06 16.8965 1.00000
  5.012E+07 5.012E+07 3.305E+00 1.709E-01 4.000E+00 6.264E+00 1.043E+01 1.374E+01 7.460E+06 17.1267 1.00000
  5.623E+07 5.624E+07 3.320E+00 1.942E-01 4.507E+00 7.145E+00 1.185E+01 1.517E+01 7.884E+06 17.3570 1.00000
  6.310E+07 6.310E+07 3.334E+00 2.206E-01 5.078E+00 8.150E+00 1.345E+01 1.678E+01 8.315E+06 17.5872 1.00000
  7.079E+07 7.080E+07 3.349E+00 2.505E-01 5.719E+00 9.298E+00 1.527E+01 1.862E+01 8.751E+06 17.8175 1.00000
  7.943E+07 7.943E+07 3.364E+00 2.843E-01 6.439E+00 1.061E+01 1.733E+01 2.070E+01 9.192E+06 18.0477 1.00000
  8.913E+07 8.913E+07 3.379E+00 3.227E-01 7.248E+00 1.211E+01 1.968E+01 2.305E+01 9.636E+06 18.2780 1.00000
  1.000E+08 1.000E+08 3.394E+00 3.661E-01 8.156E+00 1.381E+01 2.234E+01 2.573E+01 1.008E+07 18.5082 1.00000
  1.122E+08 1.122E+08 3.408E+00 4.152E-01 9.177E+00 1.577E+01 2.536E+01 2.877E+01 1.053E+07 18.7385 1.00000
  1.259E+08 1.259E+08 3.423E+00 4.707E-01 1.032E+01 1.799E+01 2.879E+01 3.221E+01 1.098E+07 18.9687 1.00000
  1.413E+08 1.413E+08 3.438E+00 5.336E-01 1.161E+01 2.054E+01 3.268E+01 3.612E+01 1.143E+07 19.1990 1.00000
  1.585E+08 1.585E+08 3.453E+00 6.047E-01 1.305E+01 2.345E+01 3.711E+01 4.056E+01 1.189E+07 19.4293 1.00000
  1.778E+08 1.778E+08 3.468E+00 6.850E-01 1.468E+01 2.677E+01 4.213E+01 4.560E+01 1.234E+07 19.6595 1.00000
  1.995E+08 1.995E+08 3.484E+00 7.758E-01 1.650E+01 3.057E+01 4.784E+01 5.132E+01 1.278E+07 19.8898 1.00000
  2.239E+08 2.239E+08 3.499E+00 8.784E-01 1.854E+01 3.490E+01 5.432E+01 5.782E+01 1.323E+07 20.1200 1.00000
  2.512E+08 2.512E+08 3.514E+00 9.942E-01 2.084E+01 3.985E+01 6.169E+01 6.520E+01 1.368E+07 20.3503 1.00000
  2.818E+08 2.818E+08 3.529E+00 1.125E+00 2.341E+01 4.551E+01 7.005E+01 7.358E+01 1.412E+07 20.5805 1.00000
  3.162E+08 3.162E+08 3.545E+00 1.273E+00 2.631E+01 5.198E+01 7.956E+01 8.310E+01 1.456E+07 20.8108 1.00000
  3.548E+08 3.548E+08 3.560E+00 1.439E+00 2.955E+01 5.937E+01 9.036E+01 9.392E+01 1.500E+07 21.0411 1.00000
  3.981E+08 3.981E+08 3.576E+00 1.627E+00 3.319E+01 6.781E+01 1.026E+02 1.062E+02 1.543E+07 21.2713 1.00000
  4.467E+08 4.467E+08 3.591E+00 1.839E+00 3.728E+01 7.746E+01 1.166E+02 1.202E+02 1.586E+07 21.5016 1.00000
  5.012E+08 5.012E+08 3.607E+00 2.079E+00 4.187E+01 8.849E+01 1.324E+02 1.360E+02 1.629E+07 21.7318 1.00000
  5.623E+08 5.623E+08 3.623E+00 2.348E+00 4.702E+01 1.011E+02 1.505E+02 1.541E+02 1.672E+07 21.9621 1.00000
  6.310E+08 6.310E+08 3.638E+00 2.652E+00 5.280E+01 1.155E+02 1.709E+02 1.746E+02 1.713E+07 22.1923 1.00000
  7.079E+08 7.079E+08 3.654E+00 2.995E+00 5.928E+01 1.320E+02 1.942E+02 1.979E+02 1.755E+07 22.4226 1.00000
  7.943E+08 7.943E+08 3.670E+00 3.381E+00 6.656E+01 1.508E+02 2.207E+02 2.244E+02 1.796E+07 22.6529 1.00000
  8.913E+08 8.913E+08 3.686E+00 3.815E+00 7.472E+01 1.723E+02 2.508E+02 2.545E+02 1.837E+07 22.8831 1.00000
  1.000E+09 1.000E+09 3.703E+00 4.305E+00 8.388E+01 1.969E+02 2.851E+02 2.888E+02 1.877E+07 23.1134 1.00000
  1.122E+09 1.122E+09 3.719E+00 4.856E+00 9.417E+01 2.250E+02 3.240E+02 3.278E+02 1.917E+07 23.3436 1.00000
  1.259E+09 1.259E+09 3.735E+00 5.477E+00 1.057E+02 2.572E+02 3.684E+02 3.721E+02 1.956E+07 23.5739 1.00000
  1.413E+09 1.413E+09 3.752E+00 6.175E+00 1.187E+02 2.939E+02 4.188E+02 4.225E+02 1.995E+07 23.8041 1.00000
  1.585E+09 1.585E+09 3.768E+00 6.962E+00 1.332E+02 3.360E+02 4.761E+02 4.799E+02 2.033E+07 24.0344 1.00000
  1.778E+09 1.778E+09 3.785E+00 7.846E+00 1.495E+02 3.841E+02 5.414E+02 5.452E+02 2.071E+07 24.2647 1.00000
  1.995E+09 1.995E+09 3.801E+00 8.841E+00 1.678E+02 4.390E+02 6.156E+02 6.194E+02 2.108E+07 24.4949 1.00000
  2.239E+09 2.239E+09 3.818E+00 9.960E+00 1.883E+02 5.019E+02 7.002E+02 7.040E+02 2.145E+07 24.7252 1.00000
  2.512E+09 2.512E+09 3.835E+00 1.122E+01 2.113E+02 5.738E+02 7.963E+02 8.002E+02 2.182E+07 24.9554 1.00000
  2.818E+09 2.818E+09 3.852E+00 1.263E+01 2.372E+02 6.560E+02 9.058E+02 9.097E+02 2.218E+07 25.1857 1.00000
  3.162E+09 3.162E+09 3.869E+00 1.423E+01 2.662E+02 7.501E+02 1.030E+03 1.034E+03 2.253E+07 25.4160 1.00000
  3.548E+09 3.548E+09 3.886E+00 1.601E+01 2.987E+02 8.577E+02 1.172E+03 1.176E+03 2.288E+07 25.6462 1.00000
  3.981E+09 3.981E+09 3.903E+00 1.802E+01 3.352E+02 9.808E+02 1.334E+03 1.338E+03 2.323E+07 25.8765 1.00000
  4.467E+09 4.467E+09 3.921E+00 2.028E+01 3.761E+02 1.122E+03 1.518E+03 1.522E+03 2.357E+07 26.1067 1.00000
  5.012E+09 5.012E+09 3.938E+00 2.282E+01 4.221E+02 1.283E+03 1.728E+03 1.732E+03 2.391E+07 26.3370 1.00000
  5.623E+09 5.623E+09 3.956E+00 2.568E+01 4.737E+02 1.467E+03 1.966E+03 1.970E+03 2.424E+07 26.5672 1.00000
  6.310E+09 6.310E+09 3.973E+00 2.888E+01 5.315E+02 1.678E+03 2.238E+03 2.242E+03 2.457E+07 26.7975 1.00000
  7.079E+09 7.079E+09 3.991E+00 3.248E+01 5.964E+02 1.919E+03 2.548E+03 2.552E+03 2.489E+07 27.0278 1.00000
  7.943E+09 7.943E+09 4.009E+00 3.653E+01 6.693E+02 2.195E+03 2.901E+03 2.905E+03 2.521E+07 27.2580 1.00000
  8.913E+09 8.913E+09 4.027E+00 4.107E+01 7.510E+02 2.511E+03 3.303E+03 3.307E+03 2.552E+07 27.4883 1.00000
  1.000E+10 1.000E+10 4.045E+00 4.617E+01 8.427E+02 2.873E+03 3.762E+03 3.766E+03 2.583E+07 27.7185 1.00000
  1.122E+10 1.122E+10 4.063E+00 5.190E+01 9.455E+02 3.287E+03 4.284E+03 4.288E+03 2.613E+07 27.9488 1.00000
  1.259E+10 1.259E+10 4.081E+00 5.834E+01 1.061E+03 3.760E+03 4.880E+03 4.884E+03 2.643E+07 28.1791 1.00000
  1.413E+10 1.413E+10 4.099E+00 6.556E+01 1.190E+03 4.302E+03 5.558E+03 5.563E+03 2.673E+07 28.4093 1.00000
  1.585E+10 1.585E+10 4.118E+00 7.367E+01 1.336E+03 4.923E+03 6.332E+03 6.337E+03 2.702E+07 28.6396 1.00000
  1.778E+10 1.778E+10 4.136E+00 8.278E+01 1.499E+03 5.633E+03 7.215E+03 7.219E+03 2.730E+07 28.8698 1.00000
  1.995E+10 1.995E+10 4.155E+00 9.301E+01 1.682E+03 6.446E+03 8.221E+03 8.225E+03 2.759E+07 29.1001 1.00000
  2.239E+10 2.239E+10 4.174E+00 1.045E+02 1.887E+03 7.377E+03 9.369E+03 9.373E+03 2.787E+07 29.3304 1.00000
  2.512E+10 2.512E+10 4.193E+00 1.174E+02 2.117E+03 8.443E+03 1.068E+04 1.068E+04 2.814E+07 29.5606 1.00000
  2.818E+10 2.818E+10 4.212E+00 1.318E+02 2.376E+03 9.663E+03 1.217E+04 1.218E+04 2.841E+07 29.7909 1.00000
  3.162E+10 3.162E+10 4.231E+00 1.481E+02 2.666E+03 1.106E+04 1.387E+04 1.388E+04 2.867E+07 30.0211 1.00000
  3.548E+10 3.548E+10 4.250E+00 1.663E+02 2.991E+03 1.266E+04 1.582E+04 1.582E+04 2.893E+07 30.2514 1.00000
  3.981E+10 3.981E+10 4.269E+00 1.868E+02 3.356E+03 1.449E+04 1.804E+04 1.804E+04 2.919E+07 30.4816 1.00000
  4.467E+10 4.467E+10 4.289E+00 2.097E+02 3.765E+03 1.659E+04 2.057E+04 2.057E+04 2.944E+07 30.7119 1.00000
  5.012E+10 5.012E+10 4.308E+00 2.355E+02 4.225E+03 1.899E+04 2.345E+04 2.346E+04 2.969E+07 30.9422 1.00000
  5.623E+10 5.623E+10 4.328E+00 2.644E+02 4.740E+03 2.175E+04 2.675E+04 2.675E+04 2.994E+07 31.1724 1.00000
  6.310E+10 6.310E+10 4.347E+00 2.969E+02 5.318E+03 2.490E+04 3.051E+04 3.052E+04 3.018E+07 31.4027 1.00000
  7.079E+10 7.079E+10 4.367E+00 3.333E+02 5.967E+03 2.851E+04 3.481E+04 3.481E+04 3.041E+07 31.6329 1.00000
  7.943E+10 7.943E+10 4.387E+00 3.742E+02 6.695E+03 3.264E+04 3.971E+04 3.972E+04 3.065E+07 31.8632 1.00000
  8.913E+10 8.913E+10 4.407E+00 4.200E+02 7.512E+03 3.738E+04 4.531E+04 4.532E+04 3.088E+07 32.0935 1.00000
  1.000E+11 1.000E+11 4.427E+00 4.715E+02 8.429E+03 4.281E+04 5.171E+04 5.171E+04 3.110E+07 32.3237 1.00000
  1.122E+11 1.122E+11 4.448E+00 5.293E+02 9.457E+03 4.902E+04 5.901E+04 5.902E+04 3.132E+07 32.5540 1.00000
  1.259E+11 1.259E+11 4.468E+00 5.941E+02 1.061E+04 5.615E+04 6.735E+04 6.736E+04 3.154E+07 32.7842 1.00000
  1.413E+11 1.413E+11 4.489E+00 6.668E+02 1.191E+04 6.431E+04 7.688E+04 7.689E+04 3.175E+07 33.0145 1.00000
  1.585E+11 1.585E+11 4.509E+00 7.484E+02 1.336E+04 7.366E+04 8.777E+04 8.777E+04 3.196E+07 33.2447 1.00000
  1.778E+11 1.778E+11 4.530E+00 8.400E+02 1.499E+04 8.438E+04 1.002E+05 1.002E+05 3.217E+07 33.4750 1.00000
  1.995E+11 1.995E+11 4.551E+00 9.428E+02 1.682E+04 9.666E+04 1.144E+05 1.144E+05 3.237E+07 33.7053 1.00000
  2.239E+11 2.239E+11 4.572E+00 1.058E+03 1.887E+04 1.107E+05 1.307E+05 1.307E+05 3.257E+07 33.9355 1.00000
  2.512E+11 2.512E+11 4.593E+00 1.188E+03 2.117E+04 1.269E+05 1.492E+05 1.492E+05 3.277E+07 34.1658 1.00000
  2.818E+11 2.818E+11 4.614E+00 1.333E+03 2.375E+04 1.453E+05 1.704E+05 1.704E+05 3.296E+07 34.3960 1.00000
  3.162E+11 3.162E+11 4.636E+00 1.496E+03 2.665E+04 1.665E+05 1.947E+05 1.947E+05 3.315E+07 34.6263 1.00000
  3.548E+11 3.548E+11 4.657E+00 1.678E+03 2.990E+04 1.908E+05 2.224E+05 2.224E+05 3.334E+07 34.8566 1.00000
  3.981E+11 3.981E+11 4.679E+00 1.884E+03 3.355E+04 2.187E+05 2.541E+05 2.541E+05 3.352E+07 35.0868 1.00000
  4.467E+11 4.467E+11 4.700E+00 2.114E+03 3.764E+04 2.506E+05 2.903E+05 2.903E+05 3.370E+07 35.3171 1.00000
  5.012E+11 5.012E+11 4.722E+00 2.372E+03 4.223E+04 2.872E+05 3.318E+05 3.318E+05 3.388E+07 35.5473 1.00000
  5.623E+11 5.623E+11 4.744E+00 2.662E+03 4.738E+04 3.291E+05 3.792E+05 3.792E+05 3.405E+07 35.7776 1.00000
  6.310E+11 6.310E+11 4.766E+00 2.987E+03 5.316E+04 3.772E+05 4.334E+05 4.334E+05 3.422E+07 36.0078 1.00000
  7.079E+11 7.079E+11 4.788E+00 3.352E+03 5.964E+04 4.324E+05 4.954E+05 4.954E+05 3.438E+07 36.2381 1.00000
  7.943E+11 7.943E+11 4.811E+00 3.761E+03 6.692E+04 4.956E+05 5.663E+05 5.663E+05 3.455E+07 36.4684 1.00000
  8.913E+11 8.913E+11 4.833E+00 4.220E+03 7.508E+04 5.681E+05 6.474E+05 6.474E+05 3.471E+07 36.6986 1.00000
  1.000E+12 1.000E+12 4.856E+00 4.736E+03 8.424E+04 6.513E+05 7.402E+05 7.402E+05 3.487E+07 36.9289 1.00000
  1.122E+12 1.122E+12 4.878E+00 5.314E+03 9.451E+04 7.466E+05 8.465E+05 8.465E+05 3.502E+07 37.1591 1.00000
  1.259E+12 1.259E+12 4.901E+00 5.963E+03 1.060E+05 8.560E+05 9.680E+05 9.680E+05 3.517E+07 37.3894 1.00000
  1.413E+12 1.413E+12 4.924E+00 6.691E+03 1.190E+05 9.814E+05 1.107E+06 1.107E+06 3.532E+07 37.6197 1.00000
  1.585E+12 1.585E+12 4.947E+00 7.508E+03 1.335E+05 1.125E+06 1.266E+06 1.266E+06 3.547E+07 37.8499 1.00000
  1.778E+12 1.778E+12 4.970E+00 8.424E+03 1.498E+05 1.290E+06 1.449E+06 1.449E+06 3.561E+07 38.0802 1.00000
  1.995E+12 1.995E+12 4.994E+00 9.452E+03 1.680E+05 1.480E+06 1.657E+06 1.657E+06 3.575E+07 38.3104 1.00000
  2.239E+12 2.239E+12 5.017E+00 1.061E+04 1.885E+05 1.697E+06 1.896E+06 1.896E+06 3.589E+07 38.5407 1.00000
  2.512E+12 2.512E+12 5.041E+00 1.190E+04 2.115E+05 1.946E+06 2.169E+06 2.169E+06 3.602E+07 38.7709 1.00000
  2.818E+12 2.818E+12 5.065E+00 1.335E+04 2.373E+05 2.232E+06 2.483E+06 2.483E+06 3.615E+07 39.0012 1.00000
  3.162E+12 3.162E+12 5.088E+00 1.498E+04 2.663E+05 2.560E+06 2.841E+06 2.841E+06 3.628E+07 39.2315 1.00000
  3.548E+12 3.548E+12 5.112E+00 1.681E+04 2.988E+05 2.936E+06 3.252E+06 3.252E+06 3.641E+07 39.4617 1.00000
  3.981E+12 3.981E+12 5.136E+00 1.886E+04 3.352E+05 3.368E+06 3.722E+06 3.722E+06 3.654E+07 39.6920 1.00000
  4.467E+12 4.467E+12 5.161E+00 2.117E+04 3.761E+05 3.864E+06 4.261E+06 4.261E+06 3.666E+07 39.9222 1.00000
  5.012E+12 5.012E+12 5.185E+00 2.375E+04 4.220E+05 4.432E+06 4.878E+06 4.878E+06 3.678E+07 40.1525 1.00000
  5.623E+12 5.623E+12 5.210E+00 2.665E+04 4.734E+05 5.085E+06 5.585E+06 5.585E+06 3.690E+07 40.3828 1.00000
  6.310E+12 6.310E+12 5.234E+00 2.990E+04 5.312E+05 5.834E+06 6.395E+06 6.395E+06 3.701E+07 40.6130 1.00000
  7.079E+12 7.079E+12 5.259E+00 3.355E+04 5.959E+05 6.693E+06 7.323E+06 7.323E+06 3.712E+07 40.8433 1.00000
  7.943E+12 7.943E+12 5.284E+00 3.764E+04 6.686E+05 7.680E+06 8.386E+06 8.386E+06 3.723E+07 41.0735 1.00000
  8.913E+12 8.913E+12 5.309E+00 4.223E+04 7.502E+05 8.812E+06 9.605E+06 9.605E+06 3.734E+07 41.3038 1.00000
  1.000E+13 1.000E+13 5.334E+00 4.739E+04 8.417E+05 1.011E+07 1.100E+07 1.100E+07 3.745E+07 41.5341 1.00000
  1.122E+13 1.122E+13 5.359E+00 5.317E+04 9.443E+05 1.160E+07 1.260E+07 1.260E+07 3.755E+07 41.7643 1.00000
  1.259E+13 1.259E+13 5.385E+00 5.966E+04 1.059E+06 1.332E+07 1.444E+07 1.444E+07 3.765E+07 41.9946 1.00000
  1.413E+13 1.413E+13 5.411E+00 6.694E+04 1.189E+06 1.528E+07 1.654E+07 1.654E+07 3.775E+07 42.2248 1.00000
  1.585E+13 1.585E+13 5.436E+00 7.511E+04 1.334E+06 1.754E+07 1.895E+07 1.895E+07 3.785E+07 42.4551 1.00000
  1.778E+13 1.778E+13 5.462E+00 8.427E+04 1.496E+06 2.014E+07 2.172E+07 2.172E+07 3.795E+07 42.6853 1.00000
  1.995E+13 1.995E+13 5.488E+00 9.456E+04 1.679E+06 2.311E+07 2.489E+07 2.489E+07 3.804E+07 42.9156 1.00000
  2.239E+13 2.239E+13 5.514E+00 1.061E+05 1.884E+06 2.653E+07 2.852E+07 2.852E+07 3.813E+07 43.1459 1.00000
  2.512E+13 2.512E+13 5.541E+00 1.190E+05 2.113E+06 3.046E+07 3.269E+07 3.269E+07 3.822E+07 43.3761 1.00000
  2.818E+13 2.818E+13 5.567E+00 1.336E+05 2.371E+06 3.497E+07 3.747E+07 3.747E+07 3.831E+07 43.6064 1.00000
  3.162E+13 3.162E+13 5.594E+00 1.499E+05 2.660E+06 4.014E+07 4.295E+07 4.295E+07 3.840E+07 43.8366 1.00000
  3.548E+13 3.548E+13 5.620E+00 1.682E+05 2.985E+06 4.609E+07 4.924E+07 4.924E+07 3.848E+07 44.0669 1.00000
  3.981E+13 3.981E+13 5.647E+00 1.887E+05 3.349E+06 5.292E+07 5.646E+07 5.646E+07 3.856E+07 44.2972 1.00000
  4.467E+13 4.467E+13 5.674E+00 2.117E+05 3.757E+06 6.076E+07 6.473E+07 6.473E+07 3.864E+07 44.5274 1.00000
  5.012E+13 5.012E+13 5.701E+00 2.375E+05 4.215E+06 6.977E+07 7.423E+07 7.423E+07 3.872E+07 44.7577 1.00000
  5.623E+13 5.623E+13 5.729E+00 2.665E+05 4.729E+06 8.012E+07 8.512E+07 8.512E+07 3.880E+07 44.9879 1.00000
  6.310E+13 6.310E+13 5.756E+00 2.990E+05 5.306E+06 9.201E+07 9.762E+07 9.762E+07 3.887E+07 45.2182 1.00000
  7.079E+13 7.079E+13 5.784E+00 3.355E+05 5.953E+06 1.057E+08 1.120E+08 1.120E+08 3.895E+07 45.4484 1.00000
  7.943E+13 7.943E+13 5.811E+00 3.764E+05 6.679E+06 1.214E+08 1.284E+08 1.284E+08 3.902E+07 45.6787 1.00000
  8.913E+13 8.913E+13 5.839E+00 4.224E+05 7.494E+06 1.394E+08 1.473E+08 1.473E+08 3.909E+07 45.9090 1.00000
