 Incident particle is a Tau with M = 1776.82000 MeV
 Index = 0: StriatedMuscle
      Absorber with <Z/A> = 0.55095
 Sternheimer coef:  a     k=m_s   x_0    x_1    I[eV]   Cbar  delta0
                 0.0851  3.5383  0.2249  2.8032   74.7  3.4636 0.00

 *** Table generated with PUMAS v1.00 ***

      T         p     Ionization  brems     pair     photonuc  Radloss    dE/dx   CSDA Range  delta   beta
    [MeV]    [MeV/c]  -----------------------[MeV cm^2/g]------------------------  [g/cm^2]
  1.000E+05 1.018E+05 2.423E+00 1.429E-04 2.229E-03 8.392E-03 1.076E-02 2.434E+00 2.054E+04  4.7315 0.99985
  1.122E+05 1.140E+05 2.445E+00 1.651E-04 2.692E-03 9.480E-03 1.234E-02 2.457E+00 2.553E+04  4.9425 0.99988
  1.259E+05 1.277E+05 2.465E+00 1.907E-04 3.238E-03 1.065E-02 1.408E-02 2.480E+00 3.108E+04  5.1556 0.99990
  1.413E+05 1.430E+05 2.486E+00 2.200E-04 3.881E-03 1.197E-02 1.607E-02 2.502E+00 3.724E+04  5.3707 0.99992
  1.585E+05 1.603E+05 2.507E+00 2.538E-04 4.638E-03 1.345E-02 1.834E-02 2.525E+00 4.410E+04  5.5878 0.99994
  1.778E+05 1.796E+05 2.528E+00 2.927E-04 5.526E-03 1.510E-02 2.092E-02 2.549E+00 5.172E+04  5.8066 0.99995
  1.995E+05 2.013E+05 2.549E+00 3.373E-04 6.566E-03 1.699E-02 2.389E-02 2.572E+00 6.020E+04  6.0269 0.99996
  2.239E+05 2.256E+05 2.569E+00 3.886E-04 7.782E-03 1.905E-02 2.722E-02 2.596E+00 6.962E+04  6.2487 0.99997
  2.512E+05 2.530E+05 2.590E+00 4.475E-04 9.201E-03 2.136E-02 3.100E-02 2.621E+00 8.009E+04  6.4717 0.99998
  2.818E+05 2.836E+05 2.610E+00 5.151E-04 1.085E-02 2.396E-02 3.533E-02 2.645E+00 9.173E+04  6.6959 0.99998
  3.162E+05 3.180E+05 2.630E+00 5.926E-04 1.277E-02 2.690E-02 4.027E-02 2.671E+00 1.047E+05  6.9211 0.99998
  3.548E+05 3.566E+05 2.651E+00 6.815E-04 1.500E-02 3.021E-02 4.589E-02 2.697E+00 1.190E+05  7.1473 0.99999
  3.981E+05 3.999E+05 2.671E+00 7.835E-04 1.759E-02 3.390E-02 5.227E-02 2.723E+00 1.350E+05  7.3742 0.99999
  4.467E+05 4.485E+05 2.691E+00 9.004E-04 2.058E-02 3.804E-02 5.951E-02 2.751E+00 1.528E+05  7.6017 0.99999
  5.012E+05 5.030E+05 2.711E+00 1.034E-03 2.404E-02 4.270E-02 6.777E-02 2.779E+00 1.725E+05  7.8299 0.99999
  5.623E+05 5.641E+05 2.731E+00 1.188E-03 2.802E-02 4.775E-02 7.696E-02 2.808E+00 1.944E+05  8.0585 1.00000
  6.310E+05 6.327E+05 2.751E+00 1.363E-03 3.262E-02 5.344E-02 8.743E-02 2.838E+00 2.187E+05  8.2875 1.00000
  7.079E+05 7.097E+05 2.771E+00 1.565E-03 3.792E-02 5.987E-02 9.935E-02 2.870E+00 2.457E+05  8.5168 1.00000
  7.943E+05 7.961E+05 2.791E+00 1.795E-03 4.401E-02 6.713E-02 1.129E-01 2.903E+00 2.756E+05  8.7463 1.00000
  8.913E+05 8.930E+05 2.810E+00 2.058E-03 5.100E-02 7.534E-02 1.284E-01 2.939E+00 3.088E+05  8.9760 1.00000
  1.000E+06 1.002E+06 2.830E+00 2.360E-03 5.902E-02 8.463E-02 1.460E-01 2.976E+00 3.455E+05  9.2058 1.00000
  1.122E+06 1.124E+06 2.849E+00 2.704E-03 6.821E-02 9.514E-02 1.661E-01 3.015E+00 3.863E+05  9.4357 1.00000
  1.259E+06 1.261E+06 2.868E+00 3.099E-03 7.873E-02 1.071E-01 1.889E-01 3.057E+00 4.314E+05  9.6656 1.00000
  1.413E+06 1.414E+06 2.888E+00 3.549E-03 9.076E-02 1.206E-01 2.149E-01 3.103E+00 4.813E+05  9.8955 1.00000
  1.585E+06 1.587E+06 2.907E+00 4.065E-03 1.045E-01 1.359E-01 2.444E-01 3.151E+00 5.364E+05 10.1255 1.00000
  1.778E+06 1.780E+06 2.926E+00 4.653E-03 1.202E-01 1.532E-01 2.781E-01 3.204E+00 5.972E+05 10.3555 1.00000
  1.995E+06 1.997E+06 2.945E+00 5.326E-03 1.381E-01 1.730E-01 3.163E-01 3.261E+00 6.644E+05 10.5856 1.00000
  2.239E+06 2.240E+06 2.963E+00 6.094E-03 1.584E-01 1.953E-01 3.599E-01 3.323E+00 7.383E+05 10.8157 1.00000
  2.512E+06 2.514E+06 2.982E+00 6.971E-03 1.816E-01 2.208E-01 4.094E-01 3.391E+00 8.197E+05 11.0457 1.00000
  2.818E+06 2.820E+06 3.000E+00 7.972E-03 2.080E-01 2.497E-01 4.657E-01 3.466E+00 9.091E+05 11.2758 1.00000
  3.162E+06 3.164E+06 3.018E+00 9.115E-03 2.379E-01 2.826E-01 5.296E-01 3.548E+00 1.007E+06 11.5060 1.00000
  3.548E+06 3.550E+06 3.036E+00 1.042E-02 2.719E-01 3.200E-01 6.024E-01 3.639E+00 1.115E+06 11.7361 1.00000
  3.981E+06 3.983E+06 3.054E+00 1.191E-02 3.105E-01 3.626E-01 6.850E-01 3.739E+00 1.232E+06 11.9663 1.00000
  4.467E+06 4.469E+06 3.072E+00 1.360E-02 3.542E-01 4.111E-01 7.788E-01 3.851E+00 1.360E+06 12.1964 1.00000
  5.012E+06 5.014E+06 3.089E+00 1.554E-02 4.037E-01 4.662E-01 8.855E-01 3.975E+00 1.499E+06 12.4266 1.00000
  5.623E+06 5.625E+06 3.107E+00 1.774E-02 4.597E-01 5.291E-01 1.007E+00 4.113E+00 1.651E+06 12.6568 1.00000
  6.310E+06 6.311E+06 3.124E+00 2.026E-02 5.232E-01 6.006E-01 1.144E+00 4.268E+00 1.814E+06 12.8870 1.00000
  7.079E+06 7.081E+06 3.141E+00 2.312E-02 5.949E-01 6.821E-01 1.300E+00 4.441E+00 1.991E+06 13.1172 1.00000
  7.943E+06 7.945E+06 3.158E+00 2.638E-02 6.759E-01 7.750E-01 1.477E+00 4.635E+00 2.182E+06 13.3474 1.00000
  8.913E+06 8.914E+06 3.174E+00 3.009E-02 7.675E-01 8.809E-01 1.678E+00 4.853E+00 2.386E+06 13.5776 1.00000
  1.000E+07 1.000E+07 3.191E+00 3.432E-02 8.708E-01 1.002E+00 1.907E+00 5.097E+00 2.605E+06 13.8078 1.00000
  1.122E+07 1.122E+07 3.207E+00 3.912E-02 9.874E-01 1.139E+00 2.166E+00 5.373E+00 2.838E+06 14.0380 1.00000
  1.259E+07 1.259E+07 3.223E+00 4.459E-02 1.119E+00 1.296E+00 2.459E+00 5.683E+00 3.086E+06 14.2682 1.00000
  1.413E+07 1.413E+07 3.239E+00 5.082E-02 1.267E+00 1.475E+00 2.793E+00 6.032E+00 3.348E+06 14.4985 1.00000
  1.585E+07 1.585E+07 3.255E+00 5.789E-02 1.434E+00 1.679E+00 3.171E+00 6.426E+00 3.625E+06 14.7287 1.00000
  1.778E+07 1.778E+07 3.271E+00 6.593E-02 1.623E+00 1.911E+00 3.600E+00 6.871E+00 3.917E+06 14.9589 1.00000
  1.995E+07 1.995E+07 3.287E+00 7.507E-02 1.835E+00 2.177E+00 4.086E+00 7.373E+00 4.222E+06 15.1892 1.00000
  2.239E+07 2.239E+07 3.302E+00 8.545E-02 2.074E+00 2.479E+00 4.638E+00 7.941E+00 4.540E+06 15.4194 1.00000
  2.512E+07 2.512E+07 3.318E+00 9.723E-02 2.342E+00 2.825E+00 5.264E+00 8.582E+00 4.871E+06 15.6496 1.00000
  2.818E+07 2.819E+07 3.334E+00 1.106E-01 2.645E+00 3.219E+00 5.974E+00 9.308E+00 5.214E+06 15.8799 1.00000
  3.162E+07 3.162E+07 3.349E+00 1.258E-01 2.985E+00 3.669E+00 6.779E+00 1.013E+01 5.569E+06 16.1101 1.00000
  3.548E+07 3.548E+07 3.364E+00 1.430E-01 3.368E+00 4.182E+00 7.692E+00 1.106E+01 5.934E+06 16.3404 1.00000
  3.981E+07 3.981E+07 3.380E+00 1.626E-01 3.798E+00 4.768E+00 8.728E+00 1.211E+01 6.308E+06 16.5706 1.00000
  4.467E+07 4.467E+07 3.395E+00 1.847E-01 4.282E+00 5.436E+00 9.903E+00 1.330E+01 6.692E+06 16.8009 1.00000
  5.012E+07 5.012E+07 3.410E+00 2.099E-01 4.825E+00 6.200E+00 1.123E+01 1.465E+01 7.083E+06 17.0311 1.00000
  5.623E+07 5.624E+07 3.426E+00 2.383E-01 5.436E+00 7.071E+00 1.275E+01 1.617E+01 7.481E+06 17.2614 1.00000
  6.310E+07 6.310E+07 3.441E+00 2.706E-01 6.123E+00 8.066E+00 1.446E+01 1.790E+01 7.884E+06 17.4916 1.00000
  7.079E+07 7.080E+07 3.456E+00 3.071E-01 6.894E+00 9.202E+00 1.640E+01 1.986E+01 8.293E+06 17.7219 1.00000
  7.943E+07 7.943E+07 3.472E+00 3.485E-01 7.761E+00 1.050E+01 1.861E+01 2.208E+01 8.706E+06 17.9521 1.00000
  8.913E+07 8.913E+07 3.487E+00 3.953E-01 8.735E+00 1.198E+01 2.111E+01 2.460E+01 9.123E+06 18.1824 1.00000
  1.000E+08 1.000E+08 3.502E+00 4.482E-01 9.828E+00 1.367E+01 2.395E+01 2.745E+01 9.542E+06 18.4126 1.00000
  1.122E+08 1.122E+08 3.518E+00 5.081E-01 1.106E+01 1.560E+01 2.717E+01 3.068E+01 9.963E+06 18.6429 1.00000
  1.259E+08 1.259E+08 3.533E+00 5.759E-01 1.243E+01 1.781E+01 3.082E+01 3.435E+01 1.039E+07 18.8731 1.00000
  1.413E+08 1.413E+08 3.549E+00 6.525E-01 1.398E+01 2.033E+01 3.496E+01 3.851E+01 1.081E+07 19.1034 1.00000
  1.585E+08 1.585E+08 3.564E+00 7.391E-01 1.572E+01 2.321E+01 3.967E+01 4.323E+01 1.123E+07 19.3337 1.00000
  1.778E+08 1.778E+08 3.580E+00 8.369E-01 1.767E+01 2.649E+01 4.500E+01 4.858E+01 1.165E+07 19.5639 1.00000
  1.995E+08 1.995E+08 3.595E+00 9.475E-01 1.986E+01 3.025E+01 5.106E+01 5.465E+01 1.208E+07 19.7942 1.00000
  2.239E+08 2.239E+08 3.611E+00 1.072E+00 2.232E+01 3.454E+01 5.793E+01 6.154E+01 1.250E+07 20.0244 1.00000
  2.512E+08 2.512E+08 3.627E+00 1.213E+00 2.508E+01 3.944E+01 6.574E+01 6.936E+01 1.292E+07 20.2547 1.00000
  2.818E+08 2.818E+08 3.643E+00 1.372E+00 2.818E+01 4.504E+01 7.459E+01 7.824E+01 1.333E+07 20.4849 1.00000
  3.162E+08 3.162E+08 3.659E+00 1.552E+00 3.166E+01 5.144E+01 8.465E+01 8.831E+01 1.375E+07 20.7152 1.00000
  3.548E+08 3.548E+08 3.675E+00 1.754E+00 3.556E+01 5.875E+01 9.607E+01 9.974E+01 1.416E+07 20.9455 1.00000
  3.981E+08 3.981E+08 3.691E+00 1.983E+00 3.994E+01 6.711E+01 1.090E+02 1.127E+02 1.457E+07 21.1757 1.00000
  4.467E+08 4.467E+08 3.707E+00 2.240E+00 4.486E+01 7.666E+01 1.238E+02 1.275E+02 1.497E+07 21.4060 1.00000
  5.012E+08 5.012E+08 3.723E+00 2.530E+00 5.038E+01 8.757E+01 1.405E+02 1.442E+02 1.538E+07 21.6362 1.00000
  5.623E+08 5.623E+08 3.739E+00 2.857E+00 5.657E+01 1.000E+02 1.595E+02 1.632E+02 1.578E+07 21.8665 1.00000
  6.310E+08 6.310E+08 3.756E+00 3.226E+00 6.352E+01 1.143E+02 1.810E+02 1.848E+02 1.617E+07 22.0967 1.00000
  7.079E+08 7.079E+08 3.772E+00 3.641E+00 7.131E+01 1.306E+02 2.055E+02 2.093E+02 1.656E+07 22.3270 1.00000
  7.943E+08 7.943E+08 3.789E+00 4.109E+00 8.007E+01 1.492E+02 2.334E+02 2.372E+02 1.695E+07 22.5573 1.00000
  8.913E+08 8.913E+08 3.805E+00 4.636E+00 8.989E+01 1.705E+02 2.650E+02 2.688E+02 1.734E+07 22.7875 1.00000
  1.000E+09 1.000E+09 3.822E+00 5.229E+00 1.009E+02 1.949E+02 3.010E+02 3.048E+02 1.772E+07 23.0178 1.00000
  1.122E+09 1.122E+09 3.839E+00 5.897E+00 1.133E+02 2.227E+02 3.419E+02 3.457E+02 1.809E+07 23.2480 1.00000
  1.259E+09 1.259E+09 3.856E+00 6.648E+00 1.271E+02 2.545E+02 3.883E+02 3.922E+02 1.847E+07 23.4783 1.00000
  1.413E+09 1.413E+09 3.873E+00 7.493E+00 1.427E+02 2.909E+02 4.411E+02 4.450E+02 1.884E+07 23.7085 1.00000
  1.585E+09 1.585E+09 3.890E+00 8.444E+00 1.602E+02 3.325E+02 5.011E+02 5.050E+02 1.920E+07 23.9388 1.00000
  1.778E+09 1.778E+09 3.907E+00 9.514E+00 1.798E+02 3.801E+02 5.694E+02 5.733E+02 1.956E+07 24.1691 1.00000
  1.995E+09 1.995E+09 3.924E+00 1.072E+01 2.018E+02 4.345E+02 6.470E+02 6.509E+02 1.992E+07 24.3993 1.00000
  2.239E+09 2.239E+09 3.941E+00 1.207E+01 2.265E+02 4.967E+02 7.352E+02 7.392E+02 2.027E+07 24.6296 1.00000
  2.512E+09 2.512E+09 3.959E+00 1.359E+01 2.542E+02 5.678E+02 8.356E+02 8.395E+02 2.061E+07 24.8598 1.00000
  2.818E+09 2.818E+09 3.976E+00 1.530E+01 2.852E+02 6.492E+02 9.497E+02 9.537E+02 2.096E+07 25.0901 1.00000
  3.162E+09 3.162E+09 3.994E+00 1.723E+01 3.201E+02 7.423E+02 1.080E+03 1.084E+03 2.130E+07 25.3204 1.00000
  3.548E+09 3.548E+09 4.012E+00 1.939E+01 3.592E+02 8.488E+02 1.227E+03 1.231E+03 2.163E+07 25.5506 1.00000
  3.981E+09 3.981E+09 4.030E+00 2.181E+01 4.031E+02 9.706E+02 1.396E+03 1.400E+03 2.196E+07 25.7809 1.00000
  4.467E+09 4.467E+09 4.047E+00 2.454E+01 4.524E+02 1.110E+03 1.587E+03 1.591E+03 2.229E+07 26.0111 1.00000
  5.012E+09 5.012E+09 4.066E+00 2.761E+01 5.076E+02 1.269E+03 1.805E+03 1.809E+03 2.261E+07 26.2414 1.00000
  5.623E+09 5.623E+09 4.084E+00 3.105E+01 5.696E+02 1.452E+03 2.052E+03 2.057E+03 2.293E+07 26.4716 1.00000
  6.310E+09 6.310E+09 4.102E+00 3.492E+01 6.392E+02 1.660E+03 2.335E+03 2.339E+03 2.324E+07 26.7019 1.00000
  7.079E+09 7.079E+09 4.120E+00 3.927E+01 7.172E+02 1.899E+03 2.656E+03 2.660E+03 2.355E+07 26.9322 1.00000
  7.943E+09 7.943E+09 4.139E+00 4.415E+01 8.048E+02 2.172E+03 3.021E+03 3.026E+03 2.386E+07 27.1624 1.00000
  8.913E+09 8.913E+09 4.157E+00 4.963E+01 9.031E+02 2.485E+03 3.438E+03 3.442E+03 2.416E+07 27.3927 1.00000
  1.000E+10 1.000E+10 4.176E+00 5.579E+01 1.013E+03 2.843E+03 3.912E+03 3.916E+03 2.445E+07 27.6229 1.00000
  1.122E+10 1.122E+10 4.195E+00 6.270E+01 1.137E+03 3.253E+03 4.452E+03 4.456E+03 2.475E+07 27.8532 1.00000
  1.259E+10 1.259E+10 4.213E+00 7.046E+01 1.276E+03 3.721E+03 5.068E+03 5.072E+03 2.504E+07 28.0835 1.00000
  1.413E+10 1.413E+10 4.232E+00 7.918E+01 1.432E+03 4.258E+03 5.768E+03 5.773E+03 2.532E+07 28.3137 1.00000
  1.585E+10 1.585E+10 4.252E+00 8.896E+01 1.606E+03 4.872E+03 6.567E+03 6.571E+03 2.560E+07 28.5440 1.00000
  1.778E+10 1.778E+10 4.271E+00 9.995E+01 1.802E+03 5.575E+03 7.477E+03 7.481E+03 2.588E+07 28.7742 1.00000
  1.995E+10 1.995E+10 4.290E+00 1.123E+02 2.022E+03 6.379E+03 8.514E+03 8.518E+03 2.615E+07 29.0045 1.00000
  2.239E+10 2.239E+10 4.309E+00 1.261E+02 2.269E+03 7.301E+03 9.696E+03 9.700E+03 2.642E+07 29.2348 1.00000
  2.512E+10 2.512E+10 4.329E+00 1.417E+02 2.546E+03 8.355E+03 1.104E+04 1.105E+04 2.668E+07 29.4650 1.00000
  2.818E+10 2.818E+10 4.349E+00 1.591E+02 2.857E+03 9.563E+03 1.258E+04 1.258E+04 2.694E+07 29.6953 1.00000
  3.162E+10 3.162E+10 4.368E+00 1.787E+02 3.205E+03 1.095E+04 1.433E+04 1.433E+04 2.720E+07 29.9255 1.00000
  3.548E+10 3.548E+10 4.388E+00 2.006E+02 3.596E+03 1.253E+04 1.633E+04 1.633E+04 2.745E+07 30.1558 1.00000
  3.981E+10 3.981E+10 4.408E+00 2.253E+02 4.035E+03 1.434E+04 1.860E+04 1.861E+04 2.770E+07 30.3860 1.00000
  4.467E+10 4.467E+10 4.428E+00 2.530E+02 4.528E+03 1.642E+04 2.120E+04 2.120E+04 2.795E+07 30.6163 1.00000
  5.012E+10 5.012E+10 4.448E+00 2.840E+02 5.080E+03 1.880E+04 2.416E+04 2.416E+04 2.819E+07 30.8466 1.00000
  5.623E+10 5.623E+10 4.469E+00 3.189E+02 5.700E+03 2.152E+04 2.754E+04 2.754E+04 2.842E+07 31.0768 1.00000
  6.310E+10 6.310E+10 4.489E+00 3.580E+02 6.395E+03 2.464E+04 3.139E+04 3.140E+04 2.866E+07 31.3071 1.00000
  7.079E+10 7.079E+10 4.510E+00 4.019E+02 7.176E+03 2.821E+04 3.579E+04 3.579E+04 2.889E+07 31.5373 1.00000
  7.943E+10 7.943E+10 4.530E+00 4.512E+02 8.051E+03 3.230E+04 4.081E+04 4.081E+04 2.912E+07 31.7676 1.00000
  8.913E+10 8.913E+10 4.551E+00 5.065E+02 9.033E+03 3.699E+04 4.653E+04 4.654E+04 2.934E+07 31.9979 1.00000
  1.000E+11 1.000E+11 4.572E+00 5.685E+02 1.014E+04 4.236E+04 5.307E+04 5.307E+04 2.956E+07 32.2281 1.00000
  1.122E+11 1.122E+11 4.593E+00 6.381E+02 1.137E+04 4.851E+04 6.052E+04 6.053E+04 2.977E+07 32.4584 1.00000
  1.259E+11 1.259E+11 4.614E+00 7.163E+02 1.276E+04 5.556E+04 6.904E+04 6.904E+04 2.999E+07 32.6886 1.00000
  1.413E+11 1.413E+11 4.635E+00 8.039E+02 1.432E+04 6.364E+04 7.876E+04 7.877E+04 3.019E+07 32.9189 1.00000
  1.585E+11 1.585E+11 4.656E+00 9.023E+02 1.606E+04 7.290E+04 8.986E+04 8.987E+04 3.040E+07 33.1491 1.00000
  1.778E+11 1.778E+11 4.678E+00 1.013E+03 1.802E+04 8.350E+04 1.025E+05 1.025E+05 3.060E+07 33.3794 1.00000
  1.995E+11 1.995E+11 4.700E+00 1.137E+03 2.022E+04 9.565E+04 1.170E+05 1.170E+05 3.080E+07 33.6097 1.00000
  2.239E+11 2.239E+11 4.721E+00 1.276E+03 2.269E+04 1.096E+05 1.335E+05 1.335E+05 3.099E+07 33.8399 1.00000
  2.512E+11 2.512E+11 4.743E+00 1.431E+03 2.545E+04 1.255E+05 1.524E+05 1.524E+05 3.119E+07 34.0702 1.00000
  2.818E+11 2.818E+11 4.765E+00 1.606E+03 2.856E+04 1.438E+05 1.740E+05 1.740E+05 3.138E+07 34.3004 1.00000
  3.162E+11 3.162E+11 4.787E+00 1.803E+03 3.204E+04 1.648E+05 1.987E+05 1.987E+05 3.156E+07 34.5307 1.00000
  3.548E+11 3.548E+11 4.809E+00 2.023E+03 3.595E+04 1.888E+05 2.268E+05 2.268E+05 3.174E+07 34.7610 1.00000
  3.981E+11 3.981E+11 4.832E+00 2.270E+03 4.034E+04 2.164E+05 2.590E+05 2.590E+05 3.192E+07 34.9912 1.00000
  4.467E+11 4.467E+11 4.854E+00 2.548E+03 4.526E+04 2.480E+05 2.958E+05 2.958E+05 3.210E+07 35.2215 1.00000
  5.012E+11 5.012E+11 4.877E+00 2.859E+03 5.078E+04 2.842E+05 3.378E+05 3.378E+05 3.227E+07 35.4517 1.00000
  5.623E+11 5.623E+11 4.899E+00 3.208E+03 5.697E+04 3.257E+05 3.859E+05 3.859E+05 3.244E+07 35.6820 1.00000
  6.310E+11 6.310E+11 4.922E+00 3.600E+03 6.392E+04 3.733E+05 4.408E+05 4.408E+05 3.261E+07 35.9122 1.00000
  7.079E+11 7.079E+11 4.945E+00 4.039E+03 7.172E+04 4.279E+05 5.036E+05 5.036E+05 3.277E+07 36.1425 1.00000
  7.943E+11 7.943E+11 4.968E+00 4.533E+03 8.047E+04 4.904E+05 5.754E+05 5.755E+05 3.293E+07 36.3728 1.00000
  8.913E+11 8.913E+11 4.991E+00 5.086E+03 9.028E+04 5.622E+05 6.576E+05 6.576E+05 3.309E+07 36.6030 1.00000
  1.000E+12 1.000E+12 5.015E+00 5.707E+03 1.013E+05 6.445E+05 7.515E+05 7.515E+05 3.324E+07 36.8333 1.00000
  1.122E+12 1.122E+12 5.038E+00 6.404E+03 1.137E+05 7.389E+05 8.589E+05 8.589E+05 3.340E+07 37.0635 1.00000
  1.259E+12 1.259E+12 5.062E+00 7.186E+03 1.275E+05 8.471E+05 9.818E+05 9.818E+05 3.355E+07 37.2938 1.00000
  1.413E+12 1.413E+12 5.086E+00 8.063E+03 1.431E+05 9.712E+05 1.122E+06 1.122E+06 3.369E+07 37.5241 1.00000
  1.585E+12 1.585E+12 5.110E+00 9.047E+03 1.605E+05 1.114E+06 1.283E+06 1.283E+06 3.384E+07 37.7543 1.00000
  1.778E+12 1.778E+12 5.134E+00 1.015E+04 1.801E+05 1.277E+06 1.467E+06 1.467E+06 3.398E+07 37.9846 1.00000
  1.995E+12 1.995E+12 5.158E+00 1.139E+04 2.021E+05 1.464E+06 1.678E+06 1.678E+06 3.412E+07 38.2148 1.00000
  2.239E+12 2.239E+12 5.182E+00 1.278E+04 2.267E+05 1.679E+06 1.919E+06 1.919E+06 3.425E+07 38.4451 1.00000
  2.512E+12 2.512E+12 5.206E+00 1.434E+04 2.544E+05 1.926E+06 2.194E+06 2.195E+06 3.439E+07 38.6753 1.00000
  2.818E+12 2.818E+12 5.231E+00 1.609E+04 2.854E+05 2.209E+06 2.510E+06 2.510E+06 3.452E+07 38.9056 1.00000
  3.162E+12 3.162E+12 5.256E+00 1.806E+04 3.202E+05 2.533E+06 2.871E+06 2.871E+06 3.465E+07 39.1359 1.00000
  3.548E+12 3.548E+12 5.280E+00 2.026E+04 3.593E+05 2.906E+06 3.285E+06 3.285E+06 3.477E+07 39.3661 1.00000
  3.981E+12 3.981E+12 5.305E+00 2.273E+04 4.031E+05 3.333E+06 3.759E+06 3.759E+06 3.489E+07 39.5964 1.00000
  4.467E+12 4.467E+12 5.330E+00 2.551E+04 4.522E+05 3.823E+06 4.301E+06 4.301E+06 3.502E+07 39.8266 1.00000
  5.012E+12 5.012E+12 5.356E+00 2.862E+04 5.074E+05 4.386E+06 4.922E+06 4.922E+06 3.513E+07 40.0569 1.00000
  5.623E+12 5.623E+12 5.381E+00 3.211E+04 5.693E+05 5.032E+06 5.633E+06 5.633E+06 3.525E+07 40.2872 1.00000
  6.310E+12 6.310E+12 5.406E+00 3.603E+04 6.387E+05 5.773E+06 6.448E+06 6.448E+06 3.537E+07 40.5174 1.00000
  7.079E+12 7.079E+12 5.432E+00 4.043E+04 7.166E+05 6.624E+06 7.381E+06 7.381E+06 3.548E+07 40.7477 1.00000
  7.943E+12 7.943E+12 5.458E+00 4.536E+04 8.040E+05 7.600E+06 8.449E+06 8.449E+06 3.559E+07 40.9779 1.00000
  8.913E+12 8.913E+12 5.484E+00 5.089E+04 9.021E+05 8.721E+06 9.674E+06 9.674E+06 3.569E+07 41.2082 1.00000
  1.000E+13 1.000E+13 5.510E+00 5.710E+04 1.012E+06 1.001E+07 1.108E+07 1.108E+07 3.580E+07 41.4385 1.00000
  1.122E+13 1.122E+13 5.536E+00 6.407E+04 1.136E+06 1.148E+07 1.268E+07 1.268E+07 3.590E+07 41.6687 1.00000
  1.259E+13 1.259E+13 5.562E+00 7.189E+04 1.274E+06 1.318E+07 1.453E+07 1.453E+07 3.600E+07 41.8990 1.00000
  1.413E+13 1.413E+13 5.589E+00 8.066E+04 1.429E+06 1.513E+07 1.664E+07 1.664E+07 3.610E+07 42.1292 1.00000
  1.585E+13 1.585E+13 5.615E+00 9.051E+04 1.604E+06 1.736E+07 1.905E+07 1.905E+07 3.620E+07 42.3595 1.00000
  1.778E+13 1.778E+13 5.642E+00 1.016E+05 1.799E+06 1.993E+07 2.183E+07 2.183E+07 3.629E+07 42.5897 1.00000
  1.995E+13 1.995E+13 5.669E+00 1.139E+05 2.019E+06 2.287E+07 2.501E+07 2.501E+07 3.639E+07 42.8200 1.00000
  2.239E+13 2.239E+13 5.696E+00 1.278E+05 2.265E+06 2.626E+07 2.865E+07 2.865E+07 3.648E+07 43.0503 1.00000
  2.512E+13 2.512E+13 5.723E+00 1.434E+05 2.541E+06 3.014E+07 3.282E+07 3.282E+07 3.657E+07 43.2805 1.00000
  2.818E+13 2.818E+13 5.751E+00 1.610E+05 2.851E+06 3.460E+07 3.761E+07 3.761E+07 3.666E+07 43.5108 1.00000
  3.162E+13 3.162E+13 5.778E+00 1.806E+05 3.199E+06 3.972E+07 4.310E+07 4.310E+07 3.674E+07 43.7410 1.00000
  3.548E+13 3.548E+13 5.806E+00 2.026E+05 3.589E+06 4.561E+07 4.940E+07 4.940E+07 3.683E+07 43.9713 1.00000
  3.981E+13 3.981E+13 5.834E+00 2.274E+05 4.027E+06 5.237E+07 5.662E+07 5.662E+07 3.691E+07 44.2016 1.00000
  4.467E+13 4.467E+13 5.862E+00 2.551E+05 4.518E+06 6.013E+07 6.490E+07 6.490E+07 3.699E+07 44.4318 1.00000
  5.012E+13 5.012E+13 5.890E+00 2.862E+05 5.069E+06 6.905E+07 7.440E+07 7.440E+07 3.707E+07 44.6621 1.00000
  5.623E+13 5.623E+13 5.918E+00 3.211E+05 5.687E+06 7.929E+07 8.530E+07 8.530E+07 3.714E+07 44.8923 1.00000
  6.310E+13 6.310E+13 5.946E+00 3.603E+05 6.380E+06 9.106E+07 9.780E+07 9.780E+07 3.722E+07 45.1226 1.00000
  7.079E+13 7.079E+13 5.975E+00 4.043E+05 7.159E+06 1.046E+08 1.121E+08 1.121E+08 3.729E+07 45.3528 1.00000
  7.943E+13 7.943E+13 6.004E+00 4.536E+05 8.032E+06 1.201E+08 1.286E+08 1.286E+08 3.736E+07 45.5831 1.00000
  8.913E+13 8.913E+13 6.032E+00 5.090E+05 9.011E+06 1.379E+08 1.475E+08 1.475E+08 3.743E+07 45.8134 1.00000
