 Incident particle is a Tau with M = 1776.82000 MeV
 Index = 0: Sucrose
      Absorber with <Z/A> = 0.53165
 Sternheimer coef:  a     k=m_s   x_0    x_1    I[eV]   Cbar  delta0
                 0.1130  3.3630  0.1341  2.6558   77.5  3.1526 0.00

 *** Table generated with PUMAS v1.00 ***

      T         p     Ionization  brems     pair     photonuc  Radloss    dE/dx   CSDA Range  delta   beta
    [MeV]    [MeV/c]  -----------------------[MeV cm^2/g]------------------------  [g/cm^2]
  1.000E+05 1.018E+05 2.309E+00 1.345E-04 2.091E-03 8.369E-03 1.059E-02 2.320E+00 2.156E+04  5.0217 0.99985
  1.122E+05 1.140E+05 2.329E+00 1.553E-04 2.525E-03 9.453E-03 1.213E-02 2.341E+00 2.679E+04  5.2346 0.99988
  1.259E+05 1.277E+05 2.349E+00 1.793E-04 3.038E-03 1.062E-02 1.384E-02 2.363E+00 3.261E+04  5.4497 0.99990
  1.413E+05 1.430E+05 2.369E+00 2.069E-04 3.643E-03 1.194E-02 1.579E-02 2.385E+00 3.908E+04  5.6667 0.99992
  1.585E+05 1.603E+05 2.389E+00 2.387E-04 4.354E-03 1.341E-02 1.800E-02 2.407E+00 4.628E+04  5.8855 0.99994
  1.778E+05 1.796E+05 2.409E+00 2.752E-04 5.188E-03 1.505E-02 2.052E-02 2.429E+00 5.428E+04  6.1059 0.99995
  1.995E+05 2.013E+05 2.429E+00 3.172E-04 6.166E-03 1.693E-02 2.342E-02 2.452E+00 6.317E+04  6.3278 0.99996
  2.239E+05 2.256E+05 2.448E+00 3.654E-04 7.309E-03 1.898E-02 2.666E-02 2.475E+00 7.305E+04  6.5510 0.99997
  2.512E+05 2.530E+05 2.468E+00 4.207E-04 8.643E-03 2.129E-02 3.035E-02 2.498E+00 8.403E+04  6.7754 0.99998
  2.818E+05 2.836E+05 2.488E+00 4.842E-04 1.020E-02 2.388E-02 3.456E-02 2.522E+00 9.624E+04  7.0008 0.99998
  3.162E+05 3.180E+05 2.507E+00 5.571E-04 1.200E-02 2.681E-02 3.937E-02 2.547E+00 1.098E+05  7.2272 0.99998
  3.548E+05 3.566E+05 2.527E+00 6.406E-04 1.410E-02 3.010E-02 4.484E-02 2.572E+00 1.249E+05  7.4543 0.99999
  3.981E+05 3.999E+05 2.546E+00 7.364E-04 1.653E-02 3.378E-02 5.105E-02 2.597E+00 1.416E+05  7.6821 0.99999
  4.467E+05 4.485E+05 2.566E+00 8.463E-04 1.934E-02 3.790E-02 5.809E-02 2.624E+00 1.602E+05  7.9105 0.99999
  5.012E+05 5.030E+05 2.585E+00 9.721E-04 2.260E-02 4.254E-02 6.611E-02 2.651E+00 1.809E+05  8.1393 0.99999
  5.623E+05 5.641E+05 2.604E+00 1.116E-03 2.635E-02 4.757E-02 7.504E-02 2.679E+00 2.039E+05  8.3685 1.00000
  6.310E+05 6.327E+05 2.623E+00 1.281E-03 3.068E-02 5.325E-02 8.520E-02 2.708E+00 2.293E+05  8.5979 1.00000
  7.079E+05 7.097E+05 2.642E+00 1.470E-03 3.566E-02 5.965E-02 9.678E-02 2.739E+00 2.576E+05  8.8275 1.00000
  7.943E+05 7.961E+05 2.661E+00 1.687E-03 4.139E-02 6.688E-02 1.100E-01 2.771E+00 2.890E+05  9.0572 1.00000
  8.913E+05 8.930E+05 2.680E+00 1.934E-03 4.797E-02 7.505E-02 1.250E-01 2.805E+00 3.237E+05  9.2870 1.00000
  1.000E+06 1.002E+06 2.699E+00 2.217E-03 5.552E-02 8.430E-02 1.420E-01 2.841E+00 3.622E+05  9.5168 1.00000
  1.122E+06 1.124E+06 2.718E+00 2.541E-03 6.417E-02 9.477E-02 1.615E-01 2.879E+00 4.049E+05  9.7467 1.00000
  1.259E+06 1.261E+06 2.737E+00 2.912E-03 7.408E-02 1.066E-01 1.836E-01 2.920E+00 4.521E+05  9.9766 1.00000
  1.413E+06 1.414E+06 2.755E+00 3.335E-03 8.541E-02 1.201E-01 2.088E-01 2.964E+00 5.043E+05 10.2065 1.00000
  1.585E+06 1.587E+06 2.774E+00 3.819E-03 9.835E-02 1.353E-01 2.375E-01 3.011E+00 5.620E+05 10.4365 1.00000
  1.778E+06 1.780E+06 2.792E+00 4.372E-03 1.131E-01 1.526E-01 2.701E-01 3.062E+00 6.257E+05 10.6665 1.00000
  1.995E+06 1.997E+06 2.810E+00 5.004E-03 1.300E-01 1.722E-01 3.072E-01 3.117E+00 6.959E+05 10.8966 1.00000
  2.239E+06 2.240E+06 2.828E+00 5.726E-03 1.492E-01 1.945E-01 3.494E-01 3.178E+00 7.733E+05 11.1267 1.00000
  2.512E+06 2.514E+06 2.846E+00 6.551E-03 1.710E-01 2.199E-01 3.974E-01 3.243E+00 8.584E+05 11.3567 1.00000
  2.818E+06 2.820E+06 2.864E+00 7.492E-03 1.958E-01 2.487E-01 4.520E-01 3.316E+00 9.519E+05 11.5868 1.00000
  3.162E+06 3.164E+06 2.881E+00 8.566E-03 2.240E-01 2.814E-01 5.140E-01 3.395E+00 1.054E+06 11.8170 1.00000
  3.548E+06 3.550E+06 2.899E+00 9.791E-03 2.561E-01 3.187E-01 5.846E-01 3.483E+00 1.167E+06 12.0471 1.00000
  3.981E+06 3.983E+06 2.916E+00 1.119E-02 2.924E-01 3.611E-01 6.647E-01 3.581E+00 1.289E+06 12.2773 1.00000
  4.467E+06 4.469E+06 2.933E+00 1.278E-02 3.336E-01 4.093E-01 7.557E-01 3.689E+00 1.423E+06 12.5074 1.00000
  5.012E+06 5.014E+06 2.950E+00 1.460E-02 3.803E-01 4.642E-01 8.592E-01 3.809E+00 1.568E+06 12.7376 1.00000
  5.623E+06 5.625E+06 2.967E+00 1.668E-02 4.332E-01 5.268E-01 9.766E-01 3.943E+00 1.726E+06 12.9678 1.00000
  6.310E+06 6.311E+06 2.983E+00 1.904E-02 4.930E-01 5.980E-01 1.110E+00 4.093E+00 1.897E+06 13.1980 1.00000
  7.079E+06 7.081E+06 2.999E+00 2.173E-02 5.606E-01 6.791E-01 1.262E+00 4.261E+00 2.081E+06 13.4282 1.00000
  7.943E+06 7.945E+06 3.016E+00 2.480E-02 6.371E-01 7.716E-01 1.433E+00 4.449E+00 2.280E+06 13.6584 1.00000
  8.913E+06 8.914E+06 3.032E+00 2.829E-02 7.234E-01 8.770E-01 1.629E+00 4.660E+00 2.493E+06 13.8886 1.00000
  1.000E+07 1.000E+07 3.048E+00 3.226E-02 8.209E-01 9.971E-01 1.850E+00 4.898E+00 2.720E+06 14.1188 1.00000
  1.122E+07 1.122E+07 3.063E+00 3.678E-02 9.309E-01 1.134E+00 2.102E+00 5.165E+00 2.963E+06 14.3490 1.00000
  1.259E+07 1.259E+07 3.079E+00 4.193E-02 1.055E+00 1.290E+00 2.387E+00 5.466E+00 3.221E+06 14.5792 1.00000
  1.413E+07 1.413E+07 3.095E+00 4.778E-02 1.195E+00 1.468E+00 2.711E+00 5.805E+00 3.494E+06 14.8095 1.00000
  1.585E+07 1.585E+07 3.110E+00 5.443E-02 1.353E+00 1.671E+00 3.078E+00 6.188E+00 3.781E+06 15.0397 1.00000
  1.778E+07 1.778E+07 3.125E+00 6.200E-02 1.530E+00 1.903E+00 3.495E+00 6.620E+00 4.084E+06 15.2699 1.00000
  1.995E+07 1.995E+07 3.140E+00 7.059E-02 1.731E+00 2.167E+00 3.968E+00 7.108E+00 4.400E+06 15.5002 1.00000
  2.239E+07 2.239E+07 3.155E+00 8.036E-02 1.956E+00 2.468E+00 4.504E+00 7.660E+00 4.730E+06 15.7304 1.00000
  2.512E+07 2.512E+07 3.170E+00 9.145E-02 2.210E+00 2.812E+00 5.113E+00 8.283E+00 5.073E+06 15.9606 1.00000
  2.818E+07 2.819E+07 3.185E+00 1.040E-01 2.495E+00 3.204E+00 5.803E+00 8.989E+00 5.429E+06 16.1909 1.00000
  3.162E+07 3.162E+07 3.200E+00 1.183E-01 2.816E+00 3.652E+00 6.587E+00 9.787E+00 5.796E+06 16.4211 1.00000
  3.548E+07 3.548E+07 3.215E+00 1.345E-01 3.177E+00 4.163E+00 7.475E+00 1.069E+01 6.174E+06 16.6514 1.00000
  3.981E+07 3.981E+07 3.230E+00 1.529E-01 3.584E+00 4.746E+00 8.483E+00 1.171E+01 6.561E+06 16.8816 1.00000
  4.467E+07 4.467E+07 3.245E+00 1.738E-01 4.040E+00 5.412E+00 9.626E+00 1.287E+01 6.957E+06 17.1119 1.00000
  5.012E+07 5.012E+07 3.259E+00 1.974E-01 4.554E+00 6.172E+00 1.092E+01 1.418E+01 7.361E+06 17.3421 1.00000
  5.623E+07 5.624E+07 3.274E+00 2.242E-01 5.131E+00 7.039E+00 1.239E+01 1.567E+01 7.772E+06 17.5724 1.00000
  6.310E+07 6.310E+07 3.289E+00 2.546E-01 5.779E+00 8.029E+00 1.406E+01 1.735E+01 8.188E+06 17.8026 1.00000
  7.079E+07 7.080E+07 3.304E+00 2.890E-01 6.507E+00 9.160E+00 1.596E+01 1.926E+01 8.610E+06 18.0329 1.00000
  7.943E+07 7.943E+07 3.319E+00 3.280E-01 7.326E+00 1.045E+01 1.810E+01 2.142E+01 9.036E+06 18.2631 1.00000
  8.913E+07 8.913E+07 3.333E+00 3.720E-01 8.245E+00 1.193E+01 2.054E+01 2.388E+01 9.465E+06 18.4934 1.00000
  1.000E+08 1.000E+08 3.348E+00 4.219E-01 9.277E+00 1.361E+01 2.331E+01 2.666E+01 9.897E+06 18.7236 1.00000
  1.122E+08 1.122E+08 3.363E+00 4.783E-01 1.044E+01 1.553E+01 2.645E+01 2.981E+01 1.033E+07 18.9539 1.00000
  1.259E+08 1.259E+08 3.378E+00 5.421E-01 1.174E+01 1.773E+01 3.001E+01 3.339E+01 1.076E+07 19.1841 1.00000
  1.413E+08 1.413E+08 3.393E+00 6.143E-01 1.320E+01 2.024E+01 3.405E+01 3.744E+01 1.120E+07 19.4144 1.00000
  1.585E+08 1.585E+08 3.408E+00 6.959E-01 1.484E+01 2.310E+01 3.864E+01 4.205E+01 1.164E+07 19.6447 1.00000
  1.778E+08 1.778E+08 3.423E+00 7.881E-01 1.668E+01 2.637E+01 4.385E+01 4.727E+01 1.207E+07 19.8749 1.00000
  1.995E+08 1.995E+08 3.438E+00 8.922E-01 1.875E+01 3.011E+01 4.976E+01 5.319E+01 1.250E+07 20.1052 1.00000
  2.239E+08 2.239E+08 3.453E+00 1.010E+00 2.108E+01 3.438E+01 5.647E+01 5.992E+01 1.294E+07 20.3354 1.00000
  2.512E+08 2.512E+08 3.468E+00 1.143E+00 2.368E+01 3.926E+01 6.409E+01 6.755E+01 1.337E+07 20.5657 1.00000
  2.818E+08 2.818E+08 3.484E+00 1.293E+00 2.661E+01 4.484E+01 7.274E+01 7.622E+01 1.379E+07 20.7959 1.00000
  3.162E+08 3.162E+08 3.499E+00 1.462E+00 2.989E+01 5.121E+01 8.256E+01 8.606E+01 1.422E+07 21.0262 1.00000
  3.548E+08 3.548E+08 3.514E+00 1.653E+00 3.358E+01 5.849E+01 9.372E+01 9.723E+01 1.464E+07 21.2565 1.00000
  3.981E+08 3.981E+08 3.530E+00 1.868E+00 3.772E+01 6.680E+01 1.064E+02 1.099E+02 1.506E+07 21.4867 1.00000
  4.467E+08 4.467E+08 3.546E+00 2.111E+00 4.236E+01 7.631E+01 1.208E+02 1.243E+02 1.548E+07 21.7170 1.00000
  5.012E+08 5.012E+08 3.561E+00 2.384E+00 4.757E+01 8.717E+01 1.371E+02 1.407E+02 1.589E+07 21.9472 1.00000
  5.623E+08 5.623E+08 3.577E+00 2.693E+00 5.342E+01 9.959E+01 1.557E+02 1.593E+02 1.630E+07 22.1775 1.00000
  6.310E+08 6.310E+08 3.593E+00 3.040E+00 5.998E+01 1.138E+02 1.768E+02 1.804E+02 1.670E+07 22.4077 1.00000
  7.079E+08 7.079E+08 3.609E+00 3.432E+00 6.734E+01 1.300E+02 2.008E+02 2.044E+02 1.711E+07 22.6380 1.00000
  7.943E+08 7.943E+08 3.625E+00 3.873E+00 7.561E+01 1.485E+02 2.280E+02 2.316E+02 1.750E+07 22.8683 1.00000
  8.913E+08 8.913E+08 3.641E+00 4.370E+00 8.488E+01 1.697E+02 2.590E+02 2.626E+02 1.790E+07 23.0985 1.00000
  1.000E+09 1.000E+09 3.657E+00 4.929E+00 9.528E+01 1.940E+02 2.942E+02 2.978E+02 1.829E+07 23.3288 1.00000
  1.122E+09 1.122E+09 3.673E+00 5.559E+00 1.070E+02 2.217E+02 3.342E+02 3.379E+02 1.867E+07 23.5590 1.00000
  1.259E+09 1.259E+09 3.689E+00 6.267E+00 1.201E+02 2.533E+02 3.797E+02 3.834E+02 1.905E+07 23.7893 1.00000
  1.413E+09 1.413E+09 3.706E+00 7.065E+00 1.348E+02 2.896E+02 4.314E+02 4.351E+02 1.943E+07 24.0195 1.00000
  1.585E+09 1.585E+09 3.722E+00 7.962E+00 1.513E+02 3.310E+02 4.902E+02 4.939E+02 1.980E+07 24.2498 1.00000
  1.778E+09 1.778E+09 3.739E+00 8.971E+00 1.698E+02 3.783E+02 5.571E+02 5.608E+02 2.017E+07 24.4801 1.00000
  1.995E+09 1.995E+09 3.755E+00 1.011E+01 1.905E+02 4.325E+02 6.331E+02 6.369E+02 2.054E+07 24.7103 1.00000
  2.239E+09 2.239E+09 3.772E+00 1.138E+01 2.139E+02 4.944E+02 7.197E+02 7.234E+02 2.090E+07 24.9406 1.00000
  2.512E+09 2.512E+09 3.789E+00 1.282E+01 2.400E+02 5.653E+02 8.181E+02 8.219E+02 2.125E+07 25.1708 1.00000
  2.818E+09 2.818E+09 3.806E+00 1.443E+01 2.693E+02 6.463E+02 9.300E+02 9.339E+02 2.160E+07 25.4011 1.00000
  3.162E+09 3.162E+09 3.823E+00 1.625E+01 3.023E+02 7.389E+02 1.057E+03 1.061E+03 2.195E+07 25.6314 1.00000
  3.548E+09 3.548E+09 3.840E+00 1.829E+01 3.392E+02 8.449E+02 1.202E+03 1.206E+03 2.229E+07 25.8616 1.00000
  3.981E+09 3.981E+09 3.857E+00 2.058E+01 3.807E+02 9.662E+02 1.367E+03 1.371E+03 2.263E+07 26.0919 1.00000
  4.467E+09 4.467E+09 3.874E+00 2.315E+01 4.272E+02 1.105E+03 1.555E+03 1.559E+03 2.296E+07 26.3221 1.00000
  5.012E+09 5.012E+09 3.892E+00 2.604E+01 4.794E+02 1.264E+03 1.769E+03 1.773E+03 2.329E+07 26.5524 1.00000
  5.623E+09 5.623E+09 3.909E+00 2.929E+01 5.379E+02 1.445E+03 2.012E+03 2.016E+03 2.361E+07 26.7826 1.00000
  6.310E+09 6.310E+09 3.927E+00 3.295E+01 6.036E+02 1.653E+03 2.289E+03 2.293E+03 2.393E+07 27.0129 1.00000
  7.079E+09 7.079E+09 3.945E+00 3.705E+01 6.773E+02 1.891E+03 2.605E+03 2.609E+03 2.425E+07 27.2432 1.00000
  7.943E+09 7.943E+09 3.962E+00 4.165E+01 7.600E+02 2.163E+03 2.964E+03 2.968E+03 2.456E+07 27.4734 1.00000
  8.913E+09 8.913E+09 3.980E+00 4.683E+01 8.528E+02 2.474E+03 3.374E+03 3.377E+03 2.486E+07 27.7037 1.00000
  1.000E+10 1.000E+10 3.998E+00 5.264E+01 9.570E+02 2.830E+03 3.840E+03 3.844E+03 2.517E+07 27.9339 1.00000
  1.122E+10 1.122E+10 4.016E+00 5.916E+01 1.074E+03 3.238E+03 4.371E+03 4.375E+03 2.547E+07 28.1642 1.00000
  1.259E+10 1.259E+10 4.035E+00 6.649E+01 1.205E+03 3.704E+03 4.976E+03 4.980E+03 2.576E+07 28.3945 1.00000
  1.413E+10 1.413E+10 4.053E+00 7.471E+01 1.352E+03 4.238E+03 5.665E+03 5.669E+03 2.605E+07 28.6247 1.00000
  1.585E+10 1.585E+10 4.071E+00 8.395E+01 1.517E+03 4.850E+03 6.451E+03 6.455E+03 2.633E+07 28.8550 1.00000
  1.778E+10 1.778E+10 4.090E+00 9.432E+01 1.702E+03 5.549E+03 7.346E+03 7.350E+03 2.662E+07 29.0852 1.00000
  1.995E+10 1.995E+10 4.108E+00 1.060E+02 1.910E+03 6.350E+03 8.366E+03 8.370E+03 2.689E+07 29.3155 1.00000
  2.239E+10 2.239E+10 4.127E+00 1.190E+02 2.143E+03 7.267E+03 9.529E+03 9.533E+03 2.717E+07 29.5458 1.00000
  2.512E+10 2.512E+10 4.146E+00 1.337E+02 2.404E+03 8.317E+03 1.086E+04 1.086E+04 2.744E+07 29.7760 1.00000
  2.818E+10 2.818E+10 4.165E+00 1.501E+02 2.698E+03 9.519E+03 1.237E+04 1.237E+04 2.770E+07 30.0063 1.00000
  3.162E+10 3.162E+10 4.184E+00 1.686E+02 3.027E+03 1.090E+04 1.409E+04 1.410E+04 2.796E+07 30.2365 1.00000
  3.548E+10 3.548E+10 4.203E+00 1.894E+02 3.396E+03 1.247E+04 1.606E+04 1.606E+04 2.822E+07 30.4668 1.00000
  3.981E+10 3.981E+10 4.222E+00 2.126E+02 3.811E+03 1.428E+04 1.830E+04 1.830E+04 2.847E+07 30.6970 1.00000
  4.467E+10 4.467E+10 4.242E+00 2.388E+02 4.276E+03 1.634E+04 2.086E+04 2.086E+04 2.872E+07 30.9273 1.00000
  5.012E+10 5.012E+10 4.261E+00 2.681E+02 4.798E+03 1.871E+04 2.378E+04 2.378E+04 2.897E+07 31.1576 1.00000
  5.623E+10 5.623E+10 4.281E+00 3.010E+02 5.383E+03 2.142E+04 2.711E+04 2.711E+04 2.921E+07 31.3878 1.00000
  6.310E+10 6.310E+10 4.300E+00 3.379E+02 6.040E+03 2.453E+04 3.090E+04 3.091E+04 2.944E+07 31.6181 1.00000
  7.079E+10 7.079E+10 4.320E+00 3.794E+02 6.777E+03 2.808E+04 3.524E+04 3.524E+04 2.968E+07 31.8483 1.00000
  7.943E+10 7.943E+10 4.340E+00 4.259E+02 7.603E+03 3.216E+04 4.019E+04 4.019E+04 2.991E+07 32.0786 1.00000
  8.913E+10 8.913E+10 4.360E+00 4.781E+02 8.531E+03 3.682E+04 4.583E+04 4.584E+04 3.013E+07 32.3089 1.00000
  1.000E+11 1.000E+11 4.380E+00 5.366E+02 9.572E+03 4.217E+04 5.228E+04 5.228E+04 3.036E+07 32.5391 1.00000
  1.122E+11 1.122E+11 4.401E+00 6.023E+02 1.074E+04 4.829E+04 5.964E+04 5.964E+04 3.058E+07 32.7694 1.00000
  1.259E+11 1.259E+11 4.421E+00 6.761E+02 1.205E+04 5.531E+04 6.804E+04 6.804E+04 3.079E+07 32.9996 1.00000
  1.413E+11 1.413E+11 4.441E+00 7.588E+02 1.352E+04 6.335E+04 7.763E+04 7.763E+04 3.100E+07 33.2299 1.00000
  1.585E+11 1.585E+11 4.462E+00 8.517E+02 1.517E+04 7.256E+04 8.858E+04 8.859E+04 3.121E+07 33.4601 1.00000
  1.778E+11 1.778E+11 4.483E+00 9.559E+02 1.702E+04 8.312E+04 1.011E+05 1.011E+05 3.142E+07 33.6904 1.00000
  1.995E+11 1.995E+11 4.504E+00 1.073E+03 1.910E+04 9.522E+04 1.154E+05 1.154E+05 3.162E+07 33.9207 1.00000
  2.239E+11 2.239E+11 4.525E+00 1.204E+03 2.142E+04 1.091E+05 1.317E+05 1.317E+05 3.182E+07 34.1509 1.00000
  2.512E+11 2.512E+11 4.546E+00 1.351E+03 2.404E+04 1.250E+05 1.504E+05 1.504E+05 3.201E+07 34.3812 1.00000
  2.818E+11 2.818E+11 4.567E+00 1.516E+03 2.697E+04 1.432E+05 1.717E+05 1.717E+05 3.220E+07 34.6114 1.00000
  3.162E+11 3.162E+11 4.588E+00 1.702E+03 3.026E+04 1.641E+05 1.960E+05 1.960E+05 3.239E+07 34.8417 1.00000
  3.548E+11 3.548E+11 4.610E+00 1.910E+03 3.395E+04 1.880E+05 2.238E+05 2.238E+05 3.257E+07 35.0720 1.00000
  3.981E+11 3.981E+11 4.631E+00 2.143E+03 3.809E+04 2.154E+05 2.556E+05 2.557E+05 3.276E+07 35.3022 1.00000
  4.467E+11 4.467E+11 4.653E+00 2.405E+03 4.274E+04 2.468E+05 2.920E+05 2.920E+05 3.293E+07 35.5325 1.00000
  5.012E+11 5.012E+11 4.675E+00 2.699E+03 4.795E+04 2.829E+05 3.335E+05 3.336E+05 3.311E+07 35.7627 1.00000
  5.623E+11 5.623E+11 4.696E+00 3.028E+03 5.380E+04 3.242E+05 3.810E+05 3.811E+05 3.328E+07 35.9930 1.00000
  6.310E+11 6.310E+11 4.718E+00 3.398E+03 6.037E+04 3.716E+05 4.354E+05 4.354E+05 3.345E+07 36.2232 1.00000
  7.079E+11 7.079E+11 4.741E+00 3.813E+03 6.773E+04 4.259E+05 4.975E+05 4.975E+05 3.361E+07 36.4535 1.00000
  7.943E+11 7.943E+11 4.763E+00 4.279E+03 7.599E+04 4.882E+05 5.685E+05 5.685E+05 3.378E+07 36.6838 1.00000
  8.913E+11 8.913E+11 4.785E+00 4.801E+03 8.526E+04 5.596E+05 6.497E+05 6.497E+05 3.394E+07 36.9140 1.00000
  1.000E+12 1.000E+12 4.808E+00 5.387E+03 9.566E+04 6.416E+05 7.426E+05 7.426E+05 3.409E+07 37.1443 1.00000
  1.122E+12 1.122E+12 4.830E+00 6.045E+03 1.073E+05 7.355E+05 8.489E+05 8.489E+05 3.425E+07 37.3745 1.00000
  1.259E+12 1.259E+12 4.853E+00 6.783E+03 1.204E+05 8.432E+05 9.704E+05 9.705E+05 3.440E+07 37.6048 1.00000
  1.413E+12 1.413E+12 4.876E+00 7.611E+03 1.351E+05 9.668E+05 1.110E+06 1.110E+06 3.455E+07 37.8351 1.00000
  1.585E+12 1.585E+12 4.899E+00 8.540E+03 1.516E+05 1.109E+06 1.269E+06 1.269E+06 3.469E+07 38.0653 1.00000
  1.778E+12 1.778E+12 4.922E+00 9.583E+03 1.701E+05 1.271E+06 1.451E+06 1.451E+06 3.484E+07 38.2956 1.00000
  1.995E+12 1.995E+12 4.946E+00 1.075E+04 1.908E+05 1.458E+06 1.659E+06 1.659E+06 3.498E+07 38.5258 1.00000
  2.239E+12 2.239E+12 4.969E+00 1.207E+04 2.141E+05 1.672E+06 1.898E+06 1.898E+06 3.511E+07 38.7561 1.00000
  2.512E+12 2.512E+12 4.993E+00 1.354E+04 2.402E+05 1.917E+06 2.171E+06 2.171E+06 3.525E+07 38.9863 1.00000
  2.818E+12 2.818E+12 5.016E+00 1.519E+04 2.695E+05 2.199E+06 2.483E+06 2.483E+06 3.538E+07 39.2166 1.00000
  3.162E+12 3.162E+12 5.040E+00 1.704E+04 3.024E+05 2.522E+06 2.841E+06 2.841E+06 3.551E+07 39.4469 1.00000
  3.548E+12 3.548E+12 5.064E+00 1.912E+04 3.393E+05 2.892E+06 3.251E+06 3.251E+06 3.564E+07 39.6771 1.00000
  3.981E+12 3.981E+12 5.088E+00 2.146E+04 3.807E+05 3.318E+06 3.720E+06 3.720E+06 3.576E+07 39.9074 1.00000
  4.467E+12 4.467E+12 5.112E+00 2.408E+04 4.271E+05 3.806E+06 4.257E+06 4.257E+06 3.589E+07 40.1376 1.00000
  5.012E+12 5.012E+12 5.137E+00 2.702E+04 4.792E+05 4.366E+06 4.872E+06 4.872E+06 3.601E+07 40.3679 1.00000
  5.623E+12 5.623E+12 5.161E+00 3.031E+04 5.376E+05 5.009E+06 5.577E+06 5.577E+06 3.612E+07 40.5982 1.00000
  6.310E+12 6.310E+12 5.186E+00 3.401E+04 6.032E+05 5.747E+06 6.384E+06 6.384E+06 3.624E+07 40.8284 1.00000
  7.079E+12 7.079E+12 5.210E+00 3.816E+04 6.768E+05 6.593E+06 7.308E+06 7.308E+06 3.635E+07 41.0587 1.00000
  7.943E+12 7.943E+12 5.235E+00 4.282E+04 7.593E+05 7.565E+06 8.367E+06 8.367E+06 3.646E+07 41.2889 1.00000
  8.913E+12 8.913E+12 5.260E+00 4.804E+04 8.519E+05 8.681E+06 9.581E+06 9.581E+06 3.657E+07 41.5192 1.00000
  1.000E+13 1.000E+13 5.285E+00 5.391E+04 9.558E+05 9.962E+06 1.097E+07 1.097E+07 3.668E+07 41.7495 1.00000
  1.122E+13 1.122E+13 5.311E+00 6.048E+04 1.072E+06 1.143E+07 1.256E+07 1.256E+07 3.678E+07 41.9797 1.00000
  1.259E+13 1.259E+13 5.336E+00 6.786E+04 1.203E+06 1.312E+07 1.439E+07 1.439E+07 3.688E+07 42.2100 1.00000
  1.413E+13 1.413E+13 5.362E+00 7.615E+04 1.350E+06 1.506E+07 1.648E+07 1.648E+07 3.698E+07 42.4402 1.00000
  1.585E+13 1.585E+13 5.387E+00 8.544E+04 1.515E+06 1.728E+07 1.888E+07 1.888E+07 3.708E+07 42.6705 1.00000
  1.778E+13 1.778E+13 5.413E+00 9.586E+04 1.699E+06 1.984E+07 2.163E+07 2.163E+07 3.718E+07 42.9007 1.00000
  1.995E+13 1.995E+13 5.439E+00 1.076E+05 1.906E+06 2.277E+07 2.478E+07 2.478E+07 3.727E+07 43.1310 1.00000
  2.239E+13 2.239E+13 5.465E+00 1.207E+05 2.139E+06 2.614E+07 2.840E+07 2.840E+07 3.736E+07 43.3613 1.00000
  2.512E+13 2.512E+13 5.492E+00 1.354E+05 2.400E+06 3.000E+07 3.254E+07 3.254E+07 3.745E+07 43.5915 1.00000
  2.818E+13 2.818E+13 5.518E+00 1.519E+05 2.693E+06 3.444E+07 3.729E+07 3.729E+07 3.754E+07 43.8218 1.00000
  3.162E+13 3.162E+13 5.545E+00 1.705E+05 3.021E+06 3.954E+07 4.274E+07 4.274E+07 3.763E+07 44.0520 1.00000
  3.548E+13 3.548E+13 5.571E+00 1.913E+05 3.389E+06 4.540E+07 4.898E+07 4.898E+07 3.771E+07 44.2823 1.00000
  3.981E+13 3.981E+13 5.598E+00 2.146E+05 3.803E+06 5.213E+07 5.615E+07 5.615E+07 3.779E+07 44.5126 1.00000
  4.467E+13 4.467E+13 5.625E+00 2.408E+05 4.266E+06 5.986E+07 6.436E+07 6.436E+07 3.788E+07 44.7428 1.00000
  5.012E+13 5.012E+13 5.652E+00 2.702E+05 4.787E+06 6.873E+07 7.379E+07 7.379E+07 3.795E+07 44.9731 1.00000
  5.623E+13 5.623E+13 5.679E+00 3.032E+05 5.371E+06 7.893E+07 8.460E+07 8.460E+07 3.803E+07 45.2033 1.00000
  6.310E+13 6.310E+13 5.707E+00 3.401E+05 6.026E+06 9.064E+07 9.701E+07 9.701E+07 3.811E+07 45.4336 1.00000
  7.079E+13 7.079E+13 5.734E+00 3.817E+05 6.760E+06 1.041E+08 1.112E+08 1.112E+08 3.818E+07 45.6638 1.00000
  7.943E+13 7.943E+13 5.762E+00 4.282E+05 7.585E+06 1.196E+08 1.276E+08 1.276E+08 3.826E+07 45.8941 1.00000
  8.913E+13 8.913E+13 5.790E+00 4.805E+05 8.510E+06 1.373E+08 1.463E+08 1.463E+08 3.833E+07 46.1244 1.00000
