 Incident particle is a Tau with M = 1776.82000 MeV
 Index = 0: Sulfur
      Absorber with <Z/A> = 0.49898
 Sternheimer coef:  a     k=m_s   x_0    x_1    I[eV]   Cbar  delta0
                 0.3399  2.6456  0.1580  2.7159  180.0  4.6659 0.14

 *** Table generated with PUMAS v1.00 ***

      T         p     Ionization  brems     pair     photonuc  Radloss    dE/dx   CSDA Range  delta   beta
    [MeV]    [MeV/c]  -----------------------[MeV cm^2/g]------------------------  [g/cm^2]
  1.000E+05 1.018E+05 2.137E+00 2.975E-04 4.742E-03 8.062E-03 1.310E-02 2.150E+00 2.326E+04  3.7331 0.99985
  1.122E+05 1.140E+05 2.157E+00 3.440E-04 5.696E-03 9.086E-03 1.513E-02 2.173E+00 2.891E+04  3.9201 0.99988
  1.259E+05 1.277E+05 2.178E+00 3.976E-04 6.822E-03 1.019E-02 1.740E-02 2.196E+00 3.517E+04  4.1109 0.99990
  1.413E+05 1.430E+05 2.199E+00 4.593E-04 8.145E-03 1.142E-02 2.003E-02 2.219E+00 4.213E+04  4.3051 0.99992
  1.585E+05 1.603E+05 2.219E+00 5.303E-04 9.699E-03 1.280E-02 2.303E-02 2.242E+00 4.986E+04  4.5029 0.99994
  1.778E+05 1.796E+05 2.239E+00 6.119E-04 1.152E-02 1.434E-02 2.647E-02 2.266E+00 5.844E+04  4.7039 0.99995
  1.995E+05 2.013E+05 2.259E+00 7.058E-04 1.365E-02 1.609E-02 3.044E-02 2.290E+00 6.797E+04  4.9080 0.99996
  2.239E+05 2.256E+05 2.279E+00 8.137E-04 1.613E-02 1.800E-02 3.494E-02 2.314E+00 7.855E+04  5.1151 0.99997
  2.512E+05 2.530E+05 2.298E+00 9.376E-04 1.902E-02 2.013E-02 4.009E-02 2.339E+00 9.029E+04  5.3251 0.99998
  2.818E+05 2.836E+05 2.318E+00 1.080E-03 2.238E-02 2.254E-02 4.600E-02 2.364E+00 1.033E+05  5.5377 0.99998
  3.162E+05 3.180E+05 2.337E+00 1.243E-03 2.629E-02 2.525E-02 5.278E-02 2.390E+00 1.178E+05  5.7529 0.99998
  3.548E+05 3.566E+05 2.356E+00 1.430E-03 3.081E-02 2.829E-02 6.052E-02 2.417E+00 1.339E+05  5.9704 0.99999
  3.981E+05 3.999E+05 2.375E+00 1.645E-03 3.604E-02 3.167E-02 6.936E-02 2.444E+00 1.517E+05  6.1902 0.99999
  4.467E+05 4.485E+05 2.394E+00 1.891E-03 4.208E-02 3.547E-02 7.944E-02 2.473E+00 1.714E+05  6.4119 0.99999
  5.012E+05 5.030E+05 2.412E+00 2.173E-03 4.906E-02 3.973E-02 9.096E-02 2.503E+00 1.933E+05  6.6355 0.99999
  5.623E+05 5.641E+05 2.430E+00 2.496E-03 5.709E-02 4.434E-02 1.039E-01 2.534E+00 2.176E+05  6.8607 1.00000
  6.310E+05 6.327E+05 2.449E+00 2.866E-03 6.634E-02 4.953E-02 1.187E-01 2.567E+00 2.445E+05  7.0874 1.00000
  7.079E+05 7.097E+05 2.467E+00 3.289E-03 7.697E-02 5.538E-02 1.356E-01 2.602E+00 2.743E+05  7.3153 1.00000
  7.943E+05 7.961E+05 2.485E+00 3.773E-03 8.916E-02 6.198E-02 1.549E-01 2.640E+00 3.073E+05  7.5441 1.00000
  8.913E+05 8.930E+05 2.502E+00 4.327E-03 1.031E-01 6.943E-02 1.769E-01 2.679E+00 3.437E+05  7.7737 1.00000
  1.000E+06 1.002E+06 2.520E+00 4.960E-03 1.192E-01 7.786E-02 2.020E-01 2.722E+00 3.840E+05  8.0035 1.00000
  1.122E+06 1.124E+06 2.538E+00 5.683E-03 1.375E-01 8.739E-02 2.305E-01 2.768E+00 4.284E+05  8.2334 1.00000
  1.259E+06 1.261E+06 2.555E+00 6.510E-03 1.584E-01 9.817E-02 2.631E-01 2.818E+00 4.774E+05  8.4633 1.00000
  1.413E+06 1.414E+06 2.573E+00 7.454E-03 1.823E-01 1.104E-01 3.001E-01 2.873E+00 5.314E+05  8.6932 1.00000
  1.585E+06 1.587E+06 2.590E+00 8.533E-03 2.095E-01 1.242E-01 3.423E-01 2.932E+00 5.908E+05  8.9232 1.00000
  1.778E+06 1.780E+06 2.607E+00 9.764E-03 2.406E-01 1.399E-01 3.903E-01 2.997E+00 6.560E+05  9.1532 1.00000
  1.995E+06 1.997E+06 2.624E+00 1.117E-02 2.759E-01 1.577E-01 4.448E-01 3.069E+00 7.276E+05  9.3833 1.00000
  2.239E+06 2.240E+06 2.641E+00 1.277E-02 3.161E-01 1.780E-01 5.068E-01 3.148E+00 8.059E+05  9.6134 1.00000
  2.512E+06 2.514E+06 2.658E+00 1.460E-02 3.617E-01 2.009E-01 5.772E-01 3.235E+00 8.915E+05  9.8434 1.00000
  2.818E+06 2.820E+06 2.675E+00 1.669E-02 4.135E-01 2.270E-01 6.572E-01 3.332E+00 9.849E+05 10.0735 1.00000
  3.162E+06 3.164E+06 2.691E+00 1.906E-02 4.723E-01 2.567E-01 7.480E-01 3.439E+00 1.087E+06 10.3037 1.00000
  3.548E+06 3.550E+06 2.707E+00 2.177E-02 5.389E-01 2.904E-01 8.511E-01 3.558E+00 1.197E+06 10.5338 1.00000
  3.981E+06 3.983E+06 2.724E+00 2.486E-02 6.143E-01 3.288E-01 9.680E-01 3.691E+00 1.316E+06 10.7640 1.00000
  4.467E+06 4.469E+06 2.740E+00 2.837E-02 6.997E-01 3.724E-01 1.101E+00 3.840E+00 1.445E+06 10.9941 1.00000
  5.012E+06 5.014E+06 2.755E+00 3.238E-02 7.963E-01 4.221E-01 1.251E+00 4.006E+00 1.584E+06 11.2243 1.00000
  5.623E+06 5.625E+06 2.771E+00 3.693E-02 9.056E-01 4.787E-01 1.421E+00 4.192E+00 1.734E+06 11.4545 1.00000
  6.310E+06 6.311E+06 2.787E+00 4.212E-02 1.029E+00 5.431E-01 1.614E+00 4.401E+00 1.893E+06 11.6847 1.00000
  7.079E+06 7.081E+06 2.802E+00 4.802E-02 1.168E+00 6.165E-01 1.833E+00 4.635E+00 2.064E+06 11.9149 1.00000
  7.943E+06 7.945E+06 2.817E+00 5.473E-02 1.326E+00 7.001E-01 2.080E+00 4.898E+00 2.245E+06 12.1451 1.00000
  8.913E+06 8.914E+06 2.832E+00 6.236E-02 1.503E+00 7.953E-01 2.361E+00 5.193E+00 2.438E+06 12.3753 1.00000
  1.000E+07 1.000E+07 2.847E+00 7.104E-02 1.703E+00 9.039E-01 2.678E+00 5.525E+00 2.641E+06 12.6055 1.00000
  1.122E+07 1.122E+07 2.862E+00 8.089E-02 1.929E+00 1.028E+00 3.037E+00 5.899E+00 2.855E+06 12.8357 1.00000
  1.259E+07 1.259E+07 2.877E+00 9.209E-02 2.183E+00 1.169E+00 3.444E+00 6.320E+00 3.079E+06 13.0659 1.00000
  1.413E+07 1.413E+07 2.891E+00 1.048E-01 2.469E+00 1.330E+00 3.904E+00 6.795E+00 3.313E+06 13.2962 1.00000
  1.585E+07 1.585E+07 2.906E+00 1.193E-01 2.792E+00 1.513E+00 4.424E+00 7.329E+00 3.558E+06 13.5264 1.00000
  1.778E+07 1.778E+07 2.920E+00 1.356E-01 3.154E+00 1.722E+00 5.012E+00 7.932E+00 3.812E+06 13.7566 1.00000
  1.995E+07 1.995E+07 2.934E+00 1.542E-01 3.563E+00 1.961E+00 5.678E+00 8.612E+00 4.074E+06 13.9869 1.00000
  2.239E+07 2.239E+07 2.948E+00 1.753E-01 4.022E+00 2.233E+00 6.431E+00 9.379E+00 4.346E+06 14.2171 1.00000
  2.512E+07 2.512E+07 2.962E+00 1.993E-01 4.539E+00 2.544E+00 7.282E+00 1.024E+01 4.624E+06 14.4473 1.00000
  2.818E+07 2.819E+07 2.976E+00 2.264E-01 5.120E+00 2.898E+00 8.245E+00 1.122E+01 4.911E+06 14.6776 1.00000
  3.162E+07 3.162E+07 2.990E+00 2.572E-01 5.774E+00 3.303E+00 9.333E+00 1.232E+01 5.203E+06 14.9078 1.00000
  3.548E+07 3.548E+07 3.004E+00 2.920E-01 6.508E+00 3.764E+00 1.056E+01 1.357E+01 5.502E+06 15.1381 1.00000
  3.981E+07 3.981E+07 3.018E+00 3.315E-01 7.334E+00 4.291E+00 1.196E+01 1.497E+01 5.806E+06 15.3683 1.00000
  4.467E+07 4.467E+07 3.032E+00 3.761E-01 8.261E+00 4.892E+00 1.353E+01 1.656E+01 6.115E+06 15.5986 1.00000
  5.012E+07 5.012E+07 3.046E+00 4.267E-01 9.304E+00 5.579E+00 1.531E+01 1.836E+01 6.428E+06 15.8288 1.00000
  5.623E+07 5.624E+07 3.060E+00 4.840E-01 1.047E+01 6.362E+00 1.732E+01 2.038E+01 6.745E+06 16.0591 1.00000
  6.310E+07 6.310E+07 3.074E+00 5.487E-01 1.179E+01 7.257E+00 1.960E+01 2.267E+01 7.064E+06 16.2893 1.00000
  7.079E+07 7.080E+07 3.088E+00 6.220E-01 1.327E+01 8.278E+00 2.217E+01 2.526E+01 7.387E+06 16.5196 1.00000
  7.943E+07 7.943E+07 3.101E+00 7.049E-01 1.493E+01 9.444E+00 2.508E+01 2.818E+01 7.711E+06 16.7498 1.00000
  8.913E+07 8.913E+07 3.115E+00 7.985E-01 1.679E+01 1.078E+01 2.836E+01 3.148E+01 8.037E+06 16.9801 1.00000
  1.000E+08 1.000E+08 3.129E+00 9.043E-01 1.888E+01 1.230E+01 3.208E+01 3.521E+01 8.364E+06 17.2103 1.00000
  1.122E+08 1.122E+08 3.143E+00 1.024E+00 2.123E+01 1.403E+01 3.629E+01 3.943E+01 8.692E+06 17.4406 1.00000
  1.259E+08 1.259E+08 3.157E+00 1.159E+00 2.387E+01 1.602E+01 4.104E+01 4.420E+01 9.020E+06 17.6708 1.00000
  1.413E+08 1.413E+08 3.171E+00 1.311E+00 2.683E+01 1.828E+01 4.642E+01 4.959E+01 9.349E+06 17.9011 1.00000
  1.585E+08 1.585E+08 3.185E+00 1.483E+00 3.015E+01 2.087E+01 5.251E+01 5.569E+01 9.678E+06 18.1314 1.00000
  1.778E+08 1.778E+08 3.199E+00 1.678E+00 3.389E+01 2.382E+01 5.939E+01 6.259E+01 1.001E+07 18.3616 1.00000
  1.995E+08 1.995E+08 3.214E+00 1.897E+00 3.807E+01 2.720E+01 6.717E+01 7.039E+01 1.033E+07 18.5919 1.00000
  2.239E+08 2.239E+08 3.228E+00 2.144E+00 4.278E+01 3.106E+01 7.598E+01 7.921E+01 1.066E+07 18.8221 1.00000
  2.512E+08 2.512E+08 3.242E+00 2.423E+00 4.805E+01 3.547E+01 8.594E+01 8.918E+01 1.099E+07 19.0524 1.00000
  2.818E+08 2.818E+08 3.256E+00 2.737E+00 5.398E+01 4.050E+01 9.721E+01 1.005E+02 1.131E+07 19.2826 1.00000
  3.162E+08 3.162E+08 3.271E+00 3.091E+00 6.062E+01 4.625E+01 1.100E+02 1.132E+02 1.163E+07 19.5129 1.00000
  3.548E+08 3.548E+08 3.285E+00 3.490E+00 6.808E+01 5.283E+01 1.244E+02 1.277E+02 1.195E+07 19.7432 1.00000
  3.981E+08 3.981E+08 3.300E+00 3.940E+00 7.645E+01 6.034E+01 1.407E+02 1.440E+02 1.227E+07 19.9734 1.00000
  4.467E+08 4.467E+08 3.314E+00 4.446E+00 8.585E+01 6.892E+01 1.592E+02 1.625E+02 1.259E+07 20.2037 1.00000
  5.012E+08 5.012E+08 3.329E+00 5.017E+00 9.639E+01 7.874E+01 1.801E+02 1.835E+02 1.291E+07 20.4339 1.00000
  5.623E+08 5.623E+08 3.344E+00 5.659E+00 1.082E+02 8.995E+01 2.038E+02 2.072E+02 1.322E+07 20.6642 1.00000
  6.310E+08 6.310E+08 3.359E+00 6.381E+00 1.215E+02 1.028E+02 2.307E+02 2.340E+02 1.353E+07 20.8944 1.00000
  7.079E+08 7.079E+08 3.374E+00 7.195E+00 1.364E+02 1.174E+02 2.610E+02 2.644E+02 1.384E+07 21.1247 1.00000
  7.943E+08 7.943E+08 3.389E+00 8.110E+00 1.531E+02 1.342E+02 2.954E+02 2.988E+02 1.415E+07 21.3550 1.00000
  8.913E+08 8.913E+08 3.404E+00 9.140E+00 1.719E+02 1.533E+02 3.343E+02 3.377E+02 1.446E+07 21.5852 1.00000
  1.000E+09 1.000E+09 3.419E+00 1.030E+01 1.929E+02 1.752E+02 3.784E+02 3.818E+02 1.476E+07 21.8155 1.00000
  1.122E+09 1.122E+09 3.434E+00 1.160E+01 2.166E+02 2.002E+02 4.284E+02 4.318E+02 1.506E+07 22.0457 1.00000
  1.259E+09 1.259E+09 3.449E+00 1.307E+01 2.431E+02 2.288E+02 4.849E+02 4.884E+02 1.536E+07 22.2760 1.00000
  1.413E+09 1.413E+09 3.465E+00 1.471E+01 2.728E+02 2.615E+02 5.490E+02 5.525E+02 1.566E+07 22.5062 1.00000
  1.585E+09 1.585E+09 3.480E+00 1.656E+01 3.062E+02 2.989E+02 6.217E+02 6.252E+02 1.595E+07 22.7365 1.00000
  1.778E+09 1.778E+09 3.496E+00 1.865E+01 3.436E+02 3.417E+02 7.040E+02 7.075E+02 1.624E+07 22.9668 1.00000
  1.995E+09 1.995E+09 3.511E+00 2.099E+01 3.856E+02 3.906E+02 7.972E+02 8.008E+02 1.653E+07 23.1970 1.00000
  2.239E+09 2.239E+09 3.527E+00 2.361E+01 4.328E+02 4.465E+02 9.029E+02 9.065E+02 1.682E+07 23.4273 1.00000
  2.512E+09 2.512E+09 3.543E+00 2.657E+01 4.857E+02 5.105E+02 1.023E+03 1.026E+03 1.710E+07 23.6575 1.00000
  2.818E+09 2.818E+09 3.559E+00 2.989E+01 5.450E+02 5.837E+02 1.159E+03 1.162E+03 1.738E+07 23.8878 1.00000
  3.162E+09 3.162E+09 3.575E+00 3.361E+01 6.116E+02 6.674E+02 1.313E+03 1.316E+03 1.766E+07 24.1181 1.00000
  3.548E+09 3.548E+09 3.591E+00 3.780E+01 6.864E+02 7.631E+02 1.487E+03 1.491E+03 1.794E+07 24.3483 1.00000
  3.981E+09 3.981E+09 3.607E+00 4.250E+01 7.702E+02 8.726E+02 1.685E+03 1.689E+03 1.821E+07 24.5786 1.00000
  4.467E+09 4.467E+09 3.623E+00 4.779E+01 8.643E+02 9.979E+02 1.910E+03 1.914E+03 1.848E+07 24.8088 1.00000
  5.012E+09 5.012E+09 3.639E+00 5.372E+01 9.699E+02 1.141E+03 2.165E+03 2.168E+03 1.875E+07 25.0391 1.00000
  5.623E+09 5.623E+09 3.656E+00 6.038E+01 1.088E+03 1.305E+03 2.454E+03 2.458E+03 1.902E+07 25.2693 1.00000
  6.310E+09 6.310E+09 3.672E+00 6.786E+01 1.221E+03 1.493E+03 2.782E+03 2.786E+03 1.928E+07 25.4996 1.00000
  7.079E+09 7.079E+09 3.689E+00 7.626E+01 1.370E+03 1.707E+03 3.154E+03 3.158E+03 1.954E+07 25.7299 1.00000
  7.943E+09 7.943E+09 3.706E+00 8.569E+01 1.538E+03 1.953E+03 3.576E+03 3.580E+03 1.980E+07 25.9601 1.00000
  8.913E+09 8.913E+09 3.722E+00 9.627E+01 1.725E+03 2.234E+03 4.056E+03 4.060E+03 2.005E+07 26.1904 1.00000
  1.000E+10 1.000E+10 3.739E+00 1.082E+02 1.936E+03 2.556E+03 4.600E+03 4.604E+03 2.030E+07 26.4206 1.00000
  1.122E+10 1.122E+10 3.756E+00 1.215E+02 2.172E+03 2.924E+03 5.218E+03 5.222E+03 2.055E+07 26.6509 1.00000
  1.259E+10 1.259E+10 3.773E+00 1.365E+02 2.437E+03 3.346E+03 5.919E+03 5.923E+03 2.080E+07 26.8812 1.00000
  1.413E+10 1.413E+10 3.791E+00 1.533E+02 2.735E+03 3.828E+03 6.716E+03 6.720E+03 2.104E+07 27.1114 1.00000
  1.585E+10 1.585E+10 3.808E+00 1.721E+02 3.069E+03 4.380E+03 7.621E+03 7.624E+03 2.128E+07 27.3417 1.00000
  1.778E+10 1.778E+10 3.825E+00 1.933E+02 3.443E+03 5.012E+03 8.648E+03 8.652E+03 2.152E+07 27.5719 1.00000
  1.995E+10 1.995E+10 3.843E+00 2.171E+02 3.863E+03 5.735E+03 9.816E+03 9.820E+03 2.176E+07 27.8022 1.00000
  2.239E+10 2.239E+10 3.860E+00 2.438E+02 4.335E+03 6.564E+03 1.114E+04 1.115E+04 2.199E+07 28.0325 1.00000
  2.512E+10 2.512E+10 3.878E+00 2.737E+02 4.864E+03 7.512E+03 1.265E+04 1.265E+04 2.222E+07 28.2627 1.00000
  2.818E+10 2.818E+10 3.896E+00 3.073E+02 5.457E+03 8.597E+03 1.436E+04 1.437E+04 2.245E+07 28.4930 1.00000
  3.162E+10 3.162E+10 3.914E+00 3.450E+02 6.123E+03 9.841E+03 1.631E+04 1.631E+04 2.267E+07 28.7232 1.00000
  3.548E+10 3.548E+10 3.932E+00 3.873E+02 6.870E+03 1.126E+04 1.852E+04 1.853E+04 2.290E+07 28.9535 1.00000
  3.981E+10 3.981E+10 3.950E+00 4.348E+02 7.708E+03 1.289E+04 2.104E+04 2.104E+04 2.312E+07 29.1837 1.00000
  4.467E+10 4.467E+10 3.968E+00 4.881E+02 8.649E+03 1.476E+04 2.390E+04 2.390E+04 2.333E+07 29.4140 1.00000
  5.012E+10 5.012E+10 3.986E+00 5.479E+02 9.704E+03 1.690E+04 2.715E+04 2.715E+04 2.355E+07 29.6443 1.00000
  5.623E+10 5.623E+10 4.004E+00 6.150E+02 1.089E+04 1.935E+04 3.085E+04 3.085E+04 2.376E+07 29.8745 1.00000
  6.310E+10 6.310E+10 4.023E+00 6.903E+02 1.222E+04 2.215E+04 3.506E+04 3.506E+04 2.397E+07 30.1048 1.00000
  7.079E+10 7.079E+10 4.042E+00 7.748E+02 1.371E+04 2.536E+04 3.984E+04 3.985E+04 2.418E+07 30.3350 1.00000
  7.943E+10 7.943E+10 4.060E+00 8.696E+02 1.538E+04 2.904E+04 4.529E+04 4.529E+04 2.438E+07 30.5653 1.00000
  8.913E+10 8.913E+10 4.079E+00 9.760E+02 1.726E+04 3.326E+04 5.149E+04 5.149E+04 2.458E+07 30.7956 1.00000
  1.000E+11 1.000E+11 4.098E+00 1.095E+03 1.936E+04 3.809E+04 5.854E+04 5.855E+04 2.478E+07 31.0258 1.00000
  1.122E+11 1.122E+11 4.117E+00 1.229E+03 2.172E+04 4.362E+04 6.657E+04 6.657E+04 2.497E+07 31.2561 1.00000
  1.259E+11 1.259E+11 4.136E+00 1.380E+03 2.437E+04 4.995E+04 7.571E+04 7.571E+04 2.517E+07 31.4863 1.00000
  1.413E+11 1.413E+11 4.155E+00 1.548E+03 2.735E+04 5.722E+04 8.611E+04 8.611E+04 2.536E+07 31.7166 1.00000
  1.585E+11 1.585E+11 4.175E+00 1.738E+03 3.068E+04 6.554E+04 9.796E+04 9.796E+04 2.555E+07 31.9468 1.00000
  1.778E+11 1.778E+11 4.194E+00 1.950E+03 3.442E+04 7.507E+04 1.114E+05 1.114E+05 2.573E+07 32.1771 1.00000
  1.995E+11 1.995E+11 4.214E+00 2.188E+03 3.862E+04 8.600E+04 1.268E+05 1.268E+05 2.591E+07 32.4074 1.00000
  2.239E+11 2.239E+11 4.233E+00 2.456E+03 4.334E+04 9.852E+04 1.443E+05 1.443E+05 2.610E+07 32.6376 1.00000
  2.512E+11 2.512E+11 4.253E+00 2.756E+03 4.862E+04 1.129E+05 1.642E+05 1.643E+05 2.627E+07 32.8679 1.00000
  2.818E+11 2.818E+11 4.273E+00 3.092E+03 5.455E+04 1.293E+05 1.870E+05 1.870E+05 2.645E+07 33.0981 1.00000
  3.162E+11 3.162E+11 4.293E+00 3.470E+03 6.121E+04 1.482E+05 2.128E+05 2.128E+05 2.662E+07 33.3284 1.00000
  3.548E+11 3.548E+11 4.313E+00 3.894E+03 6.867E+04 1.698E+05 2.423E+05 2.423E+05 2.679E+07 33.5587 1.00000
  3.981E+11 3.981E+11 4.333E+00 4.369E+03 7.705E+04 1.945E+05 2.760E+05 2.760E+05 2.696E+07 33.7889 1.00000
  4.467E+11 4.467E+11 4.354E+00 4.903E+03 8.645E+04 2.229E+05 3.143E+05 3.143E+05 2.712E+07 34.0192 1.00000
  5.012E+11 5.012E+11 4.374E+00 5.501E+03 9.700E+04 2.555E+05 3.580E+05 3.580E+05 2.729E+07 34.2494 1.00000
  5.623E+11 5.623E+11 4.395E+00 6.173E+03 1.088E+05 2.928E+05 4.078E+05 4.078E+05 2.745E+07 34.4797 1.00000
  6.310E+11 6.310E+11 4.415E+00 6.927E+03 1.221E+05 3.356E+05 4.646E+05 4.646E+05 2.761E+07 34.7099 1.00000
  7.079E+11 7.079E+11 4.436E+00 7.772E+03 1.370E+05 3.847E+05 5.294E+05 5.294E+05 2.776E+07 34.9402 1.00000
  7.943E+11 7.943E+11 4.457E+00 8.721E+03 1.537E+05 4.409E+05 6.034E+05 6.034E+05 2.791E+07 35.1705 1.00000
  8.913E+11 8.913E+11 4.478E+00 9.786E+03 1.725E+05 5.054E+05 6.877E+05 6.877E+05 2.807E+07 35.4007 1.00000
  1.000E+12 1.000E+12 4.499E+00 1.098E+04 1.935E+05 5.794E+05 7.839E+05 7.839E+05 2.821E+07 35.6310 1.00000
  1.122E+12 1.122E+12 4.520E+00 1.232E+04 2.171E+05 6.643E+05 8.937E+05 8.937E+05 2.836E+07 35.8612 1.00000
  1.259E+12 1.259E+12 4.542E+00 1.382E+04 2.436E+05 7.616E+05 1.019E+06 1.019E+06 2.850E+07 36.0915 1.00000
  1.413E+12 1.413E+12 4.563E+00 1.551E+04 2.733E+05 8.732E+05 1.162E+06 1.162E+06 2.864E+07 36.3218 1.00000
  1.585E+12 1.585E+12 4.585E+00 1.740E+04 3.066E+05 1.001E+06 1.325E+06 1.325E+06 2.878E+07 36.5520 1.00000
  1.778E+12 1.778E+12 4.607E+00 1.953E+04 3.440E+05 1.148E+06 1.512E+06 1.512E+06 2.892E+07 36.7823 1.00000
  1.995E+12 1.995E+12 4.629E+00 2.191E+04 3.860E+05 1.316E+06 1.724E+06 1.724E+06 2.906E+07 37.0125 1.00000
  2.239E+12 2.239E+12 4.651E+00 2.459E+04 4.331E+05 1.510E+06 1.967E+06 1.967E+06 2.919E+07 37.2428 1.00000
  2.512E+12 2.512E+12 4.673E+00 2.759E+04 4.859E+05 1.731E+06 2.245E+06 2.245E+06 2.932E+07 37.4730 1.00000
  2.818E+12 2.818E+12 4.695E+00 3.095E+04 5.451E+05 1.986E+06 2.562E+06 2.562E+06 2.945E+07 37.7033 1.00000
  3.162E+12 3.162E+12 4.717E+00 3.473E+04 6.116E+05 2.277E+06 2.924E+06 2.924E+06 2.957E+07 37.9336 1.00000
  3.548E+12 3.548E+12 4.740E+00 3.897E+04 6.862E+05 2.612E+06 3.337E+06 3.337E+06 2.970E+07 38.1638 1.00000
  3.981E+12 3.981E+12 4.762E+00 4.372E+04 7.699E+05 2.996E+06 3.810E+06 3.810E+06 2.982E+07 38.3941 1.00000
  4.467E+12 4.467E+12 4.785E+00 4.906E+04 8.638E+05 3.437E+06 4.350E+06 4.350E+06 2.994E+07 38.6243 1.00000
  5.012E+12 5.012E+12 4.808E+00 5.505E+04 9.692E+05 3.943E+06 4.967E+06 4.967E+06 3.005E+07 38.8546 1.00000
  5.623E+12 5.623E+12 4.831E+00 6.176E+04 1.087E+06 4.524E+06 5.673E+06 5.673E+06 3.017E+07 39.0849 1.00000
  6.310E+12 6.310E+12 4.854E+00 6.930E+04 1.220E+06 5.190E+06 6.479E+06 6.479E+06 3.028E+07 39.3151 1.00000
  7.079E+12 7.079E+12 4.877E+00 7.776E+04 1.369E+06 5.955E+06 7.401E+06 7.401E+06 3.040E+07 39.5454 1.00000
  7.943E+12 7.943E+12 4.900E+00 8.725E+04 1.536E+06 6.833E+06 8.456E+06 8.456E+06 3.050E+07 39.7756 1.00000
  8.913E+12 8.913E+12 4.924E+00 9.789E+04 1.723E+06 7.840E+06 9.661E+06 9.661E+06 3.061E+07 40.0059 1.00000
  1.000E+13 1.000E+13 4.947E+00 1.098E+05 1.933E+06 8.997E+06 1.104E+07 1.104E+07 3.072E+07 40.2362 1.00000
  1.122E+13 1.122E+13 4.971E+00 1.232E+05 2.169E+06 1.032E+07 1.262E+07 1.262E+07 3.082E+07 40.4664 1.00000
  1.259E+13 1.259E+13 4.995E+00 1.383E+05 2.434E+06 1.185E+07 1.442E+07 1.442E+07 3.092E+07 40.6967 1.00000
  1.413E+13 1.413E+13 5.019E+00 1.552E+05 2.730E+06 1.360E+07 1.648E+07 1.648E+07 3.102E+07 40.9269 1.00000
  1.585E+13 1.585E+13 5.043E+00 1.741E+05 3.063E+06 1.561E+07 1.885E+07 1.885E+07 3.112E+07 41.1572 1.00000
  1.778E+13 1.778E+13 5.067E+00 1.953E+05 3.437E+06 1.791E+07 2.155E+07 2.155E+07 3.122E+07 41.3874 1.00000
  1.995E+13 1.995E+13 5.092E+00 2.192E+05 3.856E+06 2.056E+07 2.464E+07 2.464E+07 3.131E+07 41.6177 1.00000
  2.239E+13 2.239E+13 5.116E+00 2.459E+05 4.326E+06 2.360E+07 2.818E+07 2.818E+07 3.140E+07 41.8480 1.00000
  2.512E+13 2.512E+13 5.141E+00 2.759E+05 4.854E+06 2.710E+07 3.223E+07 3.223E+07 3.149E+07 42.0782 1.00000
  2.818E+13 2.818E+13 5.166E+00 3.096E+05 5.446E+06 3.111E+07 3.686E+07 3.686E+07 3.158E+07 42.3085 1.00000
  3.162E+13 3.162E+13 5.191E+00 3.473E+05 6.110E+06 3.571E+07 4.217E+07 4.217E+07 3.167E+07 42.5387 1.00000
  3.548E+13 3.548E+13 5.216E+00 3.897E+05 6.855E+06 4.100E+07 4.825E+07 4.825E+07 3.176E+07 42.7690 1.00000
  3.981E+13 3.981E+13 5.241E+00 4.373E+05 7.692E+06 4.708E+07 5.521E+07 5.521E+07 3.184E+07 42.9993 1.00000
  4.467E+13 4.467E+13 5.266E+00 4.906E+05 8.630E+06 5.406E+07 6.318E+07 6.318E+07 3.192E+07 43.2295 1.00000
  5.012E+13 5.012E+13 5.292E+00 5.505E+05 9.682E+06 6.208E+07 7.231E+07 7.231E+07 3.200E+07 43.4598 1.00000
  5.623E+13 5.623E+13 5.317E+00 6.177E+05 1.086E+07 7.128E+07 8.276E+07 8.276E+07 3.208E+07 43.6900 1.00000
  6.310E+13 6.310E+13 5.343E+00 6.931E+05 1.219E+07 8.186E+07 9.474E+07 9.474E+07 3.216E+07 43.9203 1.00000
  7.079E+13 7.079E+13 5.369E+00 7.776E+05 1.367E+07 9.402E+07 1.085E+08 1.085E+08 3.224E+07 44.1505 1.00000
  7.943E+13 7.943E+13 5.395E+00 8.725E+05 1.534E+07 1.080E+08 1.242E+08 1.242E+08 3.231E+07 44.3808 1.00000
  8.913E+13 8.913E+13 5.421E+00 9.790E+05 1.721E+07 1.240E+08 1.422E+08 1.422E+08 3.239E+07 44.6111 1.00000
