 Incident particle is a Tau with M = 1776.82000 MeV
 Index = 0: Tantalum
      Absorber with <Z/A> = 0.40343
 Sternheimer coef:  a     k=m_s   x_0    x_1    I[eV]   Cbar  delta0
                 0.1780  2.7623  0.2117  3.4805  718.0  5.5262 0.14

 *** Table generated with PUMAS v1.00 ***

      T         p     Ionization  brems     pair     photonuc  Radloss    dE/dx   CSDA Range  delta   beta
    [MeV]    [MeV/c]  -----------------------[MeV cm^2/g]------------------------  [g/cm^2]
  1.000E+05 1.018E+05 1.579E+00 9.575E-04 1.691E-02 7.582E-03 2.545E-02 1.604E+00 3.117E+04  3.3689 0.99985
  1.122E+05 1.140E+05 1.597E+00 1.110E-03 2.025E-02 8.512E-03 2.987E-02 1.627E+00 3.873E+04  3.5339 0.99988
  1.259E+05 1.277E+05 1.615E+00 1.287E-03 2.417E-02 9.505E-03 3.496E-02 1.650E+00 4.708E+04  3.7024 0.99990
  1.413E+05 1.430E+05 1.633E+00 1.490E-03 2.878E-02 1.062E-02 4.088E-02 1.674E+00 5.633E+04  3.8741 0.99992
  1.585E+05 1.603E+05 1.651E+00 1.725E-03 3.417E-02 1.185E-02 4.775E-02 1.699E+00 6.655E+04  4.0491 0.99994
  1.778E+05 1.796E+05 1.669E+00 1.995E-03 4.048E-02 1.323E-02 5.570E-02 1.724E+00 7.785E+04  4.2272 0.99995
  1.995E+05 2.013E+05 1.686E+00 2.307E-03 4.783E-02 1.478E-02 6.492E-02 1.751E+00 9.034E+04  4.4084 0.99996
  2.239E+05 2.256E+05 1.703E+00 2.665E-03 5.640E-02 1.648E-02 7.554E-02 1.779E+00 1.041E+05  4.5925 0.99997
  2.512E+05 2.530E+05 1.721E+00 3.078E-03 6.635E-02 1.836E-02 8.779E-02 1.808E+00 1.194E+05  4.7796 0.99998
  2.818E+05 2.836E+05 1.738E+00 3.552E-03 7.789E-02 2.048E-02 1.019E-01 1.840E+00 1.362E+05  4.9694 0.99998
  3.162E+05 3.180E+05 1.755E+00 4.098E-03 9.125E-02 2.285E-02 1.182E-01 1.873E+00 1.547E+05  5.1620 0.99998
  3.548E+05 3.566E+05 1.771E+00 4.724E-03 1.067E-01 2.551E-02 1.369E-01 1.908E+00 1.751E+05  5.3571 0.99999
  3.981E+05 3.999E+05 1.788E+00 5.443E-03 1.245E-01 2.846E-02 1.584E-01 1.947E+00 1.976E+05  5.5549 0.99999
  4.467E+05 4.485E+05 1.805E+00 6.268E-03 1.451E-01 3.176E-02 1.831E-01 1.988E+00 2.223E+05  5.7551 0.99999
  5.012E+05 5.030E+05 1.821E+00 7.215E-03 1.687E-01 3.545E-02 2.114E-01 2.032E+00 2.494E+05  5.9576 0.99999
  5.623E+05 5.641E+05 1.837E+00 8.300E-03 1.959E-01 3.943E-02 2.436E-01 2.081E+00 2.791E+05  6.1624 1.00000
  6.310E+05 6.327E+05 1.853E+00 9.544E-03 2.270E-01 4.390E-02 2.805E-01 2.133E+00 3.117E+05  6.3694 1.00000
  7.079E+05 7.097E+05 1.869E+00 1.097E-02 2.627E-01 4.892E-02 3.226E-01 2.191E+00 3.473E+05  6.5786 1.00000
  7.943E+05 7.961E+05 1.884E+00 1.260E-02 3.036E-01 5.458E-02 3.708E-01 2.255E+00 3.862E+05  6.7897 1.00000
  8.913E+05 8.930E+05 1.900E+00 1.446E-02 3.504E-01 6.096E-02 4.258E-01 2.325E+00 4.285E+05  7.0028 1.00000
  1.000E+06 1.002E+06 1.915E+00 1.660E-02 4.038E-01 6.815E-02 4.885E-01 2.403E+00 4.745E+05  7.2177 1.00000
  1.122E+06 1.124E+06 1.930E+00 1.904E-02 4.646E-01 7.628E-02 5.600E-01 2.490E+00 5.244E+05  7.4343 1.00000
  1.259E+06 1.261E+06 1.945E+00 2.183E-02 5.340E-01 8.547E-02 6.413E-01 2.586E+00 5.784E+05  7.6526 1.00000
  1.413E+06 1.414E+06 1.960E+00 2.502E-02 6.130E-01 9.586E-02 7.339E-01 2.693E+00 6.366E+05  7.8724 1.00000
  1.585E+06 1.587E+06 1.974E+00 2.866E-02 7.028E-01 1.076E-01 8.391E-01 2.813E+00 6.992E+05  8.0937 1.00000
  1.778E+06 1.780E+06 1.988E+00 3.282E-02 8.049E-01 1.209E-01 9.587E-01 2.947E+00 7.664E+05  8.3163 1.00000
  1.995E+06 1.997E+06 2.003E+00 3.757E-02 9.208E-01 1.360E-01 1.094E+00 3.097E+00 8.382E+05  8.5403 1.00000
  2.239E+06 2.240E+06 2.017E+00 4.298E-02 1.052E+00 1.532E-01 1.248E+00 3.265E+00 9.148E+05  8.7653 1.00000
  2.512E+06 2.514E+06 2.030E+00 4.916E-02 1.201E+00 1.726E-01 1.423E+00 3.453E+00 9.962E+05  8.9915 1.00000
  2.818E+06 2.820E+06 2.044E+00 5.620E-02 1.370E+00 1.947E-01 1.621E+00 3.665E+00 1.082E+06  9.2185 1.00000
  3.162E+06 3.164E+06 2.057E+00 6.423E-02 1.561E+00 2.198E-01 1.845E+00 3.902E+00 1.173E+06  9.4464 1.00000
  3.548E+06 3.550E+06 2.071E+00 7.337E-02 1.777E+00 2.483E-01 2.098E+00 4.169E+00 1.269E+06  9.6751 1.00000
  3.981E+06 3.983E+06 2.084E+00 8.379E-02 2.021E+00 2.807E-01 2.385E+00 4.469E+00 1.369E+06  9.9043 1.00000
  4.467E+06 4.469E+06 2.097E+00 9.564E-02 2.297E+00 3.175E-01 2.710E+00 4.807E+00 1.474E+06 10.1340 1.00000
  5.012E+06 5.014E+06 2.110E+00 1.091E-01 2.608E+00 3.594E-01 3.077E+00 5.186E+00 1.584E+06 10.3640 1.00000
  5.623E+06 5.625E+06 2.122E+00 1.245E-01 2.959E+00 4.071E-01 3.491E+00 5.613E+00 1.697E+06 10.5942 1.00000
  6.310E+06 6.311E+06 2.135E+00 1.420E-01 3.356E+00 4.615E-01 3.959E+00 6.094E+00 1.814E+06 10.8244 1.00000
  7.079E+06 7.081E+06 2.147E+00 1.618E-01 3.803E+00 5.233E-01 4.488E+00 6.635E+00 1.936E+06 11.0546 1.00000
  7.943E+06 7.945E+06 2.160E+00 1.844E-01 4.306E+00 5.938E-01 5.085E+00 7.244E+00 2.060E+06 11.2848 1.00000
  8.913E+06 8.914E+06 2.172E+00 2.100E-01 4.874E+00 6.740E-01 5.758E+00 7.930E+00 2.188E+06 11.5150 1.00000
  1.000E+07 1.000E+07 2.184E+00 2.392E-01 5.513E+00 7.655E-01 6.518E+00 8.702E+00 2.319E+06 11.7452 1.00000
  1.122E+07 1.122E+07 2.196E+00 2.723E-01 6.233E+00 8.697E-01 7.375E+00 9.570E+00 2.453E+06 11.9754 1.00000
  1.259E+07 1.259E+07 2.208E+00 3.098E-01 7.042E+00 9.885E-01 8.341E+00 1.055E+01 2.590E+06 12.2056 1.00000
  1.413E+07 1.413E+07 2.219E+00 3.524E-01 7.954E+00 1.124E+00 9.430E+00 1.165E+01 2.728E+06 12.4359 1.00000
  1.585E+07 1.585E+07 2.231E+00 4.008E-01 8.979E+00 1.278E+00 1.066E+01 1.289E+01 2.869E+06 12.6661 1.00000
  1.778E+07 1.778E+07 2.243E+00 4.556E-01 1.013E+01 1.455E+00 1.204E+01 1.428E+01 3.012E+06 12.8963 1.00000
  1.995E+07 1.995E+07 2.254E+00 5.177E-01 1.143E+01 1.655E+00 1.360E+01 1.586E+01 3.156E+06 13.1266 1.00000
  2.239E+07 2.239E+07 2.266E+00 5.881E-01 1.289E+01 1.885E+00 1.536E+01 1.762E+01 3.302E+06 13.3568 1.00000
  2.512E+07 2.512E+07 2.277E+00 6.679E-01 1.452E+01 2.146E+00 1.734E+01 1.962E+01 3.449E+06 13.5870 1.00000
  2.818E+07 2.819E+07 2.288E+00 7.583E-01 1.637E+01 2.444E+00 1.957E+01 2.186E+01 3.598E+06 13.8173 1.00000
  3.162E+07 3.162E+07 2.300E+00 8.606E-01 1.843E+01 2.785E+00 2.208E+01 2.438E+01 3.747E+06 14.0475 1.00000
  3.548E+07 3.548E+07 2.311E+00 9.764E-01 2.076E+01 3.173E+00 2.491E+01 2.722E+01 3.897E+06 14.2778 1.00000
  3.981E+07 3.981E+07 2.322E+00 1.107E+00 2.337E+01 3.616E+00 2.809E+01 3.042E+01 4.047E+06 14.5080 1.00000
  4.467E+07 4.467E+07 2.333E+00 1.256E+00 2.630E+01 4.122E+00 3.168E+01 3.401E+01 4.199E+06 14.7383 1.00000
  5.012E+07 5.012E+07 2.345E+00 1.423E+00 2.960E+01 4.700E+00 3.572E+01 3.807E+01 4.350E+06 14.9685 1.00000
  5.623E+07 5.624E+07 2.356E+00 1.613E+00 3.330E+01 5.359E+00 4.027E+01 4.262E+01 4.502E+06 15.1988 1.00000
  6.310E+07 6.310E+07 2.367E+00 1.827E+00 3.745E+01 6.111E+00 4.539E+01 4.776E+01 4.655E+06 15.4290 1.00000
  7.079E+07 7.080E+07 2.378E+00 2.068E+00 4.212E+01 6.970E+00 5.116E+01 5.353E+01 4.807E+06 15.6593 1.00000
  7.943E+07 7.943E+07 2.389E+00 2.342E+00 4.735E+01 7.951E+00 5.765E+01 6.004E+01 4.960E+06 15.8895 1.00000
  8.913E+07 8.913E+07 2.401E+00 2.650E+00 5.323E+01 9.072E+00 6.496E+01 6.736E+01 5.113E+06 16.1198 1.00000
  1.000E+08 1.000E+08 2.412E+00 2.998E+00 5.984E+01 1.035E+01 7.318E+01 7.560E+01 5.265E+06 16.3500 1.00000
  1.122E+08 1.122E+08 2.423E+00 3.391E+00 6.725E+01 1.181E+01 8.245E+01 8.487E+01 5.418E+06 16.5803 1.00000
  1.259E+08 1.259E+08 2.435E+00 3.833E+00 7.557E+01 1.348E+01 9.288E+01 9.531E+01 5.570E+06 16.8105 1.00000
  1.413E+08 1.413E+08 2.446E+00 4.333E+00 8.490E+01 1.539E+01 1.046E+02 1.071E+02 5.723E+06 17.0408 1.00000
  1.585E+08 1.585E+08 2.457E+00 4.896E+00 9.538E+01 1.756E+01 1.178E+02 1.203E+02 5.875E+06 17.2711 1.00000
  1.778E+08 1.778E+08 2.469E+00 5.531E+00 1.071E+02 2.005E+01 1.327E+02 1.352E+02 6.027E+06 17.5013 1.00000
  1.995E+08 1.995E+08 2.480E+00 6.247E+00 1.203E+02 2.289E+01 1.495E+02 1.520E+02 6.178E+06 17.7316 1.00000
  2.239E+08 2.239E+08 2.492E+00 7.053E+00 1.352E+02 2.613E+01 1.684E+02 1.708E+02 6.330E+06 17.9618 1.00000
  2.512E+08 2.512E+08 2.503E+00 7.961E+00 1.518E+02 2.984E+01 1.896E+02 1.921E+02 6.481E+06 18.1921 1.00000
  2.818E+08 2.818E+08 2.515E+00 8.983E+00 1.705E+02 3.407E+01 2.135E+02 2.160E+02 6.631E+06 18.4223 1.00000
  3.162E+08 3.162E+08 2.526E+00 1.013E+01 1.914E+02 3.891E+01 2.404E+02 2.430E+02 6.782E+06 18.6526 1.00000
  3.548E+08 3.548E+08 2.538E+00 1.143E+01 2.149E+02 4.444E+01 2.708E+02 2.733E+02 6.932E+06 18.8829 1.00000
  3.981E+08 3.981E+08 2.550E+00 1.289E+01 2.413E+02 5.076E+01 3.049E+02 3.075E+02 7.081E+06 19.1131 1.00000
  4.467E+08 4.467E+08 2.562E+00 1.453E+01 2.709E+02 5.798E+01 3.434E+02 3.459E+02 7.231E+06 19.3434 1.00000
  5.012E+08 5.012E+08 2.574E+00 1.637E+01 3.041E+02 6.624E+01 3.867E+02 3.893E+02 7.379E+06 19.5736 1.00000
  5.623E+08 5.623E+08 2.585E+00 1.845E+01 3.413E+02 7.567E+01 4.355E+02 4.381E+02 7.528E+06 19.8039 1.00000
  6.310E+08 6.310E+08 2.597E+00 2.078E+01 3.832E+02 8.645E+01 4.904E+02 4.930E+02 7.676E+06 20.0341 1.00000
  7.079E+08 7.079E+08 2.609E+00 2.341E+01 4.301E+02 9.877E+01 5.523E+02 5.549E+02 7.823E+06 20.2644 1.00000
  7.943E+08 7.943E+08 2.622E+00 2.636E+01 4.827E+02 1.129E+02 6.220E+02 6.246E+02 7.970E+06 20.4947 1.00000
  8.913E+08 8.913E+08 2.634E+00 2.968E+01 5.418E+02 1.290E+02 7.005E+02 7.031E+02 8.117E+06 20.7249 1.00000
  1.000E+09 1.000E+09 2.646E+00 3.341E+01 6.081E+02 1.474E+02 7.889E+02 7.915E+02 8.263E+06 20.9552 1.00000
  1.122E+09 1.122E+09 2.658E+00 3.760E+01 6.825E+02 1.684E+02 8.885E+02 8.912E+02 8.408E+06 21.1854 1.00000
  1.259E+09 1.259E+09 2.671E+00 4.230E+01 7.660E+02 1.925E+02 1.001E+03 1.003E+03 8.553E+06 21.4157 1.00000
  1.413E+09 1.413E+09 2.683E+00 4.759E+01 8.596E+02 2.200E+02 1.127E+03 1.130E+03 8.698E+06 21.6459 1.00000
  1.585E+09 1.585E+09 2.696E+00 5.354E+01 9.647E+02 2.514E+02 1.270E+03 1.272E+03 8.842E+06 21.8762 1.00000
  1.778E+09 1.778E+09 2.708E+00 6.021E+01 1.083E+03 2.874E+02 1.430E+03 1.433E+03 8.985E+06 22.1065 1.00000
  1.995E+09 1.995E+09 2.721E+00 6.771E+01 1.215E+03 3.286E+02 1.611E+03 1.614E+03 9.128E+06 22.3367 1.00000
  2.239E+09 2.239E+09 2.733E+00 7.613E+01 1.363E+03 3.756E+02 1.815E+03 1.818E+03 9.271E+06 22.5670 1.00000
  2.512E+09 2.512E+09 2.746E+00 8.558E+01 1.530E+03 4.294E+02 2.045E+03 2.048E+03 9.412E+06 22.7972 1.00000
  2.818E+09 2.818E+09 2.759E+00 9.620E+01 1.717E+03 4.909E+02 2.304E+03 2.307E+03 9.554E+06 23.0275 1.00000
  3.162E+09 3.162E+09 2.772E+00 1.081E+02 1.927E+03 5.613E+02 2.596E+03 2.599E+03 9.694E+06 23.2578 1.00000
  3.548E+09 3.548E+09 2.785E+00 1.215E+02 2.162E+03 6.419E+02 2.925E+03 2.928E+03 9.834E+06 23.4880 1.00000
  3.981E+09 3.981E+09 2.798E+00 1.365E+02 2.426E+03 7.340E+02 3.296E+03 3.299E+03 9.974E+06 23.7183 1.00000
  4.467E+09 4.467E+09 2.811E+00 1.534E+02 2.722E+03 8.393E+02 3.715E+03 3.718E+03 1.011E+07 23.9485 1.00000
  5.012E+09 5.012E+09 2.824E+00 1.723E+02 3.054E+03 9.599E+02 4.187E+03 4.189E+03 1.025E+07 24.1788 1.00000
  5.623E+09 5.623E+09 2.838E+00 1.936E+02 3.427E+03 1.098E+03 4.719E+03 4.722E+03 1.039E+07 24.4090 1.00000
  6.310E+09 6.310E+09 2.851E+00 2.175E+02 3.846E+03 1.256E+03 5.319E+03 5.322E+03 1.053E+07 24.6393 1.00000
  7.079E+09 7.079E+09 2.864E+00 2.443E+02 4.315E+03 1.436E+03 5.996E+03 5.998E+03 1.066E+07 24.8696 1.00000
  7.943E+09 7.943E+09 2.878E+00 2.743E+02 4.842E+03 1.643E+03 6.759E+03 6.762E+03 1.080E+07 25.0998 1.00000
  8.913E+09 8.913E+09 2.892E+00 3.081E+02 5.433E+03 1.879E+03 7.620E+03 7.623E+03 1.093E+07 25.3301 1.00000
  1.000E+10 1.000E+10 2.905E+00 3.459E+02 6.096E+03 2.150E+03 8.592E+03 8.595E+03 1.107E+07 25.5603 1.00000
  1.122E+10 1.122E+10 2.919E+00 3.884E+02 6.840E+03 2.460E+03 9.688E+03 9.691E+03 1.120E+07 25.7906 1.00000
  1.259E+10 1.259E+10 2.933E+00 4.362E+02 7.675E+03 2.814E+03 1.092E+04 1.093E+04 1.134E+07 26.0209 1.00000
  1.413E+10 1.413E+10 2.947E+00 4.897E+02 8.611E+03 3.220E+03 1.232E+04 1.232E+04 1.147E+07 26.2511 1.00000
  1.585E+10 1.585E+10 2.961E+00 5.498E+02 9.662E+03 3.684E+03 1.390E+04 1.390E+04 1.160E+07 26.4814 1.00000
  1.778E+10 1.778E+10 2.975E+00 6.172E+02 1.084E+04 4.216E+03 1.567E+04 1.568E+04 1.173E+07 26.7116 1.00000
  1.995E+10 1.995E+10 2.989E+00 6.928E+02 1.216E+04 4.824E+03 1.768E+04 1.768E+04 1.186E+07 26.9419 1.00000
  2.239E+10 2.239E+10 3.003E+00 7.778E+02 1.365E+04 5.521E+03 1.995E+04 1.995E+04 1.199E+07 27.1722 1.00000
  2.512E+10 2.512E+10 3.017E+00 8.730E+02 1.531E+04 6.318E+03 2.250E+04 2.251E+04 1.212E+07 27.4024 1.00000
  2.818E+10 2.818E+10 3.032E+00 9.799E+02 1.718E+04 7.231E+03 2.539E+04 2.540E+04 1.225E+07 27.6327 1.00000
  3.162E+10 3.162E+10 3.046E+00 1.100E+03 1.928E+04 8.277E+03 2.866E+04 2.866E+04 1.238E+07 27.8629 1.00000
  3.548E+10 3.548E+10 3.061E+00 1.235E+03 2.163E+04 9.474E+03 3.234E+04 3.234E+04 1.250E+07 28.0932 1.00000
  3.981E+10 3.981E+10 3.075E+00 1.386E+03 2.427E+04 1.085E+04 3.650E+04 3.650E+04 1.263E+07 28.3234 1.00000
  4.467E+10 4.467E+10 3.090E+00 1.555E+03 2.723E+04 1.242E+04 4.120E+04 4.120E+04 1.276E+07 28.5537 1.00000
  5.012E+10 5.012E+10 3.105E+00 1.745E+03 3.055E+04 1.421E+04 4.651E+04 4.651E+04 1.288E+07 28.7840 1.00000
  5.623E+10 5.623E+10 3.120E+00 1.959E+03 3.428E+04 1.627E+04 5.251E+04 5.251E+04 1.300E+07 29.0142 1.00000
  6.310E+10 6.310E+10 3.135E+00 2.198E+03 3.846E+04 1.863E+04 5.929E+04 5.929E+04 1.313E+07 29.2445 1.00000
  7.079E+10 7.079E+10 3.150E+00 2.467E+03 4.315E+04 2.133E+04 6.695E+04 6.696E+04 1.325E+07 29.4747 1.00000
  7.943E+10 7.943E+10 3.165E+00 2.768E+03 4.842E+04 2.443E+04 7.562E+04 7.562E+04 1.337E+07 29.7050 1.00000
  8.913E+10 8.913E+10 3.180E+00 3.107E+03 5.433E+04 2.797E+04 8.541E+04 8.541E+04 1.349E+07 29.9353 1.00000
  1.000E+11 1.000E+11 3.195E+00 3.486E+03 6.095E+04 3.203E+04 9.647E+04 9.648E+04 1.361E+07 30.1655 1.00000
  1.122E+11 1.122E+11 3.211E+00 3.912E+03 6.839E+04 3.669E+04 1.090E+05 1.090E+05 1.373E+07 30.3958 1.00000
  1.259E+11 1.259E+11 3.226E+00 4.390E+03 7.673E+04 4.202E+04 1.231E+05 1.231E+05 1.385E+07 30.6260 1.00000
  1.413E+11 1.413E+11 3.242E+00 4.926E+03 8.609E+04 4.812E+04 1.391E+05 1.391E+05 1.397E+07 30.8563 1.00000
  1.585E+11 1.585E+11 3.257E+00 5.528E+03 9.660E+04 5.512E+04 1.572E+05 1.573E+05 1.408E+07 31.0865 1.00000
  1.778E+11 1.778E+11 3.273E+00 6.203E+03 1.084E+05 6.314E+04 1.777E+05 1.777E+05 1.420E+07 31.3168 1.00000
  1.995E+11 1.995E+11 3.289E+00 6.961E+03 1.216E+05 7.233E+04 2.009E+05 2.009E+05 1.432E+07 31.5471 1.00000
  2.239E+11 2.239E+11 3.305E+00 7.810E+03 1.364E+05 8.286E+04 2.271E+05 2.271E+05 1.443E+07 31.7773 1.00000
  2.512E+11 2.512E+11 3.321E+00 8.764E+03 1.531E+05 9.493E+04 2.568E+05 2.568E+05 1.454E+07 32.0076 1.00000
  2.818E+11 2.818E+11 3.337E+00 9.834E+03 1.718E+05 1.088E+05 2.904E+05 2.904E+05 1.466E+07 32.2378 1.00000
  3.162E+11 3.162E+11 3.353E+00 1.103E+04 1.927E+05 1.246E+05 3.284E+05 3.284E+05 1.477E+07 32.4681 1.00000
  3.548E+11 3.548E+11 3.369E+00 1.238E+04 2.162E+05 1.428E+05 3.714E+05 3.714E+05 1.488E+07 32.6984 1.00000
  3.981E+11 3.981E+11 3.385E+00 1.389E+04 2.426E+05 1.636E+05 4.201E+05 4.201E+05 1.499E+07 32.9286 1.00000
  4.467E+11 4.467E+11 3.402E+00 1.559E+04 2.722E+05 1.875E+05 4.753E+05 4.753E+05 1.510E+07 33.1589 1.00000
  5.012E+11 5.012E+11 3.418E+00 1.749E+04 3.054E+05 2.149E+05 5.378E+05 5.378E+05 1.520E+07 33.3891 1.00000
  5.623E+11 5.623E+11 3.435E+00 1.963E+04 3.426E+05 2.463E+05 6.085E+05 6.085E+05 1.531E+07 33.6194 1.00000
  6.310E+11 6.310E+11 3.452E+00 2.202E+04 3.844E+05 2.823E+05 6.887E+05 6.887E+05 1.542E+07 33.8496 1.00000
  7.079E+11 7.079E+11 3.469E+00 2.471E+04 4.313E+05 3.235E+05 7.796E+05 7.796E+05 1.552E+07 34.0799 1.00000
  7.943E+11 7.943E+11 3.485E+00 2.773E+04 4.839E+05 3.709E+05 8.825E+05 8.825E+05 1.563E+07 34.3102 1.00000
  8.913E+11 8.913E+11 3.502E+00 3.111E+04 5.429E+05 4.251E+05 9.992E+05 9.992E+05 1.573E+07 34.5404 1.00000
  1.000E+12 1.000E+12 3.520E+00 3.491E+04 6.092E+05 4.874E+05 1.131E+06 1.131E+06 1.583E+07 34.7707 1.00000
  1.122E+12 1.122E+12 3.537E+00 3.917E+04 6.835E+05 5.587E+05 1.281E+06 1.281E+06 1.593E+07 35.0009 1.00000
  1.259E+12 1.259E+12 3.554E+00 4.395E+04 7.668E+05 6.406E+05 1.451E+06 1.451E+06 1.604E+07 35.2312 1.00000
  1.413E+12 1.413E+12 3.571E+00 4.931E+04 8.604E+05 7.344E+05 1.644E+06 1.644E+06 1.614E+07 35.4615 1.00000
  1.585E+12 1.585E+12 3.589E+00 5.533E+04 9.653E+05 8.421E+05 1.863E+06 1.863E+06 1.623E+07 35.6917 1.00000
  1.778E+12 1.778E+12 3.606E+00 6.208E+04 1.083E+06 9.656E+05 2.111E+06 2.111E+06 1.633E+07 35.9220 1.00000
  1.995E+12 1.995E+12 3.624E+00 6.965E+04 1.215E+06 1.107E+06 2.392E+06 2.392E+06 1.643E+07 36.1522 1.00000
  2.239E+12 2.239E+12 3.642E+00 7.815E+04 1.363E+06 1.270E+06 2.711E+06 2.711E+06 1.652E+07 36.3825 1.00000
  2.512E+12 2.512E+12 3.660E+00 8.769E+04 1.530E+06 1.456E+06 3.074E+06 3.074E+06 1.662E+07 36.6127 1.00000
  2.818E+12 2.818E+12 3.678E+00 9.839E+04 1.716E+06 1.670E+06 3.485E+06 3.485E+06 1.671E+07 36.8430 1.00000
  3.162E+12 3.162E+12 3.696E+00 1.104E+05 1.926E+06 1.916E+06 3.952E+06 3.952E+06 1.681E+07 37.0733 1.00000
  3.548E+12 3.548E+12 3.714E+00 1.239E+05 2.160E+06 2.197E+06 4.482E+06 4.482E+06 1.690E+07 37.3035 1.00000
  3.981E+12 3.981E+12 3.732E+00 1.390E+05 2.424E+06 2.520E+06 5.083E+06 5.083E+06 1.699E+07 37.5338 1.00000
  4.467E+12 4.467E+12 3.751E+00 1.559E+05 2.720E+06 2.891E+06 5.767E+06 5.767E+06 1.708E+07 37.7640 1.00000
  5.012E+12 5.012E+12 3.769E+00 1.750E+05 3.051E+06 3.317E+06 6.543E+06 6.543E+06 1.717E+07 37.9943 1.00000
  5.623E+12 5.623E+12 3.788E+00 1.963E+05 3.423E+06 3.805E+06 7.425E+06 7.425E+06 1.725E+07 38.2246 1.00000
  6.310E+12 6.310E+12 3.806E+00 2.203E+05 3.841E+06 4.365E+06 8.427E+06 8.427E+06 1.734E+07 38.4548 1.00000
  7.079E+12 7.079E+12 3.825E+00 2.472E+05 4.309E+06 5.009E+06 9.565E+06 9.565E+06 1.743E+07 38.6851 1.00000
  7.943E+12 7.943E+12 3.844E+00 2.773E+05 4.835E+06 5.747E+06 1.086E+07 1.086E+07 1.751E+07 38.9153 1.00000
  8.913E+12 8.913E+12 3.863E+00 3.111E+05 5.425E+06 6.594E+06 1.233E+07 1.233E+07 1.760E+07 39.1456 1.00000
  1.000E+13 1.000E+13 3.882E+00 3.491E+05 6.086E+06 7.567E+06 1.400E+07 1.400E+07 1.768E+07 39.3759 1.00000
  1.122E+13 1.122E+13 3.901E+00 3.917E+05 6.829E+06 8.684E+06 1.590E+07 1.590E+07 1.776E+07 39.6061 1.00000
  1.259E+13 1.259E+13 3.920E+00 4.395E+05 7.662E+06 9.966E+06 1.807E+07 1.807E+07 1.784E+07 39.8364 1.00000
  1.413E+13 1.413E+13 3.940E+00 4.931E+05 8.596E+06 1.144E+07 2.053E+07 2.053E+07 1.792E+07 40.0666 1.00000
  1.585E+13 1.585E+13 3.959E+00 5.533E+05 9.644E+06 1.313E+07 2.333E+07 2.333E+07 1.800E+07 40.2969 1.00000
  1.778E+13 1.778E+13 3.979E+00 6.208E+05 1.082E+07 1.507E+07 2.651E+07 2.651E+07 1.808E+07 40.5271 1.00000
  1.995E+13 1.995E+13 3.999E+00 6.966E+05 1.214E+07 1.730E+07 3.013E+07 3.013E+07 1.816E+07 40.7574 1.00000
  2.239E+13 2.239E+13 4.018E+00 7.816E+05 1.362E+07 1.985E+07 3.426E+07 3.426E+07 1.823E+07 40.9877 1.00000
  2.512E+13 2.512E+13 4.038E+00 8.769E+05 1.528E+07 2.279E+07 3.895E+07 3.895E+07 1.831E+07 41.2179 1.00000
  2.818E+13 2.818E+13 4.058E+00 9.839E+05 1.715E+07 2.616E+07 4.429E+07 4.429E+07 1.838E+07 41.4482 1.00000
  3.162E+13 3.162E+13 4.079E+00 1.104E+06 1.924E+07 3.004E+07 5.038E+07 5.038E+07 1.845E+07 41.6784 1.00000
  3.548E+13 3.548E+13 4.099E+00 1.239E+06 2.158E+07 3.449E+07 5.731E+07 5.731E+07 1.853E+07 41.9087 1.00000
  3.981E+13 3.981E+13 4.119E+00 1.390E+06 2.422E+07 3.960E+07 6.520E+07 6.520E+07 1.860E+07 42.1390 1.00000
  4.467E+13 4.467E+13 4.140E+00 1.559E+06 2.717E+07 4.547E+07 7.420E+07 7.420E+07 1.867E+07 42.3692 1.00000
  5.012E+13 5.012E+13 4.160E+00 1.750E+06 3.048E+07 5.221E+07 8.444E+07 8.444E+07 1.874E+07 42.5995 1.00000
  5.623E+13 5.623E+13 4.181E+00 1.963E+06 3.420E+07 5.996E+07 9.612E+07 9.612E+07 1.880E+07 42.8297 1.00000
  6.310E+13 6.310E+13 4.202E+00 2.203E+06 3.837E+07 6.885E+07 1.094E+08 1.094E+08 1.887E+07 43.0600 1.00000
  7.079E+13 7.079E+13 4.223E+00 2.472E+06 4.305E+07 7.908E+07 1.246E+08 1.246E+08 1.894E+07 43.2902 1.00000
  7.943E+13 7.943E+13 4.244E+00 2.773E+06 4.830E+07 9.082E+07 1.419E+08 1.419E+08 1.900E+07 43.5205 1.00000
  8.913E+13 8.913E+13 4.265E+00 3.112E+06 5.419E+07 1.043E+08 1.616E+08 1.616E+08 1.907E+07 43.7508 1.00000
