 Incident particle is a Tau with M = 1776.82000 MeV
 Index = 0: Technetium
      Absorber with <Z/A> = 0.43919
 Sternheimer coef:  a     k=m_s   x_0    x_1    I[eV]   Cbar  delta0
                 0.1657  2.9738  0.0949  3.1253  428.0  4.7769 0.14

 *** Table generated with PUMAS v1.00 ***

      T         p     Ionization  brems     pair     photonuc  Radloss    dE/dx   CSDA Range  delta   beta
    [MeV]    [MeV/c]  -----------------------[MeV cm^2/g]------------------------  [g/cm^2]
  1.000E+05 1.018E+05 1.763E+00 6.453E-04 1.095E-02 7.747E-03 1.934E-02 1.783E+00 2.805E+04  3.7389 0.99985
  1.122E+05 1.140E+05 1.782E+00 7.474E-04 1.312E-02 8.708E-03 2.258E-02 1.805E+00 3.485E+04  3.9220 0.99988
  1.259E+05 1.277E+05 1.801E+00 8.653E-04 1.568E-02 9.738E-03 2.628E-02 1.827E+00 4.239E+04  4.1086 0.99990
  1.413E+05 1.430E+05 1.819E+00 1.001E-03 1.868E-02 1.089E-02 3.057E-02 1.849E+00 5.075E+04  4.2984 0.99992
  1.585E+05 1.603E+05 1.837E+00 1.158E-03 2.220E-02 1.218E-02 3.553E-02 1.873E+00 6.001E+04  4.4914 0.99994
  1.778E+05 1.796E+05 1.855E+00 1.338E-03 2.631E-02 1.361E-02 4.126E-02 1.896E+00 7.027E+04  4.6874 0.99995
  1.995E+05 2.013E+05 1.873E+00 1.546E-03 3.112E-02 1.523E-02 4.789E-02 1.921E+00 8.164E+04  4.8863 0.99996
  2.239E+05 2.256E+05 1.891E+00 1.784E-03 3.671E-02 1.699E-02 5.549E-02 1.946E+00 9.423E+04  5.0879 0.99997
  2.512E+05 2.530E+05 1.908E+00 2.059E-03 4.322E-02 1.896E-02 6.425E-02 1.973E+00 1.082E+05  5.2921 0.99998
  2.818E+05 2.836E+05 1.926E+00 2.374E-03 5.078E-02 2.118E-02 7.433E-02 2.000E+00 1.236E+05  5.4989 0.99998
  3.162E+05 3.180E+05 1.943E+00 2.737E-03 5.953E-02 2.367E-02 8.594E-02 2.029E+00 1.407E+05  5.7080 0.99998
  3.548E+05 3.566E+05 1.960E+00 3.153E-03 6.966E-02 2.645E-02 9.927E-02 2.060E+00 1.595E+05  5.9194 0.99999
  3.981E+05 3.999E+05 1.977E+00 3.630E-03 8.136E-02 2.955E-02 1.145E-01 2.092E+00 1.804E+05  6.1328 0.99999
  4.467E+05 4.485E+05 1.994E+00 4.178E-03 9.485E-02 3.301E-02 1.320E-01 2.126E+00 2.034E+05  6.3483 0.99999
  5.012E+05 5.030E+05 2.011E+00 4.805E-03 1.104E-01 3.690E-02 1.521E-01 2.163E+00 2.289E+05  6.5656 0.99999
  5.623E+05 5.641E+05 2.028E+00 5.524E-03 1.283E-01 4.109E-02 1.749E-01 2.202E+00 2.569E+05  6.7846 1.00000
  6.310E+05 6.327E+05 2.044E+00 6.348E-03 1.488E-01 4.580E-02 2.009E-01 2.245E+00 2.877E+05  7.0053 1.00000
  7.079E+05 7.097E+05 2.060E+00 7.291E-03 1.723E-01 5.110E-02 2.307E-01 2.291E+00 3.217E+05  7.2274 1.00000
  7.943E+05 7.961E+05 2.076E+00 8.371E-03 1.993E-01 5.708E-02 2.648E-01 2.341E+00 3.590E+05  7.4509 1.00000
  8.913E+05 8.930E+05 2.092E+00 9.606E-03 2.302E-01 6.382E-02 3.036E-01 2.396E+00 3.999E+05  7.6756 1.00000
  1.000E+06 1.002E+06 2.108E+00 1.102E-02 2.655E-01 7.143E-02 3.479E-01 2.456E+00 4.447E+05  7.9014 1.00000
  1.122E+06 1.124E+06 2.124E+00 1.263E-02 3.058E-01 8.003E-02 3.985E-01 2.522E+00 4.938E+05  8.1282 1.00000
  1.259E+06 1.261E+06 2.140E+00 1.448E-02 3.518E-01 8.975E-02 4.560E-01 2.596E+00 5.473E+05  8.3558 1.00000
  1.413E+06 1.414E+06 2.155E+00 1.659E-02 4.041E-01 1.008E-01 5.215E-01 2.676E+00 6.056E+05  8.5842 1.00000
  1.585E+06 1.587E+06 2.170E+00 1.899E-02 4.637E-01 1.132E-01 5.959E-01 2.766E+00 6.689E+05  8.8132 1.00000
  1.778E+06 1.780E+06 2.185E+00 2.174E-02 5.315E-01 1.273E-01 6.806E-01 2.866E+00 7.376E+05  9.0426 1.00000
  1.995E+06 1.997E+06 2.200E+00 2.488E-02 6.085E-01 1.433E-01 7.768E-01 2.977E+00 8.119E+05  9.2724 1.00000
  2.239E+06 2.240E+06 2.215E+00 2.846E-02 6.960E-01 1.615E-01 8.859E-01 3.101E+00 8.920E+05  9.5024 1.00000
  2.512E+06 2.514E+06 2.230E+00 3.254E-02 7.951E-01 1.821E-01 1.010E+00 3.240E+00 9.782E+05  9.7324 1.00000
  2.818E+06 2.820E+06 2.245E+00 3.719E-02 9.076E-01 2.056E-01 1.150E+00 3.395E+00 1.071E+06  9.9625 1.00000
  3.162E+06 3.164E+06 2.259E+00 4.249E-02 1.035E+00 2.322E-01 1.310E+00 3.569E+00 1.170E+06 10.1927 1.00000
  3.548E+06 3.550E+06 2.274E+00 4.853E-02 1.179E+00 2.624E-01 1.490E+00 3.764E+00 1.275E+06 10.4228 1.00000
  3.981E+06 3.983E+06 2.288E+00 5.541E-02 1.342E+00 2.968E-01 1.694E+00 3.982E+00 1.387E+06 10.6530 1.00000
  4.467E+06 4.469E+06 2.302E+00 6.324E-02 1.526E+00 3.360E-01 1.925E+00 4.227E+00 1.505E+06 10.8831 1.00000
  5.012E+06 5.014E+06 2.316E+00 7.215E-02 1.734E+00 3.805E-01 2.187E+00 4.503E+00 1.630E+06 11.1133 1.00000
  5.623E+06 5.625E+06 2.330E+00 8.230E-02 1.969E+00 4.312E-01 2.483E+00 4.813E+00 1.762E+06 11.3435 1.00000
  6.310E+06 6.311E+06 2.343E+00 9.383E-02 2.235E+00 4.889E-01 2.817E+00 5.161E+00 1.899E+06 11.5737 1.00000
  7.079E+06 7.081E+06 2.357E+00 1.070E-01 2.534E+00 5.546E-01 3.195E+00 5.552E+00 2.043E+06 11.8039 1.00000
  7.943E+06 7.945E+06 2.370E+00 1.219E-01 2.871E+00 6.295E-01 3.622E+00 5.993E+00 2.193E+06 12.0341 1.00000
  8.913E+06 8.914E+06 2.384E+00 1.388E-01 3.251E+00 7.148E-01 4.105E+00 6.488E+00 2.349E+06 12.2643 1.00000
  1.000E+07 1.000E+07 2.397E+00 1.581E-01 3.680E+00 8.119E-01 4.650E+00 7.046E+00 2.510E+06 12.4945 1.00000
  1.122E+07 1.122E+07 2.410E+00 1.799E-01 4.162E+00 9.227E-01 5.265E+00 7.675E+00 2.676E+06 12.7247 1.00000
  1.259E+07 1.259E+07 2.423E+00 2.048E-01 4.705E+00 1.049E+00 5.959E+00 8.382E+00 2.847E+06 12.9549 1.00000
  1.413E+07 1.413E+07 2.435E+00 2.329E-01 5.317E+00 1.193E+00 6.743E+00 9.178E+00 3.022E+06 13.1852 1.00000
  1.585E+07 1.585E+07 2.448E+00 2.649E-01 6.005E+00 1.357E+00 7.627E+00 1.008E+01 3.201E+06 13.4154 1.00000
  1.778E+07 1.778E+07 2.461E+00 3.012E-01 6.779E+00 1.544E+00 8.624E+00 1.109E+01 3.385E+06 13.6456 1.00000
  1.995E+07 1.995E+07 2.473E+00 3.423E-01 7.649E+00 1.758E+00 9.750E+00 1.222E+01 3.571E+06 13.8759 1.00000
  2.239E+07 2.239E+07 2.486E+00 3.889E-01 8.628E+00 2.002E+00 1.102E+01 1.350E+01 3.761E+06 14.1061 1.00000
  2.512E+07 2.512E+07 2.498E+00 4.417E-01 9.729E+00 2.279E+00 1.245E+01 1.495E+01 3.953E+06 14.3363 1.00000
  2.818E+07 2.819E+07 2.510E+00 5.016E-01 1.097E+01 2.597E+00 1.406E+01 1.657E+01 4.148E+06 14.5666 1.00000
  3.162E+07 3.162E+07 2.523E+00 5.693E-01 1.236E+01 2.958E+00 1.588E+01 1.841E+01 4.346E+06 14.7968 1.00000
  3.548E+07 3.548E+07 2.535E+00 6.461E-01 1.392E+01 3.371E+00 1.794E+01 2.047E+01 4.545E+06 15.0271 1.00000
  3.981E+07 3.981E+07 2.547E+00 7.329E-01 1.567E+01 3.843E+00 2.025E+01 2.280E+01 4.745E+06 15.2573 1.00000
  4.467E+07 4.467E+07 2.559E+00 8.312E-01 1.765E+01 4.380E+00 2.286E+01 2.542E+01 4.947E+06 15.4876 1.00000
  5.012E+07 5.012E+07 2.572E+00 9.423E-01 1.986E+01 4.994E+00 2.580E+01 2.837E+01 5.151E+06 15.7178 1.00000
  5.623E+07 5.624E+07 2.584E+00 1.068E+00 2.235E+01 5.695E+00 2.911E+01 3.170E+01 5.355E+06 15.9481 1.00000
  6.310E+07 6.310E+07 2.596E+00 1.210E+00 2.514E+01 6.495E+00 3.285E+01 3.544E+01 5.560E+06 16.1783 1.00000
  7.079E+07 7.080E+07 2.608E+00 1.371E+00 2.828E+01 7.409E+00 3.706E+01 3.967E+01 5.766E+06 16.4086 1.00000
  7.943E+07 7.943E+07 2.620E+00 1.552E+00 3.180E+01 8.452E+00 4.181E+01 4.443E+01 5.972E+06 16.6388 1.00000
  8.913E+07 8.913E+07 2.633E+00 1.757E+00 3.576E+01 9.643E+00 4.716E+01 4.979E+01 6.178E+06 16.8691 1.00000
  1.000E+08 1.000E+08 2.645E+00 1.988E+00 4.020E+01 1.100E+01 5.319E+01 5.584E+01 6.385E+06 17.0993 1.00000
  1.122E+08 1.122E+08 2.657E+00 2.249E+00 4.518E+01 1.256E+01 5.999E+01 6.265E+01 6.591E+06 17.3296 1.00000
  1.259E+08 1.259E+08 2.670E+00 2.544E+00 5.078E+01 1.433E+01 6.766E+01 7.033E+01 6.798E+06 17.5598 1.00000
  1.413E+08 1.413E+08 2.682E+00 2.876E+00 5.706E+01 1.636E+01 7.630E+01 7.898E+01 7.004E+06 17.7901 1.00000
  1.585E+08 1.585E+08 2.694E+00 3.251E+00 6.412E+01 1.867E+01 8.604E+01 8.873E+01 7.211E+06 18.0204 1.00000
  1.778E+08 1.778E+08 2.707E+00 3.673E+00 7.203E+01 2.131E+01 9.702E+01 9.973E+01 7.417E+06 18.2506 1.00000
  1.995E+08 1.995E+08 2.719E+00 4.150E+00 8.091E+01 2.433E+01 1.094E+02 1.121E+02 7.622E+06 18.4809 1.00000
  2.239E+08 2.239E+08 2.732E+00 4.687E+00 9.089E+01 2.778E+01 1.234E+02 1.261E+02 7.827E+06 18.7111 1.00000
  2.512E+08 2.512E+08 2.744E+00 5.292E+00 1.021E+02 3.173E+01 1.391E+02 1.418E+02 8.032E+06 18.9414 1.00000
  2.818E+08 2.818E+08 2.757E+00 5.973E+00 1.146E+02 3.623E+01 1.568E+02 1.596E+02 8.236E+06 19.1716 1.00000
  3.162E+08 3.162E+08 2.770E+00 6.740E+00 1.287E+02 4.138E+01 1.768E+02 1.796E+02 8.439E+06 19.4019 1.00000
  3.548E+08 3.548E+08 2.782E+00 7.605E+00 1.445E+02 4.725E+01 1.994E+02 2.022E+02 8.642E+06 19.6322 1.00000
  3.981E+08 3.981E+08 2.795E+00 8.577E+00 1.623E+02 5.397E+01 2.248E+02 2.276E+02 8.844E+06 19.8624 1.00000
  4.467E+08 4.467E+08 2.808E+00 9.672E+00 1.822E+02 6.165E+01 2.535E+02 2.563E+02 9.046E+06 20.0927 1.00000
  5.012E+08 5.012E+08 2.821E+00 1.090E+01 2.046E+02 7.043E+01 2.859E+02 2.887E+02 9.247E+06 20.3229 1.00000
  5.623E+08 5.623E+08 2.834E+00 1.229E+01 2.297E+02 8.046E+01 3.224E+02 3.252E+02 9.447E+06 20.5532 1.00000
  6.310E+08 6.310E+08 2.847E+00 1.385E+01 2.578E+02 9.192E+01 3.636E+02 3.664E+02 9.646E+06 20.7834 1.00000
  7.079E+08 7.079E+08 2.860E+00 1.560E+01 2.894E+02 1.050E+02 4.100E+02 4.129E+02 9.844E+06 21.0137 1.00000
  7.943E+08 7.943E+08 2.873E+00 1.757E+01 3.248E+02 1.200E+02 4.624E+02 4.653E+02 1.004E+07 21.2440 1.00000
  8.913E+08 8.913E+08 2.886E+00 1.979E+01 3.646E+02 1.371E+02 5.215E+02 5.244E+02 1.024E+07 21.4742 1.00000
  1.000E+09 1.000E+09 2.900E+00 2.228E+01 4.092E+02 1.567E+02 5.882E+02 5.911E+02 1.043E+07 21.7045 1.00000
  1.122E+09 1.122E+09 2.913E+00 2.509E+01 4.593E+02 1.791E+02 6.634E+02 6.664E+02 1.063E+07 21.9347 1.00000
  1.259E+09 1.259E+09 2.927E+00 2.823E+01 5.155E+02 2.047E+02 7.484E+02 7.513E+02 1.082E+07 22.1650 1.00000
  1.413E+09 1.413E+09 2.940E+00 3.177E+01 5.785E+02 2.339E+02 8.442E+02 8.471E+02 1.102E+07 22.3952 1.00000
  1.585E+09 1.585E+09 2.954E+00 3.575E+01 6.492E+02 2.674E+02 9.524E+02 9.553E+02 1.121E+07 22.6255 1.00000
  1.778E+09 1.778E+09 2.967E+00 4.021E+01 7.286E+02 3.056E+02 1.074E+03 1.077E+03 1.140E+07 22.8558 1.00000
  1.995E+09 1.995E+09 2.981E+00 4.523E+01 8.177E+02 3.494E+02 1.212E+03 1.215E+03 1.159E+07 23.0860 1.00000
  2.239E+09 2.239E+09 2.995E+00 5.087E+01 9.176E+02 3.994E+02 1.368E+03 1.371E+03 1.178E+07 23.3163 1.00000
  2.512E+09 2.512E+09 3.009E+00 5.720E+01 1.030E+03 4.566E+02 1.544E+03 1.547E+03 1.196E+07 23.5465 1.00000
  2.818E+09 2.818E+09 3.023E+00 6.431E+01 1.156E+03 5.220E+02 1.742E+03 1.745E+03 1.215E+07 23.7768 1.00000
  3.162E+09 3.162E+09 3.037E+00 7.229E+01 1.297E+03 5.969E+02 1.966E+03 1.969E+03 1.234E+07 24.0071 1.00000
  3.548E+09 3.548E+09 3.051E+00 8.125E+01 1.455E+03 6.825E+02 2.219E+03 2.222E+03 1.252E+07 24.2373 1.00000
  3.981E+09 3.981E+09 3.065E+00 9.132E+01 1.633E+03 7.805E+02 2.505E+03 2.508E+03 1.271E+07 24.4676 1.00000
  4.467E+09 4.467E+09 3.080E+00 1.026E+02 1.832E+03 8.925E+02 2.827E+03 2.830E+03 1.289E+07 24.6978 1.00000
  5.012E+09 5.012E+09 3.094E+00 1.153E+02 2.056E+03 1.021E+03 3.192E+03 3.195E+03 1.307E+07 24.9281 1.00000
  5.623E+09 5.623E+09 3.108E+00 1.295E+02 2.307E+03 1.167E+03 3.604E+03 3.607E+03 1.325E+07 25.1583 1.00000
  6.310E+09 6.310E+09 3.123E+00 1.455E+02 2.589E+03 1.335E+03 4.069E+03 4.072E+03 1.343E+07 25.3886 1.00000
  7.079E+09 7.079E+09 3.138E+00 1.635E+02 2.905E+03 1.527E+03 4.595E+03 4.598E+03 1.361E+07 25.6189 1.00000
  7.943E+09 7.943E+09 3.152E+00 1.836E+02 3.259E+03 1.747E+03 5.190E+03 5.193E+03 1.379E+07 25.8491 1.00000
  8.913E+09 8.913E+09 3.167E+00 2.063E+02 3.657E+03 1.998E+03 5.861E+03 5.865E+03 1.396E+07 26.0794 1.00000
  1.000E+10 1.000E+10 3.182E+00 2.316E+02 4.103E+03 2.286E+03 6.621E+03 6.624E+03 1.414E+07 26.3096 1.00000
  1.122E+10 1.122E+10 3.197E+00 2.601E+02 4.604E+03 2.615E+03 7.479E+03 7.483E+03 1.431E+07 26.5399 1.00000
  1.259E+10 1.259E+10 3.212E+00 2.921E+02 5.166E+03 2.992E+03 8.450E+03 8.453E+03 1.448E+07 26.7702 1.00000
  1.413E+10 1.413E+10 3.227E+00 3.280E+02 5.796E+03 3.424E+03 9.548E+03 9.551E+03 1.465E+07 27.0004 1.00000
  1.585E+10 1.585E+10 3.242E+00 3.683E+02 6.504E+03 3.917E+03 1.079E+04 1.079E+04 1.482E+07 27.2307 1.00000
  1.778E+10 1.778E+10 3.258E+00 4.135E+02 7.297E+03 4.483E+03 1.219E+04 1.220E+04 1.499E+07 27.4609 1.00000
  1.995E+10 1.995E+10 3.273E+00 4.642E+02 8.188E+03 5.130E+03 1.378E+04 1.378E+04 1.516E+07 27.6912 1.00000
  2.239E+10 2.239E+10 3.288E+00 5.211E+02 9.187E+03 5.870E+03 1.558E+04 1.558E+04 1.533E+07 27.9215 1.00000
  2.512E+10 2.512E+10 3.304E+00 5.850E+02 1.031E+04 6.718E+03 1.761E+04 1.761E+04 1.549E+07 28.1517 1.00000
  2.818E+10 2.818E+10 3.320E+00 6.567E+02 1.157E+04 7.689E+03 1.991E+04 1.992E+04 1.566E+07 28.3820 1.00000
  3.162E+10 3.162E+10 3.335E+00 7.371E+02 1.298E+04 8.801E+03 2.252E+04 2.252E+04 1.582E+07 28.6122 1.00000
  3.548E+10 3.548E+10 3.351E+00 8.274E+02 1.456E+04 1.007E+04 2.546E+04 2.547E+04 1.598E+07 28.8425 1.00000
  3.981E+10 3.981E+10 3.367E+00 9.286E+02 1.634E+04 1.153E+04 2.880E+04 2.880E+04 1.614E+07 29.0727 1.00000
  4.467E+10 4.467E+10 3.383E+00 1.042E+03 1.833E+04 1.320E+04 3.257E+04 3.258E+04 1.630E+07 29.3030 1.00000
  5.012E+10 5.012E+10 3.399E+00 1.170E+03 2.057E+04 1.511E+04 3.685E+04 3.685E+04 1.646E+07 29.5333 1.00000
  5.623E+10 5.623E+10 3.415E+00 1.313E+03 2.308E+04 1.730E+04 4.169E+04 4.169E+04 1.661E+07 29.7635 1.00000
  6.310E+10 6.310E+10 3.432E+00 1.474E+03 2.589E+04 1.981E+04 4.718E+04 4.718E+04 1.677E+07 29.9938 1.00000
  7.079E+10 7.079E+10 3.448E+00 1.654E+03 2.905E+04 2.268E+04 5.339E+04 5.339E+04 1.692E+07 30.2240 1.00000
  7.943E+10 7.943E+10 3.464E+00 1.856E+03 3.259E+04 2.597E+04 6.042E+04 6.043E+04 1.707E+07 30.4543 1.00000
  8.913E+10 8.913E+10 3.481E+00 2.083E+03 3.657E+04 2.974E+04 6.840E+04 6.840E+04 1.723E+07 30.6846 1.00000
  1.000E+11 1.000E+11 3.498E+00 2.337E+03 4.103E+04 3.406E+04 7.743E+04 7.743E+04 1.737E+07 30.9148 1.00000
  1.122E+11 1.122E+11 3.514E+00 2.623E+03 4.604E+04 3.901E+04 8.767E+04 8.767E+04 1.752E+07 31.1451 1.00000
  1.259E+11 1.259E+11 3.531E+00 2.943E+03 5.165E+04 4.468E+04 9.927E+04 9.928E+04 1.767E+07 31.3753 1.00000
  1.413E+11 1.413E+11 3.548E+00 3.303E+03 5.795E+04 5.117E+04 1.124E+05 1.124E+05 1.782E+07 31.6056 1.00000
  1.585E+11 1.585E+11 3.565E+00 3.706E+03 6.502E+04 5.861E+04 1.273E+05 1.273E+05 1.796E+07 31.8358 1.00000
  1.778E+11 1.778E+11 3.582E+00 4.159E+03 7.296E+04 6.714E+04 1.443E+05 1.443E+05 1.810E+07 32.0661 1.00000
  1.995E+11 1.995E+11 3.599E+00 4.667E+03 8.186E+04 7.691E+04 1.634E+05 1.634E+05 1.824E+07 32.2964 1.00000
  2.239E+11 2.239E+11 3.617E+00 5.237E+03 9.184E+04 8.811E+04 1.852E+05 1.852E+05 1.839E+07 32.5266 1.00000
  2.512E+11 2.512E+11 3.634E+00 5.877E+03 1.030E+05 1.009E+05 2.099E+05 2.099E+05 1.852E+07 32.7569 1.00000
  2.818E+11 2.818E+11 3.652E+00 6.594E+03 1.156E+05 1.157E+05 2.379E+05 2.379E+05 1.866E+07 32.9871 1.00000
  3.162E+11 3.162E+11 3.669E+00 7.399E+03 1.297E+05 1.325E+05 2.696E+05 2.696E+05 1.880E+07 33.2174 1.00000
  3.548E+11 3.548E+11 3.687E+00 8.303E+03 1.455E+05 1.518E+05 3.057E+05 3.057E+05 1.893E+07 33.4477 1.00000
  3.981E+11 3.981E+11 3.705E+00 9.316E+03 1.633E+05 1.740E+05 3.466E+05 3.466E+05 1.907E+07 33.6779 1.00000
  4.467E+11 4.467E+11 3.723E+00 1.045E+04 1.832E+05 1.994E+05 3.931E+05 3.931E+05 1.920E+07 33.9082 1.00000
  5.012E+11 5.012E+11 3.741E+00 1.173E+04 2.056E+05 2.285E+05 4.458E+05 4.458E+05 1.933E+07 34.1384 1.00000
  5.623E+11 5.623E+11 3.759E+00 1.316E+04 2.306E+05 2.619E+05 5.057E+05 5.057E+05 1.946E+07 34.3687 1.00000
  6.310E+11 6.310E+11 3.777E+00 1.477E+04 2.588E+05 3.002E+05 5.737E+05 5.737E+05 1.958E+07 34.5989 1.00000
  7.079E+11 7.079E+11 3.795E+00 1.657E+04 2.903E+05 3.440E+05 6.509E+05 6.509E+05 1.971E+07 34.8292 1.00000
  7.943E+11 7.943E+11 3.814E+00 1.859E+04 3.257E+05 3.944E+05 7.387E+05 7.387E+05 1.984E+07 35.0595 1.00000
  8.913E+11 8.913E+11 3.832E+00 2.086E+04 3.655E+05 4.521E+05 8.384E+05 8.384E+05 1.996E+07 35.2897 1.00000
  1.000E+12 1.000E+12 3.851E+00 2.341E+04 4.101E+05 5.182E+05 9.517E+05 9.517E+05 2.008E+07 35.5200 1.00000
  1.122E+12 1.122E+12 3.869E+00 2.626E+04 4.601E+05 5.941E+05 1.080E+06 1.080E+06 2.020E+07 35.7502 1.00000
  1.259E+12 1.259E+12 3.888E+00 2.947E+04 5.162E+05 6.811E+05 1.227E+06 1.227E+06 2.032E+07 35.9805 1.00000
  1.413E+12 1.413E+12 3.907E+00 3.307E+04 5.792E+05 7.810E+05 1.393E+06 1.393E+06 2.044E+07 36.2108 1.00000
  1.585E+12 1.585E+12 3.926E+00 3.710E+04 6.498E+05 8.954E+05 1.582E+06 1.582E+06 2.055E+07 36.4410 1.00000
  1.778E+12 1.778E+12 3.945E+00 4.163E+04 7.291E+05 1.027E+06 1.797E+06 1.797E+06 2.067E+07 36.6713 1.00000
  1.995E+12 1.995E+12 3.965E+00 4.671E+04 8.180E+05 1.177E+06 2.042E+06 2.042E+06 2.078E+07 36.9015 1.00000
  2.239E+12 2.239E+12 3.984E+00 5.241E+04 9.178E+05 1.350E+06 2.320E+06 2.320E+06 2.090E+07 37.1318 1.00000
  2.512E+12 2.512E+12 4.003E+00 5.881E+04 1.030E+06 1.548E+06 2.637E+06 2.637E+06 2.101E+07 37.3620 1.00000
  2.818E+12 2.818E+12 4.023E+00 6.598E+04 1.155E+06 1.776E+06 2.997E+06 2.997E+06 2.111E+07 37.5923 1.00000
  3.162E+12 3.162E+12 4.043E+00 7.403E+04 1.296E+06 2.037E+06 3.407E+06 3.407E+06 2.122E+07 37.8226 1.00000
  3.548E+12 3.548E+12 4.062E+00 8.307E+04 1.454E+06 2.336E+06 3.874E+06 3.874E+06 2.133E+07 38.0528 1.00000
  3.981E+12 3.981E+12 4.082E+00 9.320E+04 1.632E+06 2.680E+06 4.405E+06 4.405E+06 2.143E+07 38.2831 1.00000
  4.467E+12 4.467E+12 4.102E+00 1.046E+05 1.831E+06 3.074E+06 5.010E+06 5.010E+06 2.154E+07 38.5133 1.00000
  5.012E+12 5.012E+12 4.122E+00 1.173E+05 2.054E+06 3.527E+06 5.698E+06 5.698E+06 2.164E+07 38.7436 1.00000
  5.623E+12 5.623E+12 4.143E+00 1.317E+05 2.305E+06 4.046E+06 6.482E+06 6.482E+06 2.174E+07 38.9739 1.00000
  6.310E+12 6.310E+12 4.163E+00 1.477E+05 2.586E+06 4.642E+06 7.375E+06 7.375E+06 2.184E+07 39.2041 1.00000
  7.079E+12 7.079E+12 4.183E+00 1.657E+05 2.901E+06 5.326E+06 8.393E+06 8.393E+06 2.194E+07 39.4344 1.00000
  7.943E+12 7.943E+12 4.204E+00 1.860E+05 3.255E+06 6.111E+06 9.552E+06 9.552E+06 2.204E+07 39.6646 1.00000
  8.913E+12 8.913E+12 4.225E+00 2.087E+05 3.652E+06 7.012E+06 1.087E+07 1.087E+07 2.213E+07 39.8949 1.00000
  1.000E+13 1.000E+13 4.245E+00 2.341E+05 4.097E+06 8.047E+06 1.238E+07 1.238E+07 2.222E+07 40.1252 1.00000
  1.122E+13 1.122E+13 4.266E+00 2.627E+05 4.597E+06 9.234E+06 1.409E+07 1.409E+07 2.232E+07 40.3554 1.00000
  1.259E+13 1.259E+13 4.287E+00 2.947E+05 5.157E+06 1.060E+07 1.605E+07 1.605E+07 2.241E+07 40.5857 1.00000
  1.413E+13 1.413E+13 4.308E+00 3.307E+05 5.786E+06 1.216E+07 1.828E+07 1.828E+07 2.250E+07 40.8159 1.00000
  1.585E+13 1.585E+13 4.330E+00 3.711E+05 6.492E+06 1.396E+07 2.082E+07 2.082E+07 2.259E+07 41.0462 1.00000
  1.778E+13 1.778E+13 4.351E+00 4.163E+05 7.284E+06 1.602E+07 2.372E+07 2.372E+07 2.267E+07 41.2764 1.00000
  1.995E+13 1.995E+13 4.372E+00 4.671E+05 8.172E+06 1.839E+07 2.703E+07 2.703E+07 2.276E+07 41.5067 1.00000
  2.239E+13 2.239E+13 4.394E+00 5.241E+05 9.169E+06 2.111E+07 3.080E+07 3.080E+07 2.284E+07 41.7370 1.00000
  2.512E+13 2.512E+13 4.416E+00 5.881E+05 1.029E+07 2.424E+07 3.511E+07 3.511E+07 2.293E+07 41.9672 1.00000
  2.818E+13 2.818E+13 4.437E+00 6.599E+05 1.154E+07 2.782E+07 4.002E+07 4.002E+07 2.301E+07 42.1975 1.00000
  3.162E+13 3.162E+13 4.459E+00 7.404E+05 1.295E+07 3.194E+07 4.563E+07 4.563E+07 2.309E+07 42.4277 1.00000
  3.548E+13 3.548E+13 4.481E+00 8.307E+05 1.453E+07 3.667E+07 5.203E+07 5.203E+07 2.317E+07 42.6580 1.00000
  3.981E+13 3.981E+13 4.504E+00 9.321E+05 1.630E+07 4.211E+07 5.934E+07 5.934E+07 2.325E+07 42.8883 1.00000
  4.467E+13 4.467E+13 4.526E+00 1.046E+06 1.829E+07 4.835E+07 6.768E+07 6.768E+07 2.332E+07 43.1185 1.00000
  5.012E+13 5.012E+13 4.548E+00 1.173E+06 2.052E+07 5.552E+07 7.721E+07 7.721E+07 2.340E+07 43.3488 1.00000
  5.623E+13 5.623E+13 4.571E+00 1.317E+06 2.302E+07 6.376E+07 8.809E+07 8.809E+07 2.347E+07 43.5790 1.00000
  6.310E+13 6.310E+13 4.593E+00 1.477E+06 2.583E+07 7.322E+07 1.005E+08 1.005E+08 2.355E+07 43.8093 1.00000
  7.079E+13 7.079E+13 4.616E+00 1.658E+06 2.898E+07 8.409E+07 1.147E+08 1.147E+08 2.362E+07 44.0395 1.00000
  7.943E+13 7.943E+13 4.639E+00 1.860E+06 3.251E+07 9.657E+07 1.309E+08 1.309E+08 2.369E+07 44.2698 1.00000
  8.913E+13 8.913E+13 4.662E+00 2.087E+06 3.648E+07 1.109E+08 1.495E+08 1.495E+08 2.376E+07 44.5001 1.00000
