 Incident particle is a Tau with M = 1776.82000 MeV
 Index = 0: Teflon
      Absorber with <Z/A> = 0.47993
 Sternheimer coef:  a     k=m_s   x_0    x_1    I[eV]   Cbar  delta0
                 0.1061  3.4046  0.1648  2.7404   99.1  3.4161 0.00

 *** Table generated with PUMAS v1.00 ***

      T         p     Ionization  brems     pair     photonuc  Radloss    dE/dx   CSDA Range  delta   beta
    [MeV]    [MeV/c]  -----------------------[MeV cm^2/g]------------------------  [g/cm^2]
  1.000E+05 1.018E+05 2.066E+00 1.545E-04 2.413E-03 8.252E-03 1.082E-02 2.077E+00 2.408E+04  4.7794 0.99985
  1.122E+05 1.140E+05 2.084E+00 1.785E-04 2.909E-03 9.313E-03 1.240E-02 2.097E+00 2.992E+04  4.9899 0.99988
  1.259E+05 1.277E+05 2.103E+00 2.061E-04 3.494E-03 1.046E-02 1.416E-02 2.117E+00 3.642E+04  5.2027 0.99990
  1.413E+05 1.430E+05 2.121E+00 2.379E-04 4.183E-03 1.174E-02 1.616E-02 2.137E+00 4.365E+04  5.4176 0.99992
  1.585E+05 1.603E+05 2.139E+00 2.745E-04 4.993E-03 1.318E-02 1.844E-02 2.157E+00 5.167E+04  5.6344 0.99994
  1.778E+05 1.796E+05 2.157E+00 3.166E-04 5.943E-03 1.478E-02 2.104E-02 2.178E+00 6.060E+04  5.8530 0.99995
  1.995E+05 2.013E+05 2.175E+00 3.649E-04 7.055E-03 1.661E-02 2.403E-02 2.199E+00 7.051E+04  6.0732 0.99996
  2.239E+05 2.256E+05 2.193E+00 4.205E-04 8.355E-03 1.861E-02 2.738E-02 2.220E+00 8.153E+04  6.2950 0.99997
  2.512E+05 2.530E+05 2.211E+00 4.842E-04 9.870E-03 2.085E-02 3.120E-02 2.242E+00 9.377E+04  6.5180 0.99998
  2.818E+05 2.836E+05 2.229E+00 5.574E-04 1.163E-02 2.337E-02 3.556E-02 2.264E+00 1.074E+05  6.7422 0.99998
  3.162E+05 3.180E+05 2.246E+00 6.414E-04 1.368E-02 2.621E-02 4.054E-02 2.287E+00 1.225E+05  6.9675 0.99998
  3.548E+05 3.566E+05 2.264E+00 7.377E-04 1.606E-02 2.941E-02 4.621E-02 2.310E+00 1.393E+05  7.1938 0.99999
  3.981E+05 3.999E+05 2.281E+00 8.481E-04 1.882E-02 3.297E-02 5.264E-02 2.334E+00 1.579E+05  7.4208 0.99999
  4.467E+05 4.485E+05 2.299E+00 9.746E-04 2.201E-02 3.697E-02 5.995E-02 2.359E+00 1.786E+05  7.6485 0.99999
  5.012E+05 5.030E+05 2.316E+00 1.120E-03 2.569E-02 4.146E-02 6.827E-02 2.385E+00 2.016E+05  7.8768 0.99999
  5.623E+05 5.641E+05 2.334E+00 1.286E-03 2.994E-02 4.633E-02 7.755E-02 2.411E+00 2.271E+05  8.1056 1.00000
  6.310E+05 6.327E+05 2.351E+00 1.476E-03 3.483E-02 5.182E-02 8.812E-02 2.439E+00 2.554E+05  8.3347 1.00000
  7.079E+05 7.097E+05 2.368E+00 1.693E-03 4.047E-02 5.800E-02 1.002E-01 2.469E+00 2.868E+05  8.5641 1.00000
  7.943E+05 7.961E+05 2.386E+00 1.942E-03 4.694E-02 6.499E-02 1.139E-01 2.500E+00 3.215E+05  8.7937 1.00000
  8.913E+05 8.930E+05 2.403E+00 2.227E-03 5.438E-02 7.289E-02 1.295E-01 2.532E+00 3.601E+05  9.0235 1.00000
  1.000E+06 1.002E+06 2.420E+00 2.553E-03 6.290E-02 8.182E-02 1.473E-01 2.567E+00 4.027E+05  9.2533 1.00000
  1.122E+06 1.124E+06 2.437E+00 2.926E-03 7.267E-02 9.192E-02 1.675E-01 2.604E+00 4.499E+05  9.4832 1.00000
  1.259E+06 1.261E+06 2.454E+00 3.352E-03 8.384E-02 1.034E-01 1.906E-01 2.644E+00 5.021E+05  9.7131 1.00000
  1.413E+06 1.414E+06 2.470E+00 3.839E-03 9.661E-02 1.163E-01 2.168E-01 2.687E+00 5.597E+05  9.9430 1.00000
  1.585E+06 1.587E+06 2.487E+00 4.395E-03 1.112E-01 1.310E-01 2.466E-01 2.734E+00 6.233E+05 10.1730 1.00000
  1.778E+06 1.780E+06 2.503E+00 5.030E-03 1.278E-01 1.477E-01 2.806E-01 2.784E+00 6.934E+05 10.4030 1.00000
  1.995E+06 1.997E+06 2.520E+00 5.756E-03 1.468E-01 1.666E-01 3.192E-01 2.839E+00 7.706E+05 10.6331 1.00000
  2.239E+06 2.240E+06 2.536E+00 6.585E-03 1.684E-01 1.881E-01 3.631E-01 2.899E+00 8.555E+05 10.8632 1.00000
  2.512E+06 2.514E+06 2.552E+00 7.530E-03 1.929E-01 2.125E-01 4.130E-01 2.965E+00 9.486E+05 11.0932 1.00000
  2.818E+06 2.820E+06 2.568E+00 8.609E-03 2.208E-01 2.403E-01 4.697E-01 3.038E+00 1.051E+06 11.3233 1.00000
  3.162E+06 3.164E+06 2.584E+00 9.840E-03 2.525E-01 2.718E-01 5.342E-01 3.118E+00 1.163E+06 11.5535 1.00000
  3.548E+06 3.550E+06 2.600E+00 1.124E-02 2.885E-01 3.077E-01 6.075E-01 3.207E+00 1.285E+06 11.7836 1.00000
  3.981E+06 3.983E+06 2.615E+00 1.285E-02 3.293E-01 3.486E-01 6.907E-01 3.306E+00 1.417E+06 12.0138 1.00000
  4.467E+06 4.469E+06 2.631E+00 1.467E-02 3.755E-01 3.950E-01 7.852E-01 3.416E+00 1.562E+06 12.2439 1.00000
  5.012E+06 5.014E+06 2.646E+00 1.675E-02 4.279E-01 4.479E-01 8.925E-01 3.539E+00 1.719E+06 12.4741 1.00000
  5.623E+06 5.625E+06 2.661E+00 1.912E-02 4.871E-01 5.081E-01 1.014E+00 3.675E+00 1.888E+06 12.7043 1.00000
  6.310E+06 6.311E+06 2.676E+00 2.182E-02 5.541E-01 5.767E-01 1.153E+00 3.829E+00 2.071E+06 12.9345 1.00000
  7.079E+06 7.081E+06 2.691E+00 2.490E-02 6.299E-01 6.549E-01 1.310E+00 4.000E+00 2.268E+06 13.1647 1.00000
  7.943E+06 7.945E+06 2.705E+00 2.839E-02 7.154E-01 7.439E-01 1.488E+00 4.193E+00 2.479E+06 13.3949 1.00000
  8.913E+06 8.914E+06 2.720E+00 3.238E-02 8.121E-01 8.453E-01 1.690E+00 4.410E+00 2.705E+06 13.6251 1.00000
  1.000E+07 1.000E+07 2.734E+00 3.691E-02 9.211E-01 9.609E-01 1.919E+00 4.653E+00 2.945E+06 13.8553 1.00000
  1.122E+07 1.122E+07 2.749E+00 4.206E-02 1.044E+00 1.093E+00 2.179E+00 4.928E+00 3.200E+06 14.0855 1.00000
  1.259E+07 1.259E+07 2.763E+00 4.793E-02 1.183E+00 1.243E+00 2.474E+00 5.236E+00 3.469E+06 14.3157 1.00000
  1.413E+07 1.413E+07 2.777E+00 5.459E-02 1.339E+00 1.414E+00 2.808E+00 5.585E+00 3.754E+06 14.5460 1.00000
  1.585E+07 1.585E+07 2.791E+00 6.216E-02 1.515E+00 1.610E+00 3.187E+00 5.978E+00 4.052E+06 14.7762 1.00000
  1.778E+07 1.778E+07 2.804E+00 7.077E-02 1.714E+00 1.833E+00 3.617E+00 6.422E+00 4.364E+06 15.0064 1.00000
  1.995E+07 1.995E+07 2.818E+00 8.054E-02 1.937E+00 2.087E+00 4.105E+00 6.923E+00 4.690E+06 15.2367 1.00000
  2.239E+07 2.239E+07 2.832E+00 9.164E-02 2.189E+00 2.377E+00 4.658E+00 7.489E+00 5.028E+06 15.4669 1.00000
  2.512E+07 2.512E+07 2.845E+00 1.042E-01 2.472E+00 2.708E+00 5.284E+00 8.129E+00 5.379E+06 15.6971 1.00000
  2.818E+07 2.819E+07 2.859E+00 1.185E-01 2.791E+00 3.086E+00 5.995E+00 8.853E+00 5.740E+06 15.9274 1.00000
  3.162E+07 3.162E+07 2.872E+00 1.347E-01 3.149E+00 3.517E+00 6.800E+00 9.672E+00 6.112E+06 16.1576 1.00000
  3.548E+07 3.548E+07 2.885E+00 1.531E-01 3.552E+00 4.008E+00 7.713E+00 1.060E+01 6.494E+06 16.3879 1.00000
  3.981E+07 3.981E+07 2.899E+00 1.740E-01 4.005E+00 4.570E+00 8.748E+00 1.165E+01 6.884E+06 16.6181 1.00000
  4.467E+07 4.467E+07 2.912E+00 1.976E-01 4.514E+00 5.210E+00 9.922E+00 1.283E+01 7.282E+06 16.8484 1.00000
  5.012E+07 5.012E+07 2.926E+00 2.244E-01 5.086E+00 5.942E+00 1.125E+01 1.418E+01 7.686E+06 17.0786 1.00000
  5.623E+07 5.624E+07 2.939E+00 2.547E-01 5.730E+00 6.776E+00 1.276E+01 1.570E+01 8.097E+06 17.3089 1.00000
  6.310E+07 6.310E+07 2.952E+00 2.891E-01 6.452E+00 7.730E+00 1.447E+01 1.742E+01 8.512E+06 17.5391 1.00000
  7.079E+07 7.080E+07 2.966E+00 3.280E-01 7.264E+00 8.818E+00 1.641E+01 1.938E+01 8.932E+06 17.7694 1.00000
  7.943E+07 7.943E+07 2.979E+00 3.720E-01 8.176E+00 1.006E+01 1.861E+01 2.159E+01 9.355E+06 17.9996 1.00000
  8.913E+07 8.913E+07 2.992E+00 4.218E-01 9.200E+00 1.148E+01 2.110E+01 2.409E+01 9.780E+06 18.2299 1.00000
  1.000E+08 1.000E+08 3.006E+00 4.782E-01 1.035E+01 1.310E+01 2.393E+01 2.693E+01 1.021E+07 18.4601 1.00000
  1.122E+08 1.122E+08 3.019E+00 5.419E-01 1.164E+01 1.495E+01 2.713E+01 3.015E+01 1.064E+07 18.6904 1.00000
  1.259E+08 1.259E+08 3.033E+00 6.139E-01 1.309E+01 1.706E+01 3.077E+01 3.380E+01 1.107E+07 18.9206 1.00000
  1.413E+08 1.413E+08 3.046E+00 6.953E-01 1.472E+01 1.948E+01 3.489E+01 3.794E+01 1.150E+07 19.1509 1.00000
  1.585E+08 1.585E+08 3.060E+00 7.873E-01 1.655E+01 2.223E+01 3.957E+01 4.263E+01 1.193E+07 19.3812 1.00000
  1.778E+08 1.778E+08 3.073E+00 8.912E-01 1.860E+01 2.538E+01 4.488E+01 4.795E+01 1.235E+07 19.6114 1.00000
  1.995E+08 1.995E+08 3.087E+00 1.009E+00 2.091E+01 2.898E+01 5.090E+01 5.398E+01 1.278E+07 19.8417 1.00000
  2.239E+08 2.239E+08 3.100E+00 1.141E+00 2.349E+01 3.309E+01 5.773E+01 6.083E+01 1.321E+07 20.0719 1.00000
  2.512E+08 2.512E+08 3.114E+00 1.290E+00 2.640E+01 3.779E+01 6.548E+01 6.859E+01 1.363E+07 20.3022 1.00000
  2.818E+08 2.818E+08 3.128E+00 1.459E+00 2.966E+01 4.315E+01 7.427E+01 7.740E+01 1.405E+07 20.5324 1.00000
  3.162E+08 3.162E+08 3.142E+00 1.649E+00 3.331E+01 4.928E+01 8.425E+01 8.739E+01 1.447E+07 20.7627 1.00000
  3.548E+08 3.548E+08 3.156E+00 1.864E+00 3.742E+01 5.629E+01 9.557E+01 9.873E+01 1.489E+07 20.9930 1.00000
  3.981E+08 3.981E+08 3.170E+00 2.106E+00 4.203E+01 6.429E+01 1.084E+02 1.116E+02 1.530E+07 21.2232 1.00000
  4.467E+08 4.467E+08 3.184E+00 2.379E+00 4.720E+01 7.344E+01 1.230E+02 1.262E+02 1.571E+07 21.4535 1.00000
  5.012E+08 5.012E+08 3.198E+00 2.686E+00 5.300E+01 8.390E+01 1.396E+02 1.428E+02 1.612E+07 21.6837 1.00000
  5.623E+08 5.623E+08 3.212E+00 3.032E+00 5.951E+01 9.585E+01 1.584E+02 1.616E+02 1.652E+07 21.9140 1.00000
  6.310E+08 6.310E+08 3.226E+00 3.422E+00 6.682E+01 1.095E+02 1.797E+02 1.830E+02 1.692E+07 22.1442 1.00000
  7.079E+08 7.079E+08 3.241E+00 3.862E+00 7.502E+01 1.251E+02 2.040E+02 2.072E+02 1.732E+07 22.3745 1.00000
  7.943E+08 7.943E+08 3.255E+00 4.356E+00 8.422E+01 1.430E+02 2.315E+02 2.348E+02 1.771E+07 22.6048 1.00000
  8.913E+08 8.913E+08 3.270E+00 4.913E+00 9.455E+01 1.634E+02 2.628E+02 2.661E+02 1.810E+07 22.8350 1.00000
  1.000E+09 1.000E+09 3.284E+00 5.540E+00 1.061E+02 1.867E+02 2.984E+02 3.016E+02 1.848E+07 23.0653 1.00000
  1.122E+09 1.122E+09 3.299E+00 6.246E+00 1.191E+02 2.133E+02 3.387E+02 3.420E+02 1.886E+07 23.2955 1.00000
  1.259E+09 1.259E+09 3.313E+00 7.040E+00 1.337E+02 2.438E+02 3.846E+02 3.879E+02 1.924E+07 23.5258 1.00000
  1.413E+09 1.413E+09 3.328E+00 7.933E+00 1.501E+02 2.787E+02 4.367E+02 4.400E+02 1.961E+07 23.7560 1.00000
  1.585E+09 1.585E+09 3.343E+00 8.937E+00 1.685E+02 3.185E+02 4.959E+02 4.993E+02 1.998E+07 23.9863 1.00000
  1.778E+09 1.778E+09 3.358E+00 1.007E+01 1.891E+02 3.641E+02 5.633E+02 5.666E+02 2.034E+07 24.2166 1.00000
  1.995E+09 1.995E+09 3.373E+00 1.134E+01 2.122E+02 4.162E+02 6.398E+02 6.432E+02 2.070E+07 24.4468 1.00000
  2.239E+09 2.239E+09 3.388E+00 1.277E+01 2.382E+02 4.758E+02 7.268E+02 7.302E+02 2.106E+07 24.6771 1.00000
  2.512E+09 2.512E+09 3.403E+00 1.437E+01 2.673E+02 5.440E+02 8.257E+02 8.291E+02 2.141E+07 24.9073 1.00000
  2.818E+09 2.818E+09 3.419E+00 1.618E+01 3.000E+02 6.220E+02 9.381E+02 9.415E+02 2.176E+07 25.1376 1.00000
  3.162E+09 3.162E+09 3.434E+00 1.820E+01 3.366E+02 7.112E+02 1.066E+03 1.069E+03 2.210E+07 25.3679 1.00000
  3.548E+09 3.548E+09 3.449E+00 2.048E+01 3.778E+02 8.132E+02 1.211E+03 1.215E+03 2.244E+07 25.5981 1.00000
  3.981E+09 3.981E+09 3.465E+00 2.304E+01 4.239E+02 9.299E+02 1.377E+03 1.380E+03 2.278E+07 25.8284 1.00000
  4.467E+09 4.467E+09 3.481E+00 2.592E+01 4.757E+02 1.063E+03 1.565E+03 1.568E+03 2.311E+07 26.0586 1.00000
  5.012E+09 5.012E+09 3.496E+00 2.915E+01 5.338E+02 1.216E+03 1.779E+03 1.783E+03 2.343E+07 26.2889 1.00000
  5.623E+09 5.623E+09 3.512E+00 3.279E+01 5.990E+02 1.391E+03 2.023E+03 2.026E+03 2.376E+07 26.5191 1.00000
  6.310E+09 6.310E+09 3.528E+00 3.686E+01 6.722E+02 1.591E+03 2.300E+03 2.303E+03 2.408E+07 26.7494 1.00000
  7.079E+09 7.079E+09 3.544E+00 4.144E+01 7.543E+02 1.820E+03 2.615E+03 2.619E+03 2.439E+07 26.9797 1.00000
  7.943E+09 7.943E+09 3.560E+00 4.659E+01 8.464E+02 2.081E+03 2.974E+03 2.978E+03 2.470E+07 27.2099 1.00000
  8.913E+09 8.913E+09 3.576E+00 5.236E+01 9.497E+02 2.381E+03 3.383E+03 3.386E+03 2.501E+07 27.4402 1.00000
  1.000E+10 1.000E+10 3.592E+00 5.885E+01 1.066E+03 2.724E+03 3.848E+03 3.852E+03 2.531E+07 27.6704 1.00000
  1.122E+10 1.122E+10 3.609E+00 6.613E+01 1.196E+03 3.116E+03 4.378E+03 4.381E+03 2.560E+07 27.9007 1.00000
  1.259E+10 1.259E+10 3.625E+00 7.431E+01 1.342E+03 3.565E+03 4.981E+03 4.985E+03 2.590E+07 28.1310 1.00000
  1.413E+10 1.413E+10 3.642E+00 8.349E+01 1.505E+03 4.079E+03 5.668E+03 5.672E+03 2.619E+07 28.3612 1.00000
  1.585E+10 1.585E+10 3.658E+00 9.379E+01 1.689E+03 4.667E+03 6.450E+03 6.454E+03 2.647E+07 28.5915 1.00000
  1.778E+10 1.778E+10 3.675E+00 1.054E+02 1.895E+03 5.341E+03 7.341E+03 7.345E+03 2.675E+07 28.8217 1.00000
  1.995E+10 1.995E+10 3.692E+00 1.183E+02 2.127E+03 6.112E+03 8.357E+03 8.360E+03 2.703E+07 29.0520 1.00000
  2.239E+10 2.239E+10 3.709E+00 1.329E+02 2.386E+03 6.994E+03 9.513E+03 9.517E+03 2.731E+07 29.2823 1.00000
  2.512E+10 2.512E+10 3.726E+00 1.493E+02 2.677E+03 8.005E+03 1.083E+04 1.084E+04 2.758E+07 29.5125 1.00000
  2.818E+10 2.818E+10 3.743E+00 1.677E+02 3.004E+03 9.162E+03 1.233E+04 1.234E+04 2.784E+07 29.7428 1.00000
  3.162E+10 3.162E+10 3.760E+00 1.883E+02 3.371E+03 1.049E+04 1.405E+04 1.405E+04 2.810E+07 29.9730 1.00000
  3.548E+10 3.548E+10 3.777E+00 2.114E+02 3.782E+03 1.200E+04 1.600E+04 1.600E+04 2.836E+07 30.2033 1.00000
  3.981E+10 3.981E+10 3.795E+00 2.374E+02 4.243E+03 1.374E+04 1.822E+04 1.822E+04 2.861E+07 30.4335 1.00000
  4.467E+10 4.467E+10 3.812E+00 2.665E+02 4.761E+03 1.573E+04 2.076E+04 2.076E+04 2.887E+07 30.6638 1.00000
  5.012E+10 5.012E+10 3.830E+00 2.992E+02 5.342E+03 1.801E+04 2.365E+04 2.365E+04 2.911E+07 30.8941 1.00000
  5.623E+10 5.623E+10 3.847E+00 3.359E+02 5.994E+03 2.062E+04 2.695E+04 2.695E+04 2.935E+07 31.1243 1.00000
  6.310E+10 6.310E+10 3.865E+00 3.771E+02 6.725E+03 2.360E+04 3.071E+04 3.071E+04 2.959E+07 31.3546 1.00000
  7.079E+10 7.079E+10 3.883E+00 4.233E+02 7.546E+03 2.703E+04 3.500E+04 3.500E+04 2.983E+07 31.5848 1.00000
  7.943E+10 7.943E+10 3.901E+00 4.752E+02 8.466E+03 3.095E+04 3.989E+04 3.989E+04 3.006E+07 31.8151 1.00000
  8.913E+10 8.913E+10 3.919E+00 5.334E+02 9.499E+03 3.544E+04 4.547E+04 4.548E+04 3.029E+07 32.0454 1.00000
  1.000E+11 1.000E+11 3.937E+00 5.987E+02 1.066E+04 4.058E+04 5.184E+04 5.184E+04 3.051E+07 32.2756 1.00000
  1.122E+11 1.122E+11 3.956E+00 6.719E+02 1.196E+04 4.648E+04 5.911E+04 5.911E+04 3.073E+07 32.5059 1.00000
  1.259E+11 1.259E+11 3.974E+00 7.542E+02 1.342E+04 5.323E+04 6.740E+04 6.741E+04 3.095E+07 32.7361 1.00000
  1.413E+11 1.413E+11 3.993E+00 8.464E+02 1.505E+04 6.097E+04 7.687E+04 7.687E+04 3.116E+07 32.9664 1.00000
  1.585E+11 1.585E+11 4.011E+00 9.500E+02 1.689E+04 6.984E+04 8.768E+04 8.768E+04 3.138E+07 33.1966 1.00000
  1.778E+11 1.778E+11 4.030E+00 1.066E+03 1.895E+04 8.000E+04 1.000E+05 1.000E+05 3.158E+07 33.4269 1.00000
  1.995E+11 1.995E+11 4.049E+00 1.197E+03 2.126E+04 9.164E+04 1.141E+05 1.141E+05 3.179E+07 33.6572 1.00000
  2.239E+11 2.239E+11 4.068E+00 1.343E+03 2.386E+04 1.050E+05 1.302E+05 1.302E+05 3.199E+07 33.8874 1.00000
  2.512E+11 2.512E+11 4.087E+00 1.507E+03 2.677E+04 1.203E+05 1.485E+05 1.486E+05 3.218E+07 34.1177 1.00000
  2.818E+11 2.818E+11 4.106E+00 1.691E+03 3.003E+04 1.378E+05 1.695E+05 1.695E+05 3.238E+07 34.3479 1.00000
  3.162E+11 3.162E+11 4.125E+00 1.898E+03 3.370E+04 1.579E+05 1.935E+05 1.935E+05 3.257E+07 34.5782 1.00000
  3.548E+11 3.548E+11 4.144E+00 2.130E+03 3.781E+04 1.809E+05 2.209E+05 2.209E+05 3.275E+07 34.8085 1.00000
  3.981E+11 3.981E+11 4.164E+00 2.390E+03 4.242E+04 2.073E+05 2.521E+05 2.521E+05 3.294E+07 35.0387 1.00000
  4.467E+11 4.467E+11 4.183E+00 2.682E+03 4.759E+04 2.376E+05 2.878E+05 2.878E+05 3.312E+07 35.2690 1.00000
  5.012E+11 5.012E+11 4.203E+00 3.009E+03 5.340E+04 2.723E+05 3.287E+05 3.287E+05 3.330E+07 35.4992 1.00000
  5.623E+11 5.623E+11 4.223E+00 3.377E+03 5.991E+04 3.120E+05 3.753E+05 3.753E+05 3.347E+07 35.7295 1.00000
  6.310E+11 6.310E+11 4.243E+00 3.789E+03 6.722E+04 3.576E+05 4.286E+05 4.286E+05 3.364E+07 35.9597 1.00000
  7.079E+11 7.079E+11 4.263E+00 4.252E+03 7.542E+04 4.099E+05 4.896E+05 4.896E+05 3.381E+07 36.1900 1.00000
  7.943E+11 7.943E+11 4.283E+00 4.771E+03 8.462E+04 4.699E+05 5.592E+05 5.593E+05 3.398E+07 36.4203 1.00000
  8.913E+11 8.913E+11 4.303E+00 5.354E+03 9.494E+04 5.386E+05 6.389E+05 6.389E+05 3.414E+07 36.6505 1.00000
  1.000E+12 1.000E+12 4.323E+00 6.007E+03 1.065E+05 6.174E+05 7.300E+05 7.300E+05 3.430E+07 36.8808 1.00000
  1.122E+12 1.122E+12 4.344E+00 6.740E+03 1.195E+05 7.079E+05 8.341E+05 8.341E+05 3.445E+07 37.1110 1.00000
  1.259E+12 1.259E+12 4.364E+00 7.563E+03 1.341E+05 8.115E+05 9.532E+05 9.532E+05 3.461E+07 37.3413 1.00000
  1.413E+12 1.413E+12 4.385E+00 8.487E+03 1.504E+05 9.305E+05 1.089E+06 1.089E+06 3.476E+07 37.5716 1.00000
  1.585E+12 1.585E+12 4.406E+00 9.522E+03 1.688E+05 1.067E+06 1.245E+06 1.245E+06 3.491E+07 37.8018 1.00000
  1.778E+12 1.778E+12 4.427E+00 1.068E+04 1.894E+05 1.223E+06 1.423E+06 1.423E+06 3.505E+07 38.0321 1.00000
  1.995E+12 1.995E+12 4.448E+00 1.199E+04 2.125E+05 1.403E+06 1.627E+06 1.627E+06 3.520E+07 38.2623 1.00000
  2.239E+12 2.239E+12 4.469E+00 1.345E+04 2.384E+05 1.609E+06 1.861E+06 1.861E+06 3.534E+07 38.4926 1.00000
  2.512E+12 2.512E+12 4.490E+00 1.509E+04 2.675E+05 1.845E+06 2.128E+06 2.128E+06 3.547E+07 38.7228 1.00000
  2.818E+12 2.818E+12 4.511E+00 1.694E+04 3.001E+05 2.116E+06 2.433E+06 2.433E+06 3.561E+07 38.9531 1.00000
  3.162E+12 3.162E+12 4.533E+00 1.900E+04 3.367E+05 2.427E+06 2.783E+06 2.783E+06 3.574E+07 39.1834 1.00000
  3.548E+12 3.548E+12 4.555E+00 2.132E+04 3.778E+05 2.784E+06 3.183E+06 3.183E+06 3.587E+07 39.4136 1.00000
  3.981E+12 3.981E+12 4.576E+00 2.392E+04 4.239E+05 3.193E+06 3.641E+06 3.641E+06 3.600E+07 39.6439 1.00000
  4.467E+12 4.467E+12 4.598E+00 2.684E+04 4.756E+05 3.663E+06 4.165E+06 4.165E+06 3.612E+07 39.8741 1.00000
  5.012E+12 5.012E+12 4.620E+00 3.012E+04 5.336E+05 4.202E+06 4.766E+06 4.766E+06 3.625E+07 40.1044 1.00000
  5.623E+12 5.623E+12 4.642E+00 3.380E+04 5.986E+05 4.821E+06 5.453E+06 5.453E+06 3.637E+07 40.3347 1.00000
  6.310E+12 6.310E+12 4.664E+00 3.792E+04 6.716E+05 5.531E+06 6.240E+06 6.240E+06 3.648E+07 40.5649 1.00000
  7.079E+12 7.079E+12 4.687E+00 4.255E+04 7.536E+05 6.346E+06 7.142E+06 7.142E+06 3.660E+07 40.7952 1.00000
  7.943E+12 7.943E+12 4.709E+00 4.774E+04 8.455E+05 7.281E+06 8.174E+06 8.174E+06 3.671E+07 41.0254 1.00000
  8.913E+12 8.913E+12 4.732E+00 5.356E+04 9.486E+05 8.355E+06 9.357E+06 9.357E+06 3.682E+07 41.2557 1.00000
  1.000E+13 1.000E+13 4.754E+00 6.010E+04 1.064E+06 9.587E+06 1.071E+07 1.071E+07 3.693E+07 41.4860 1.00000
  1.122E+13 1.122E+13 4.777E+00 6.743E+04 1.194E+06 1.100E+07 1.226E+07 1.226E+07 3.704E+07 41.7162 1.00000
  1.259E+13 1.259E+13 4.800E+00 7.566E+04 1.340E+06 1.263E+07 1.404E+07 1.404E+07 3.715E+07 41.9465 1.00000
  1.413E+13 1.413E+13 4.823E+00 8.490E+04 1.503E+06 1.449E+07 1.608E+07 1.608E+07 3.725E+07 42.1767 1.00000
  1.585E+13 1.585E+13 4.846E+00 9.526E+04 1.686E+06 1.663E+07 1.841E+07 1.841E+07 3.735E+07 42.4070 1.00000
  1.778E+13 1.778E+13 4.870E+00 1.069E+05 1.892E+06 1.909E+07 2.109E+07 2.109E+07 3.745E+07 42.6372 1.00000
  1.995E+13 1.995E+13 4.893E+00 1.199E+05 2.123E+06 2.191E+07 2.416E+07 2.416E+07 3.754E+07 42.8675 1.00000
  2.239E+13 2.239E+13 4.917E+00 1.346E+05 2.382E+06 2.515E+07 2.767E+07 2.767E+07 3.764E+07 43.0978 1.00000
  2.512E+13 2.512E+13 4.940E+00 1.510E+05 2.672E+06 2.888E+07 3.170E+07 3.170E+07 3.773E+07 43.3280 1.00000
  2.818E+13 2.818E+13 4.964E+00 1.694E+05 2.998E+06 3.315E+07 3.632E+07 3.632E+07 3.782E+07 43.5583 1.00000
  3.162E+13 3.162E+13 4.988E+00 1.901E+05 3.364E+06 3.806E+07 4.161E+07 4.161E+07 3.791E+07 43.7885 1.00000
  3.548E+13 3.548E+13 5.012E+00 2.133E+05 3.774E+06 4.369E+07 4.768E+07 4.768E+07 3.800E+07 44.0188 1.00000
  3.981E+13 3.981E+13 5.037E+00 2.393E+05 4.234E+06 5.017E+07 5.464E+07 5.464E+07 3.808E+07 44.2491 1.00000
  4.467E+13 4.467E+13 5.061E+00 2.685E+05 4.751E+06 5.761E+07 6.263E+07 6.263E+07 3.816E+07 44.4793 1.00000
  5.012E+13 5.012E+13 5.085E+00 3.012E+05 5.330E+06 6.615E+07 7.178E+07 7.178E+07 3.825E+07 44.7096 1.00000
  5.623E+13 5.623E+13 5.110E+00 3.380E+05 5.980E+06 7.596E+07 8.228E+07 8.228E+07 3.832E+07 44.9398 1.00000
  6.310E+13 6.310E+13 5.135E+00 3.792E+05 6.709E+06 8.723E+07 9.432E+07 9.432E+07 3.840E+07 45.1701 1.00000
  7.079E+13 7.079E+13 5.160E+00 4.255E+05 7.528E+06 1.002E+08 1.081E+08 1.081E+08 3.848E+07 45.4003 1.00000
  7.943E+13 7.943E+13 5.185E+00 4.774E+05 8.446E+06 1.151E+08 1.240E+08 1.240E+08 3.855E+07 45.6306 1.00000
  8.913E+13 8.913E+13 5.210E+00 5.357E+05 9.476E+06 1.322E+08 1.422E+08 1.422E+08 3.863E+07 45.8609 1.00000
