 Incident particle is a Tau with M = 1776.82000 MeV
 Index = 0: Tellurium
      Absorber with <Z/A> = 0.40751
 Sternheimer coef:  a     k=m_s   x_0    x_1    I[eV]   Cbar  delta0
                 0.1382  3.0354  0.3296  3.4418  485.0  5.7131 0.14

 *** Table generated with PUMAS v1.00 ***

      T         p     Ionization  brems     pair     photonuc  Radloss    dE/dx   CSDA Range  delta   beta
    [MeV]    [MeV/c]  -----------------------[MeV cm^2/g]------------------------  [g/cm^2]
  1.000E+05 1.018E+05 1.663E+00 7.089E-04 1.224E-02 7.675E-03 2.063E-02 1.684E+00 2.969E+04  3.0546 0.99985
  1.122E+05 1.140E+05 1.682E+00 8.214E-04 1.467E-02 8.622E-03 2.411E-02 1.706E+00 3.689E+04  3.2233 0.99988
  1.259E+05 1.277E+05 1.700E+00 9.514E-04 1.752E-02 9.636E-03 2.811E-02 1.728E+00 4.487E+04  3.3957 0.99990
  1.413E+05 1.430E+05 1.718E+00 1.101E-03 2.087E-02 1.077E-02 3.274E-02 1.750E+00 5.370E+04  3.5717 0.99992
  1.585E+05 1.603E+05 1.735E+00 1.274E-03 2.479E-02 1.204E-02 3.810E-02 1.773E+00 6.348E+04  3.7513 0.99994
  1.778E+05 1.796E+05 1.753E+00 1.473E-03 2.937E-02 1.344E-02 4.429E-02 1.797E+00 7.432E+04  3.9342 0.99995
  1.995E+05 2.013E+05 1.770E+00 1.702E-03 3.473E-02 1.503E-02 5.146E-02 1.822E+00 8.631E+04  4.1203 0.99996
  2.239E+05 2.256E+05 1.787E+00 1.966E-03 4.096E-02 1.677E-02 5.970E-02 1.847E+00 9.958E+04  4.3096 0.99997
  2.512E+05 2.530E+05 1.805E+00 2.269E-03 4.821E-02 1.870E-02 6.918E-02 1.874E+00 1.143E+05  4.5019 0.99998
  2.818E+05 2.836E+05 1.822E+00 2.618E-03 5.663E-02 2.087E-02 8.011E-02 1.902E+00 1.305E+05  4.6971 0.99998
  3.162E+05 3.180E+05 1.838E+00 3.018E-03 6.637E-02 2.331E-02 9.270E-02 1.931E+00 1.484E+05  4.8951 0.99998
  3.548E+05 3.566E+05 1.855E+00 3.478E-03 7.764E-02 2.604E-02 1.072E-01 1.962E+00 1.683E+05  5.0957 0.99999
  3.981E+05 3.999E+05 1.871E+00 4.006E-03 9.066E-02 2.907E-02 1.237E-01 1.995E+00 1.902E+05  5.2989 0.99999
  4.467E+05 4.485E+05 1.888E+00 4.611E-03 1.057E-01 3.246E-02 1.427E-01 2.030E+00 2.143E+05  5.5044 0.99999
  5.012E+05 5.030E+05 1.904E+00 5.305E-03 1.229E-01 3.626E-02 1.645E-01 2.068E+00 2.409E+05  5.7123 0.99999
  5.623E+05 5.641E+05 1.920E+00 6.101E-03 1.428E-01 4.036E-02 1.893E-01 2.109E+00 2.702E+05  5.9223 1.00000
  6.310E+05 6.327E+05 1.935E+00 7.013E-03 1.656E-01 4.497E-02 2.176E-01 2.153E+00 3.024E+05  6.1344 1.00000
  7.079E+05 7.097E+05 1.951E+00 8.057E-03 1.918E-01 5.015E-02 2.500E-01 2.201E+00 3.377E+05  6.3485 1.00000
  7.943E+05 7.961E+05 1.966E+00 9.252E-03 2.217E-01 5.598E-02 2.870E-01 2.253E+00 3.765E+05  6.5644 1.00000
  8.913E+05 8.930E+05 1.982E+00 1.062E-02 2.560E-01 6.257E-02 3.292E-01 2.311E+00 4.190E+05  6.7820 1.00000
  1.000E+06 1.002E+06 1.997E+00 1.218E-02 2.952E-01 6.999E-02 3.773E-01 2.374E+00 4.654E+05  7.0012 1.00000
  1.122E+06 1.124E+06 2.012E+00 1.397E-02 3.398E-01 7.839E-02 4.322E-01 2.444E+00 5.161E+05  7.2220 1.00000
  1.259E+06 1.261E+06 2.027E+00 1.602E-02 3.908E-01 8.787E-02 4.947E-01 2.521E+00 5.713E+05  7.4441 1.00000
  1.413E+06 1.414E+06 2.041E+00 1.835E-02 4.488E-01 9.861E-02 5.658E-01 2.607E+00 6.312E+05  7.6674 1.00000
  1.585E+06 1.587E+06 2.056E+00 2.102E-02 5.149E-01 1.108E-01 6.467E-01 2.702E+00 6.961E+05  7.8920 1.00000
  1.778E+06 1.780E+06 2.070E+00 2.406E-02 5.900E-01 1.245E-01 7.386E-01 2.809E+00 7.663E+05  8.1176 1.00000
  1.995E+06 1.997E+06 2.084E+00 2.754E-02 6.753E-01 1.401E-01 8.430E-01 2.927E+00 8.420E+05  8.3441 1.00000
  2.239E+06 2.240E+06 2.098E+00 3.150E-02 7.721E-01 1.579E-01 9.614E-01 3.060E+00 9.234E+05  8.5714 1.00000
  2.512E+06 2.514E+06 2.112E+00 3.602E-02 8.818E-01 1.780E-01 1.096E+00 3.208E+00 1.011E+06  8.7995 1.00000
  2.818E+06 2.820E+06 2.126E+00 4.118E-02 1.006E+00 2.008E-01 1.248E+00 3.374E+00 1.104E+06  9.0282 1.00000
  3.162E+06 3.164E+06 2.139E+00 4.705E-02 1.147E+00 2.267E-01 1.421E+00 3.560E+00 1.203E+06  9.2574 1.00000
  3.548E+06 3.550E+06 2.153E+00 5.375E-02 1.306E+00 2.562E-01 1.616E+00 3.769E+00 1.308E+06  9.4870 1.00000
  3.981E+06 3.983E+06 2.166E+00 6.137E-02 1.487E+00 2.897E-01 1.838E+00 4.003E+00 1.420E+06  9.7169 1.00000
  4.467E+06 4.469E+06 2.179E+00 7.005E-02 1.690E+00 3.279E-01 2.088E+00 4.267E+00 1.538E+06  9.9469 1.00000
  5.012E+06 5.014E+06 2.192E+00 7.993E-02 1.920E+00 3.713E-01 2.371E+00 4.563E+00 1.661E+06 10.1771 1.00000
  5.623E+06 5.625E+06 2.205E+00 9.117E-02 2.180E+00 4.206E-01 2.692E+00 4.896E+00 1.791E+06 10.4073 1.00000
  6.310E+06 6.311E+06 2.217E+00 1.040E-01 2.473E+00 4.769E-01 3.054E+00 5.271E+00 1.926E+06 10.6375 1.00000
  7.079E+06 7.081E+06 2.230E+00 1.185E-01 2.803E+00 5.409E-01 3.463E+00 5.692E+00 2.066E+06 10.8677 1.00000
  7.943E+06 7.945E+06 2.242E+00 1.350E-01 3.176E+00 6.138E-01 3.925E+00 6.167E+00 2.212E+06 11.0979 1.00000
  8.913E+06 8.914E+06 2.255E+00 1.538E-01 3.596E+00 6.969E-01 4.446E+00 6.701E+00 2.363E+06 11.3281 1.00000
  1.000E+07 1.000E+07 2.267E+00 1.751E-01 4.069E+00 7.916E-01 5.035E+00 7.302E+00 2.519E+06 11.5583 1.00000
  1.122E+07 1.122E+07 2.279E+00 1.994E-01 4.601E+00 8.995E-01 5.700E+00 7.979E+00 2.679E+06 11.7885 1.00000
  1.259E+07 1.259E+07 2.291E+00 2.269E-01 5.201E+00 1.022E+00 6.450E+00 8.741E+00 2.843E+06 12.0187 1.00000
  1.413E+07 1.413E+07 2.303E+00 2.581E-01 5.875E+00 1.163E+00 7.296E+00 9.599E+00 3.011E+06 12.2490 1.00000
  1.585E+07 1.585E+07 2.314E+00 2.935E-01 6.635E+00 1.323E+00 8.251E+00 1.057E+01 3.182E+06 12.4792 1.00000
  1.778E+07 1.778E+07 2.326E+00 3.337E-01 7.489E+00 1.505E+00 9.327E+00 1.165E+01 3.357E+06 12.7094 1.00000
  1.995E+07 1.995E+07 2.338E+00 3.792E-01 8.449E+00 1.713E+00 1.054E+01 1.288E+01 3.534E+06 12.9397 1.00000
  2.239E+07 2.239E+07 2.349E+00 4.309E-01 9.529E+00 1.950E+00 1.191E+01 1.426E+01 3.714E+06 13.1699 1.00000
  2.512E+07 2.512E+07 2.361E+00 4.894E-01 1.074E+01 2.221E+00 1.345E+01 1.581E+01 3.896E+06 13.4001 1.00000
  2.818E+07 2.819E+07 2.372E+00 5.556E-01 1.211E+01 2.530E+00 1.519E+01 1.756E+01 4.080E+06 13.6304 1.00000
  3.162E+07 3.162E+07 2.384E+00 6.307E-01 1.364E+01 2.882E+00 1.715E+01 1.954E+01 4.266E+06 13.8606 1.00000
  3.548E+07 3.548E+07 2.395E+00 7.156E-01 1.536E+01 3.284E+00 1.936E+01 2.176E+01 4.454E+06 14.0909 1.00000
  3.981E+07 3.981E+07 2.406E+00 8.118E-01 1.730E+01 3.743E+00 2.185E+01 2.426E+01 4.642E+06 14.3211 1.00000
  4.467E+07 4.467E+07 2.418E+00 9.205E-01 1.947E+01 4.267E+00 2.466E+01 2.708E+01 4.832E+06 14.5514 1.00000
  5.012E+07 5.012E+07 2.429E+00 1.044E+00 2.192E+01 4.865E+00 2.782E+01 3.025E+01 5.023E+06 14.7816 1.00000
  5.623E+07 5.624E+07 2.440E+00 1.183E+00 2.466E+01 5.548E+00 3.139E+01 3.383E+01 5.214E+06 15.0119 1.00000
  6.310E+07 6.310E+07 2.452E+00 1.340E+00 2.774E+01 6.327E+00 3.541E+01 3.786E+01 5.406E+06 15.2421 1.00000
  7.079E+07 7.080E+07 2.463E+00 1.517E+00 3.120E+01 7.217E+00 3.993E+01 4.240E+01 5.599E+06 15.4724 1.00000
  7.943E+07 7.943E+07 2.474E+00 1.718E+00 3.508E+01 8.232E+00 4.503E+01 4.751E+01 5.792E+06 15.7026 1.00000
  8.913E+07 8.913E+07 2.486E+00 1.945E+00 3.944E+01 9.392E+00 5.078E+01 5.327E+01 5.985E+06 15.9329 1.00000
  1.000E+08 1.000E+08 2.497E+00 2.200E+00 4.434E+01 1.072E+01 5.726E+01 5.975E+01 6.178E+06 16.1631 1.00000
  1.122E+08 1.122E+08 2.509E+00 2.489E+00 4.984E+01 1.223E+01 6.455E+01 6.706E+01 6.371E+06 16.3934 1.00000
  1.259E+08 1.259E+08 2.520E+00 2.815E+00 5.601E+01 1.396E+01 7.278E+01 7.530E+01 6.564E+06 16.6236 1.00000
  1.413E+08 1.413E+08 2.531E+00 3.182E+00 6.293E+01 1.593E+01 8.204E+01 8.457E+01 6.757E+06 16.8539 1.00000
  1.585E+08 1.585E+08 2.543E+00 3.597E+00 7.070E+01 1.818E+01 9.249E+01 9.503E+01 6.949E+06 17.0842 1.00000
  1.778E+08 1.778E+08 2.554E+00 4.064E+00 7.943E+01 2.076E+01 1.043E+02 1.068E+02 7.141E+06 17.3144 1.00000
  1.995E+08 1.995E+08 2.566E+00 4.590E+00 8.922E+01 2.370E+01 1.175E+02 1.201E+02 7.333E+06 17.5447 1.00000
  2.239E+08 2.239E+08 2.578E+00 5.184E+00 1.002E+02 2.706E+01 1.325E+02 1.350E+02 7.525E+06 17.7749 1.00000
  2.512E+08 2.512E+08 2.589E+00 5.852E+00 1.125E+02 3.090E+01 1.493E+02 1.519E+02 7.716E+06 18.0052 1.00000
  2.818E+08 2.818E+08 2.601E+00 6.605E+00 1.264E+02 3.528E+01 1.683E+02 1.709E+02 7.906E+06 18.2354 1.00000
  3.162E+08 3.162E+08 2.613E+00 7.453E+00 1.419E+02 4.030E+01 1.897E+02 1.923E+02 8.097E+06 18.4657 1.00000
  3.548E+08 3.548E+08 2.625E+00 8.407E+00 1.594E+02 4.602E+01 2.138E+02 2.164E+02 8.286E+06 18.6960 1.00000
  3.981E+08 3.981E+08 2.636E+00 9.482E+00 1.789E+02 5.256E+01 2.410E+02 2.436E+02 8.475E+06 18.9262 1.00000
  4.467E+08 4.467E+08 2.648E+00 1.069E+01 2.009E+02 6.004E+01 2.716E+02 2.743E+02 8.663E+06 19.1565 1.00000
  5.012E+08 5.012E+08 2.660E+00 1.205E+01 2.255E+02 6.859E+01 3.062E+02 3.088E+02 8.851E+06 19.3867 1.00000
  5.623E+08 5.623E+08 2.672E+00 1.358E+01 2.532E+02 7.835E+01 3.451E+02 3.478E+02 9.038E+06 19.6170 1.00000
  6.310E+08 6.310E+08 2.685E+00 1.530E+01 2.842E+02 8.952E+01 3.890E+02 3.917E+02 9.224E+06 19.8472 1.00000
  7.079E+08 7.079E+08 2.697E+00 1.724E+01 3.190E+02 1.023E+02 4.385E+02 4.412E+02 9.409E+06 20.0775 1.00000
  7.943E+08 7.943E+08 2.709E+00 1.942E+01 3.581E+02 1.169E+02 4.943E+02 4.971E+02 9.594E+06 20.3078 1.00000
  8.913E+08 8.913E+08 2.721E+00 2.186E+01 4.019E+02 1.335E+02 5.573E+02 5.600E+02 9.778E+06 20.5380 1.00000
  1.000E+09 1.000E+09 2.734E+00 2.461E+01 4.511E+02 1.526E+02 6.283E+02 6.310E+02 9.962E+06 20.7683 1.00000
  1.122E+09 1.122E+09 2.746E+00 2.771E+01 5.063E+02 1.744E+02 7.084E+02 7.111E+02 1.014E+07 20.9985 1.00000
  1.259E+09 1.259E+09 2.758E+00 3.118E+01 5.682E+02 1.993E+02 7.987E+02 8.015E+02 1.033E+07 21.2288 1.00000
  1.413E+09 1.413E+09 2.771E+00 3.508E+01 6.377E+02 2.278E+02 9.006E+02 9.033E+02 1.051E+07 21.4590 1.00000
  1.585E+09 1.585E+09 2.784E+00 3.947E+01 7.157E+02 2.604E+02 1.015E+03 1.018E+03 1.069E+07 21.6893 1.00000
  1.778E+09 1.778E+09 2.796E+00 4.440E+01 8.031E+02 2.976E+02 1.145E+03 1.148E+03 1.087E+07 21.9196 1.00000
  1.995E+09 1.995E+09 2.809E+00 4.993E+01 9.013E+02 3.402E+02 1.291E+03 1.294E+03 1.104E+07 22.1498 1.00000
  2.239E+09 2.239E+09 2.822E+00 5.615E+01 1.011E+03 3.889E+02 1.457E+03 1.459E+03 1.122E+07 22.3801 1.00000
  2.512E+09 2.512E+09 2.835E+00 6.313E+01 1.135E+03 4.447E+02 1.643E+03 1.646E+03 1.140E+07 22.6103 1.00000
  2.818E+09 2.818E+09 2.848E+00 7.097E+01 1.274E+03 5.084E+02 1.853E+03 1.856E+03 1.157E+07 22.8406 1.00000
  3.162E+09 3.162E+09 2.861E+00 7.978E+01 1.429E+03 5.813E+02 2.090E+03 2.093E+03 1.175E+07 23.0709 1.00000
  3.548E+09 3.548E+09 2.874E+00 8.966E+01 1.604E+03 6.647E+02 2.358E+03 2.361E+03 1.192E+07 23.3011 1.00000
  3.981E+09 3.981E+09 2.887E+00 1.008E+02 1.800E+03 7.601E+02 2.660E+03 2.663E+03 1.210E+07 23.5314 1.00000
  4.467E+09 4.467E+09 2.900E+00 1.132E+02 2.019E+03 8.692E+02 3.002E+03 3.005E+03 1.227E+07 23.7616 1.00000
  5.012E+09 5.012E+09 2.914E+00 1.272E+02 2.266E+03 9.940E+02 3.387E+03 3.390E+03 1.244E+07 23.9919 1.00000
  5.623E+09 5.623E+09 2.927E+00 1.429E+02 2.543E+03 1.137E+03 3.822E+03 3.825E+03 1.261E+07 24.2221 1.00000
  6.310E+09 6.310E+09 2.941E+00 1.606E+02 2.853E+03 1.300E+03 4.314E+03 4.317E+03 1.278E+07 24.4524 1.00000
  7.079E+09 7.079E+09 2.954E+00 1.803E+02 3.201E+03 1.487E+03 4.869E+03 4.872E+03 1.295E+07 24.6827 1.00000
  7.943E+09 7.943E+09 2.968E+00 2.026E+02 3.592E+03 1.701E+03 5.496E+03 5.499E+03 1.311E+07 24.9129 1.00000
  8.913E+09 8.913E+09 2.982E+00 2.275E+02 4.031E+03 1.946E+03 6.204E+03 6.207E+03 1.328E+07 25.1432 1.00000
  1.000E+10 1.000E+10 2.995E+00 2.555E+02 4.523E+03 2.226E+03 7.004E+03 7.007E+03 1.344E+07 25.3734 1.00000
  1.122E+10 1.122E+10 3.009E+00 2.869E+02 5.075E+03 2.547E+03 7.908E+03 7.911E+03 1.361E+07 25.6037 1.00000
  1.259E+10 1.259E+10 3.023E+00 3.221E+02 5.694E+03 2.914E+03 8.930E+03 8.933E+03 1.377E+07 25.8340 1.00000
  1.413E+10 1.413E+10 3.037E+00 3.617E+02 6.389E+03 3.334E+03 1.008E+04 1.009E+04 1.393E+07 26.0642 1.00000
  1.585E+10 1.585E+10 3.051E+00 4.061E+02 7.168E+03 3.815E+03 1.139E+04 1.139E+04 1.410E+07 26.2945 1.00000
  1.778E+10 1.778E+10 3.066E+00 4.559E+02 8.043E+03 4.365E+03 1.286E+04 1.287E+04 1.426E+07 26.5247 1.00000
  1.995E+10 1.995E+10 3.080E+00 5.119E+02 9.025E+03 4.996E+03 1.453E+04 1.454E+04 1.441E+07 26.7550 1.00000
  2.239E+10 2.239E+10 3.094E+00 5.746E+02 1.013E+04 5.717E+03 1.642E+04 1.642E+04 1.457E+07 26.9853 1.00000
  2.512E+10 2.512E+10 3.109E+00 6.450E+02 1.136E+04 6.543E+03 1.855E+04 1.855E+04 1.473E+07 27.2155 1.00000
  2.818E+10 2.818E+10 3.123E+00 7.241E+02 1.275E+04 7.488E+03 2.096E+04 2.096E+04 1.488E+07 27.4458 1.00000
  3.162E+10 3.162E+10 3.138E+00 8.127E+02 1.430E+04 8.571E+03 2.369E+04 2.369E+04 1.504E+07 27.6760 1.00000
  3.548E+10 3.548E+10 3.152E+00 9.122E+02 1.605E+04 9.811E+03 2.677E+04 2.677E+04 1.519E+07 27.9063 1.00000
  3.981E+10 3.981E+10 3.167E+00 1.024E+03 1.801E+04 1.123E+04 3.026E+04 3.026E+04 1.535E+07 28.1365 1.00000
  4.467E+10 4.467E+10 3.182E+00 1.149E+03 2.020E+04 1.286E+04 3.421E+04 3.421E+04 1.550E+07 28.3668 1.00000
  5.012E+10 5.012E+10 3.197E+00 1.290E+03 2.267E+04 1.472E+04 3.868E+04 3.868E+04 1.565E+07 28.5971 1.00000
  5.623E+10 5.623E+10 3.212E+00 1.448E+03 2.543E+04 1.685E+04 4.373E+04 4.373E+04 1.580E+07 28.8273 1.00000
  6.310E+10 6.310E+10 3.227E+00 1.625E+03 2.854E+04 1.929E+04 4.945E+04 4.946E+04 1.594E+07 29.0576 1.00000
  7.079E+10 7.079E+10 3.242E+00 1.823E+03 3.202E+04 2.209E+04 5.593E+04 5.593E+04 1.609E+07 29.2878 1.00000
  7.943E+10 7.943E+10 3.257E+00 2.046E+03 3.592E+04 2.530E+04 6.327E+04 6.327E+04 1.624E+07 29.5181 1.00000
  8.913E+10 8.913E+10 3.273E+00 2.296E+03 4.031E+04 2.897E+04 7.157E+04 7.157E+04 1.638E+07 29.7484 1.00000
  1.000E+11 1.000E+11 3.288E+00 2.577E+03 4.522E+04 3.317E+04 8.097E+04 8.098E+04 1.652E+07 29.9786 1.00000
  1.122E+11 1.122E+11 3.304E+00 2.892E+03 5.074E+04 3.799E+04 9.162E+04 9.163E+04 1.666E+07 30.2089 1.00000
  1.259E+11 1.259E+11 3.319E+00 3.245E+03 5.693E+04 4.351E+04 1.037E+05 1.037E+05 1.681E+07 30.4391 1.00000
  1.413E+11 1.413E+11 3.335E+00 3.641E+03 6.388E+04 4.984E+04 1.174E+05 1.174E+05 1.694E+07 30.6694 1.00000
  1.585E+11 1.585E+11 3.351E+00 4.086E+03 7.167E+04 5.708E+04 1.328E+05 1.328E+05 1.708E+07 30.8996 1.00000
  1.778E+11 1.778E+11 3.367E+00 4.585E+03 8.041E+04 6.539E+04 1.504E+05 1.504E+05 1.722E+07 31.1299 1.00000
  1.995E+11 1.995E+11 3.383E+00 5.145E+03 9.022E+04 7.490E+04 1.703E+05 1.703E+05 1.736E+07 31.3602 1.00000
  2.239E+11 2.239E+11 3.399E+00 5.773E+03 1.012E+05 8.581E+04 1.928E+05 1.928E+05 1.749E+07 31.5904 1.00000
  2.512E+11 2.512E+11 3.415E+00 6.478E+03 1.136E+05 9.831E+04 2.184E+05 2.184E+05 1.762E+07 31.8207 1.00000
  2.818E+11 2.818E+11 3.431E+00 7.269E+03 1.274E+05 1.126E+05 2.473E+05 2.473E+05 1.776E+07 32.0509 1.00000
  3.162E+11 3.162E+11 3.448E+00 8.157E+03 1.430E+05 1.291E+05 2.802E+05 2.802E+05 1.789E+07 32.2812 1.00000
  3.548E+11 3.548E+11 3.464E+00 9.152E+03 1.604E+05 1.479E+05 3.174E+05 3.174E+05 1.802E+07 32.5115 1.00000
  3.981E+11 3.981E+11 3.480E+00 1.027E+04 1.800E+05 1.694E+05 3.597E+05 3.597E+05 1.815E+07 32.7417 1.00000
  4.467E+11 4.467E+11 3.497E+00 1.152E+04 2.019E+05 1.942E+05 4.076E+05 4.076E+05 1.827E+07 32.9720 1.00000
  5.012E+11 5.012E+11 3.514E+00 1.293E+04 2.266E+05 2.225E+05 4.620E+05 4.620E+05 1.840E+07 33.2022 1.00000
  5.623E+11 5.623E+11 3.531E+00 1.451E+04 2.542E+05 2.550E+05 5.238E+05 5.238E+05 1.852E+07 33.4325 1.00000
  6.310E+11 6.310E+11 3.547E+00 1.628E+04 2.852E+05 2.923E+05 5.938E+05 5.938E+05 1.865E+07 33.6627 1.00000
  7.079E+11 7.079E+11 3.564E+00 1.827E+04 3.200E+05 3.350E+05 6.733E+05 6.733E+05 1.877E+07 33.8930 1.00000
  7.943E+11 7.943E+11 3.582E+00 2.050E+04 3.590E+05 3.840E+05 7.636E+05 7.636E+05 1.889E+07 34.1233 1.00000
  8.913E+11 8.913E+11 3.599E+00 2.300E+04 4.028E+05 4.402E+05 8.661E+05 8.661E+05 1.901E+07 34.3535 1.00000
  1.000E+12 1.000E+12 3.616E+00 2.580E+04 4.520E+05 5.047E+05 9.824E+05 9.824E+05 1.913E+07 34.5838 1.00000
  1.122E+12 1.122E+12 3.633E+00 2.895E+04 5.071E+05 5.786E+05 1.115E+06 1.115E+06 1.924E+07 34.8140 1.00000
  1.259E+12 1.259E+12 3.651E+00 3.249E+04 5.689E+05 6.633E+05 1.265E+06 1.265E+06 1.936E+07 35.0443 1.00000
  1.413E+12 1.413E+12 3.668E+00 3.645E+04 6.383E+05 7.605E+05 1.435E+06 1.435E+06 1.947E+07 35.2746 1.00000
  1.585E+12 1.585E+12 3.686E+00 4.090E+04 7.162E+05 8.720E+05 1.629E+06 1.629E+06 1.959E+07 35.5048 1.00000
  1.778E+12 1.778E+12 3.704E+00 4.589E+04 8.036E+05 9.999E+05 1.849E+06 1.849E+06 1.970E+07 35.7351 1.00000
  1.995E+12 1.995E+12 3.722E+00 5.149E+04 9.016E+05 1.147E+06 2.100E+06 2.100E+06 1.981E+07 35.9653 1.00000
  2.239E+12 2.239E+12 3.740E+00 5.777E+04 1.012E+06 1.315E+06 2.384E+06 2.384E+06 1.992E+07 36.1956 1.00000
  2.512E+12 2.512E+12 3.758E+00 6.482E+04 1.135E+06 1.508E+06 2.708E+06 2.708E+06 2.002E+07 36.4258 1.00000
  2.818E+12 2.818E+12 3.776E+00 7.273E+04 1.273E+06 1.730E+06 3.076E+06 3.076E+06 2.013E+07 36.6561 1.00000
  3.162E+12 3.162E+12 3.794E+00 8.161E+04 1.429E+06 1.984E+06 3.494E+06 3.494E+06 2.024E+07 36.8864 1.00000
  3.548E+12 3.548E+12 3.812E+00 9.157E+04 1.603E+06 2.275E+06 3.970E+06 3.970E+06 2.034E+07 37.1166 1.00000
  3.981E+12 3.981E+12 3.831E+00 1.027E+05 1.798E+06 2.610E+06 4.511E+06 4.511E+06 2.044E+07 37.3469 1.00000
  4.467E+12 4.467E+12 3.849E+00 1.153E+05 2.018E+06 2.994E+06 5.127E+06 5.127E+06 2.054E+07 37.5771 1.00000
  5.012E+12 5.012E+12 3.868E+00 1.293E+05 2.264E+06 3.435E+06 5.828E+06 5.828E+06 2.064E+07 37.8074 1.00000
  5.623E+12 5.623E+12 3.887E+00 1.451E+05 2.540E+06 3.940E+06 6.625E+06 6.625E+06 2.074E+07 38.0377 1.00000
  6.310E+12 6.310E+12 3.906E+00 1.628E+05 2.850E+06 4.521E+06 7.533E+06 7.533E+06 2.084E+07 38.2679 1.00000
  7.079E+12 7.079E+12 3.925E+00 1.827E+05 3.197E+06 5.187E+06 8.567E+06 8.567E+06 2.094E+07 38.4982 1.00000
  7.943E+12 7.943E+12 3.944E+00 2.050E+05 3.587E+06 5.951E+06 9.744E+06 9.744E+06 2.103E+07 38.7284 1.00000
  8.913E+12 8.913E+12 3.963E+00 2.300E+05 4.025E+06 6.829E+06 1.108E+07 1.108E+07 2.112E+07 38.9587 1.00000
  1.000E+13 1.000E+13 3.982E+00 2.581E+05 4.516E+06 7.836E+06 1.261E+07 1.261E+07 2.122E+07 39.1890 1.00000
  1.122E+13 1.122E+13 4.001E+00 2.896E+05 5.066E+06 8.993E+06 1.435E+07 1.435E+07 2.131E+07 39.4192 1.00000
  1.259E+13 1.259E+13 4.021E+00 3.249E+05 5.684E+06 1.032E+07 1.633E+07 1.633E+07 2.140E+07 39.6495 1.00000
  1.413E+13 1.413E+13 4.040E+00 3.645E+05 6.378E+06 1.184E+07 1.859E+07 1.859E+07 2.148E+07 39.8797 1.00000
  1.585E+13 1.585E+13 4.060E+00 4.090E+05 7.155E+06 1.359E+07 2.116E+07 2.116E+07 2.157E+07 40.1100 1.00000
  1.778E+13 1.778E+13 4.080E+00 4.589E+05 8.028E+06 1.560E+07 2.409E+07 2.409E+07 2.166E+07 40.3402 1.00000
  1.995E+13 1.995E+13 4.100E+00 5.149E+05 9.007E+06 1.791E+07 2.743E+07 2.743E+07 2.174E+07 40.5705 1.00000
  2.239E+13 2.239E+13 4.120E+00 5.778E+05 1.011E+07 2.056E+07 3.124E+07 3.124E+07 2.183E+07 40.8008 1.00000
  2.512E+13 2.512E+13 4.140E+00 6.483E+05 1.134E+07 2.360E+07 3.559E+07 3.559E+07 2.191E+07 41.0310 1.00000
  2.818E+13 2.818E+13 4.160E+00 7.274E+05 1.272E+07 2.710E+07 4.054E+07 4.054E+07 2.199E+07 41.2613 1.00000
  3.162E+13 3.162E+13 4.181E+00 8.161E+05 1.427E+07 3.111E+07 4.620E+07 4.620E+07 2.207E+07 41.4915 1.00000
  3.548E+13 3.548E+13 4.201E+00 9.157E+05 1.601E+07 3.571E+07 5.264E+07 5.264E+07 2.215E+07 41.7218 1.00000
  3.981E+13 3.981E+13 4.222E+00 1.027E+06 1.797E+07 4.101E+07 6.000E+07 6.000E+07 2.222E+07 41.9521 1.00000
  4.467E+13 4.467E+13 4.242E+00 1.153E+06 2.016E+07 4.709E+07 6.840E+07 6.840E+07 2.230E+07 42.1823 1.00000
  5.012E+13 5.012E+13 4.263E+00 1.293E+06 2.262E+07 5.407E+07 7.798E+07 7.798E+07 2.237E+07 42.4126 1.00000
  5.623E+13 5.623E+13 4.284E+00 1.451E+06 2.537E+07 6.209E+07 8.891E+07 8.891E+07 2.245E+07 42.6428 1.00000
  6.310E+13 6.310E+13 4.305E+00 1.628E+06 2.847E+07 7.130E+07 1.014E+08 1.014E+08 2.252E+07 42.8731 1.00000
  7.079E+13 7.079E+13 4.326E+00 1.827E+06 3.194E+07 8.189E+07 1.157E+08 1.157E+08 2.259E+07 43.1033 1.00000
  7.943E+13 7.943E+13 4.347E+00 2.050E+06 3.583E+07 9.405E+07 1.319E+08 1.319E+08 2.266E+07 43.3336 1.00000
  8.913E+13 8.913E+13 4.369E+00 2.300E+06 4.020E+07 1.080E+08 1.505E+08 1.505E+08 2.273E+07 43.5639 1.00000
