 Incident particle is a Tau with M = 1776.82000 MeV
 Index = 0: Terphenyl
      Absorber with <Z/A> = 0.52146
 Sternheimer coef:  a     k=m_s   x_0    x_1    I[eV]   Cbar  delta0
                 0.1496  3.2685  0.1322  2.5429   71.7  3.2639 0.00

 *** Table generated with PUMAS v1.00 ***

      T         p     Ionization  brems     pair     photonuc  Radloss    dE/dx   CSDA Range  delta   beta
    [MeV]    [MeV/c]  -----------------------[MeV cm^2/g]------------------------  [g/cm^2]
  1.000E+05 1.018E+05 2.287E+00 1.170E-04 1.813E-03 8.397E-03 1.033E-02 2.297E+00 2.177E+04  4.8995 0.99985
  1.122E+05 1.140E+05 2.307E+00 1.351E-04 2.193E-03 9.487E-03 1.181E-02 2.318E+00 2.705E+04  5.1131 0.99988
  1.259E+05 1.277E+05 2.326E+00 1.560E-04 2.641E-03 1.066E-02 1.346E-02 2.340E+00 3.293E+04  5.3289 0.99990
  1.413E+05 1.430E+05 2.346E+00 1.800E-04 3.169E-03 1.199E-02 1.533E-02 2.361E+00 3.947E+04  5.5467 0.99992
  1.585E+05 1.603E+05 2.365E+00 2.075E-04 3.790E-03 1.347E-02 1.746E-02 2.383E+00 4.673E+04  5.7663 0.99994
  1.778E+05 1.796E+05 2.385E+00 2.393E-04 4.520E-03 1.512E-02 1.988E-02 2.405E+00 5.481E+04  5.9876 0.99995
  1.995E+05 2.013E+05 2.404E+00 2.757E-04 5.375E-03 1.701E-02 2.266E-02 2.427E+00 6.380E+04  6.2104 0.99996
  2.239E+05 2.256E+05 2.423E+00 3.175E-04 6.376E-03 1.908E-02 2.577E-02 2.449E+00 7.378E+04  6.4345 0.99997
  2.512E+05 2.530E+05 2.443E+00 3.656E-04 7.543E-03 2.139E-02 2.930E-02 2.472E+00 8.489E+04  6.6598 0.99998
  2.818E+05 2.836E+05 2.462E+00 4.207E-04 8.904E-03 2.400E-02 3.333E-02 2.495E+00 9.723E+04  6.8860 0.99998
  3.162E+05 3.180E+05 2.481E+00 4.840E-04 1.049E-02 2.696E-02 3.793E-02 2.519E+00 1.109E+05  7.1132 0.99998
  3.548E+05 3.566E+05 2.500E+00 5.565E-04 1.232E-02 3.027E-02 4.315E-02 2.543E+00 1.262E+05  7.3410 0.99999
  3.981E+05 3.999E+05 2.519E+00 6.397E-04 1.445E-02 3.397E-02 4.907E-02 2.568E+00 1.431E+05  7.5694 0.99999
  4.467E+05 4.485E+05 2.538E+00 7.351E-04 1.692E-02 3.813E-02 5.578E-02 2.594E+00 1.620E+05  7.7983 0.99999
  5.012E+05 5.030E+05 2.557E+00 8.443E-04 1.978E-02 4.280E-02 6.342E-02 2.620E+00 1.829E+05  8.0275 0.99999
  5.623E+05 5.641E+05 2.576E+00 9.695E-04 2.307E-02 4.787E-02 7.191E-02 2.647E+00 2.061E+05  8.2570 1.00000
  6.310E+05 6.327E+05 2.594E+00 1.113E-03 2.687E-02 5.359E-02 8.157E-02 2.676E+00 2.319E+05  8.4865 1.00000
  7.079E+05 7.097E+05 2.613E+00 1.277E-03 3.124E-02 6.004E-02 9.256E-02 2.706E+00 2.605E+05  8.7162 1.00000
  7.943E+05 7.961E+05 2.632E+00 1.465E-03 3.628E-02 6.733E-02 1.051E-01 2.737E+00 2.922E+05  8.9459 1.00000
  8.913E+05 8.930E+05 2.650E+00 1.680E-03 4.206E-02 7.557E-02 1.193E-01 2.770E+00 3.274E+05  9.1757 1.00000
  1.000E+06 1.002E+06 2.669E+00 1.926E-03 4.870E-02 8.489E-02 1.355E-01 2.804E+00 3.664E+05  9.4055 1.00000
  1.122E+06 1.124E+06 2.687E+00 2.208E-03 5.631E-02 9.544E-02 1.540E-01 2.841E+00 4.097E+05  9.6354 1.00000
  1.259E+06 1.261E+06 2.706E+00 2.530E-03 6.502E-02 1.074E-01 1.750E-01 2.880E+00 4.575E+05  9.8653 1.00000
  1.413E+06 1.414E+06 2.724E+00 2.898E-03 7.499E-02 1.210E-01 1.988E-01 2.923E+00 5.105E+05 10.0952 1.00000
  1.585E+06 1.587E+06 2.742E+00 3.319E-03 8.639E-02 1.363E-01 2.260E-01 2.968E+00 5.690E+05 10.3252 1.00000
  1.778E+06 1.780E+06 2.760E+00 3.800E-03 9.940E-02 1.538E-01 2.570E-01 3.017E+00 6.336E+05 10.5552 1.00000
  1.995E+06 1.997E+06 2.778E+00 4.350E-03 1.142E-01 1.736E-01 2.921E-01 3.070E+00 7.049E+05 10.7853 1.00000
  2.239E+06 2.240E+06 2.795E+00 4.978E-03 1.311E-01 1.961E-01 3.322E-01 3.127E+00 7.835E+05 11.0154 1.00000
  2.512E+06 2.514E+06 2.813E+00 5.696E-03 1.504E-01 2.216E-01 3.777E-01 3.190E+00 8.700E+05 11.2454 1.00000
  2.818E+06 2.820E+06 2.830E+00 6.515E-03 1.723E-01 2.507E-01 4.295E-01 3.260E+00 9.650E+05 11.4755 1.00000
  3.162E+06 3.164E+06 2.847E+00 7.451E-03 1.972E-01 2.837E-01 4.883E-01 3.336E+00 1.069E+06 11.7057 1.00000
  3.548E+06 3.550E+06 2.864E+00 8.519E-03 2.255E-01 3.213E-01 5.552E-01 3.420E+00 1.184E+06 11.9358 1.00000
  3.981E+06 3.983E+06 2.881E+00 9.737E-03 2.576E-01 3.640E-01 6.313E-01 3.513E+00 1.309E+06 12.1660 1.00000
  4.467E+06 4.469E+06 2.898E+00 1.113E-02 2.939E-01 4.127E-01 7.177E-01 3.616E+00 1.445E+06 12.3961 1.00000
  5.012E+06 5.014E+06 2.915E+00 1.271E-02 3.352E-01 4.681E-01 8.160E-01 3.731E+00 1.593E+06 12.6263 1.00000
  5.623E+06 5.625E+06 2.931E+00 1.452E-02 3.819E-01 5.311E-01 9.276E-01 3.859E+00 1.754E+06 12.8565 1.00000
  6.310E+06 6.311E+06 2.947E+00 1.658E-02 4.348E-01 6.030E-01 1.054E+00 4.002E+00 1.929E+06 13.0867 1.00000
  7.079E+06 7.081E+06 2.963E+00 1.893E-02 4.945E-01 6.848E-01 1.198E+00 4.162E+00 2.118E+06 13.3169 1.00000
  7.943E+06 7.945E+06 2.979E+00 2.161E-02 5.621E-01 7.781E-01 1.362E+00 4.341E+00 2.321E+06 13.5471 1.00000
  8.913E+06 8.914E+06 2.995E+00 2.466E-02 6.385E-01 8.844E-01 1.548E+00 4.543E+00 2.539E+06 13.7773 1.00000
  1.000E+07 1.000E+07 3.011E+00 2.813E-02 7.248E-01 1.006E+00 1.758E+00 4.769E+00 2.773E+06 14.0075 1.00000
  1.122E+07 1.122E+07 3.026E+00 3.208E-02 8.221E-01 1.144E+00 1.998E+00 5.024E+00 3.022E+06 14.2377 1.00000
  1.259E+07 1.259E+07 3.041E+00 3.658E-02 9.320E-01 1.301E+00 2.270E+00 5.311E+00 3.288E+06 14.4679 1.00000
  1.413E+07 1.413E+07 3.057E+00 4.170E-02 1.056E+00 1.481E+00 2.578E+00 5.635E+00 3.569E+06 14.6982 1.00000
  1.585E+07 1.585E+07 3.072E+00 4.752E-02 1.196E+00 1.686E+00 2.929E+00 6.000E+00 3.865E+06 14.9284 1.00000
  1.778E+07 1.778E+07 3.087E+00 5.414E-02 1.353E+00 1.919E+00 3.326E+00 6.413E+00 4.177E+06 15.1586 1.00000
  1.995E+07 1.995E+07 3.101E+00 6.166E-02 1.530E+00 2.186E+00 3.777E+00 6.879E+00 4.504E+06 15.3889 1.00000
  2.239E+07 2.239E+07 3.116E+00 7.021E-02 1.730E+00 2.490E+00 4.290E+00 7.406E+00 4.845E+06 15.6191 1.00000
  2.512E+07 2.512E+07 3.131E+00 7.992E-02 1.955E+00 2.836E+00 4.871E+00 8.002E+00 5.200E+06 15.8493 1.00000
  2.818E+07 2.819E+07 3.146E+00 9.096E-02 2.208E+00 3.232E+00 5.531E+00 8.677E+00 5.569E+06 16.0796 1.00000
  3.162E+07 3.162E+07 3.160E+00 1.035E-01 2.492E+00 3.684E+00 6.280E+00 9.440E+00 5.949E+06 16.3098 1.00000
  3.548E+07 3.548E+07 3.175E+00 1.177E-01 2.813E+00 4.199E+00 7.130E+00 1.030E+01 6.340E+06 16.5401 1.00000
  3.981E+07 3.981E+07 3.189E+00 1.338E-01 3.173E+00 4.788E+00 8.094E+00 1.128E+01 6.742E+06 16.7703 1.00000
  4.467E+07 4.467E+07 3.204E+00 1.521E-01 3.578E+00 5.459E+00 9.189E+00 1.239E+01 7.154E+06 17.0006 1.00000
  5.012E+07 5.012E+07 3.218E+00 1.729E-01 4.033E+00 6.226E+00 1.043E+01 1.365E+01 7.573E+06 17.2308 1.00000
  5.623E+07 5.624E+07 3.233E+00 1.964E-01 4.545E+00 7.101E+00 1.184E+01 1.507E+01 8.000E+06 17.4611 1.00000
  6.310E+07 6.310E+07 3.247E+00 2.230E-01 5.120E+00 8.100E+00 1.344E+01 1.669E+01 8.433E+06 17.6913 1.00000
  7.079E+07 7.080E+07 3.262E+00 2.533E-01 5.766E+00 9.240E+00 1.526E+01 1.852E+01 8.872E+06 17.9216 1.00000
  7.943E+07 7.943E+07 3.276E+00 2.875E-01 6.492E+00 1.054E+01 1.732E+01 2.060E+01 9.315E+06 18.1518 1.00000
  8.913E+07 8.913E+07 3.291E+00 3.262E-01 7.307E+00 1.203E+01 1.966E+01 2.295E+01 9.761E+06 18.3821 1.00000
  1.000E+08 1.000E+08 3.305E+00 3.700E-01 8.223E+00 1.373E+01 2.232E+01 2.563E+01 1.021E+07 18.6123 1.00000
  1.122E+08 1.122E+08 3.320E+00 4.196E-01 9.252E+00 1.567E+01 2.534E+01 2.866E+01 1.066E+07 18.8426 1.00000
  1.259E+08 1.259E+08 3.335E+00 4.758E-01 1.041E+01 1.788E+01 2.877E+01 3.210E+01 1.111E+07 19.0728 1.00000
  1.413E+08 1.413E+08 3.349E+00 5.392E-01 1.170E+01 2.041E+01 3.266E+01 3.601E+01 1.157E+07 19.3031 1.00000
  1.585E+08 1.585E+08 3.364E+00 6.110E-01 1.316E+01 2.330E+01 3.708E+01 4.044E+01 1.202E+07 19.5334 1.00000
  1.778E+08 1.778E+08 3.379E+00 6.922E-01 1.480E+01 2.660E+01 4.209E+01 4.547E+01 1.247E+07 19.7636 1.00000
  1.995E+08 1.995E+08 3.394E+00 7.839E-01 1.663E+01 3.038E+01 4.779E+01 5.119E+01 1.292E+07 19.9939 1.00000
  2.239E+08 2.239E+08 3.408E+00 8.874E-01 1.869E+01 3.468E+01 5.426E+01 5.767E+01 1.337E+07 20.2241 1.00000
  2.512E+08 2.512E+08 3.423E+00 1.004E+00 2.101E+01 3.961E+01 6.162E+01 6.504E+01 1.382E+07 20.4544 1.00000
  2.818E+08 2.818E+08 3.438E+00 1.137E+00 2.360E+01 4.523E+01 6.997E+01 7.341E+01 1.426E+07 20.6846 1.00000
  3.162E+08 3.162E+08 3.453E+00 1.286E+00 2.652E+01 5.166E+01 7.946E+01 8.291E+01 1.470E+07 20.9149 1.00000
  3.548E+08 3.548E+08 3.468E+00 1.454E+00 2.979E+01 5.900E+01 9.024E+01 9.371E+01 1.514E+07 21.1452 1.00000
  3.981E+08 3.981E+08 3.484E+00 1.644E+00 3.346E+01 6.739E+01 1.025E+02 1.060E+02 1.558E+07 21.3754 1.00000
  4.467E+08 4.467E+08 3.499E+00 1.858E+00 3.758E+01 7.698E+01 1.164E+02 1.199E+02 1.601E+07 21.6057 1.00000
  5.012E+08 5.012E+08 3.514E+00 2.099E+00 4.220E+01 8.794E+01 1.322E+02 1.358E+02 1.644E+07 21.8359 1.00000
  5.623E+08 5.623E+08 3.530E+00 2.371E+00 4.739E+01 1.005E+02 1.502E+02 1.538E+02 1.686E+07 22.0662 1.00000
  6.310E+08 6.310E+08 3.545E+00 2.678E+00 5.322E+01 1.148E+02 1.707E+02 1.742E+02 1.728E+07 22.2964 1.00000
  7.079E+08 7.079E+08 3.561E+00 3.024E+00 5.975E+01 1.311E+02 1.939E+02 1.975E+02 1.770E+07 22.5267 1.00000
  7.943E+08 7.943E+08 3.576E+00 3.413E+00 6.709E+01 1.498E+02 2.204E+02 2.239E+02 1.811E+07 22.7570 1.00000
  8.913E+08 8.913E+08 3.592E+00 3.852E+00 7.532E+01 1.712E+02 2.504E+02 2.540E+02 1.851E+07 22.9872 1.00000
  1.000E+09 1.000E+09 3.608E+00 4.346E+00 8.455E+01 1.957E+02 2.846E+02 2.882E+02 1.892E+07 23.2175 1.00000
  1.122E+09 1.122E+09 3.624E+00 4.902E+00 9.492E+01 2.236E+02 3.234E+02 3.271E+02 1.932E+07 23.4477 1.00000
  1.259E+09 1.259E+09 3.640E+00 5.528E+00 1.065E+02 2.556E+02 3.677E+02 3.713E+02 1.971E+07 23.6780 1.00000
  1.413E+09 1.413E+09 3.656E+00 6.233E+00 1.196E+02 2.921E+02 4.179E+02 4.216E+02 2.010E+07 23.9082 1.00000
  1.585E+09 1.585E+09 3.672E+00 7.026E+00 1.342E+02 3.339E+02 4.752E+02 4.788E+02 2.048E+07 24.1385 1.00000
  1.778E+09 1.778E+09 3.688E+00 7.918E+00 1.507E+02 3.817E+02 5.403E+02 5.439E+02 2.086E+07 24.3688 1.00000
  1.995E+09 1.995E+09 3.705E+00 8.922E+00 1.691E+02 4.363E+02 6.143E+02 6.180E+02 2.124E+07 24.5990 1.00000
  2.239E+09 2.239E+09 3.721E+00 1.005E+01 1.898E+02 4.988E+02 6.986E+02 7.023E+02 2.161E+07 24.8293 1.00000
  2.512E+09 2.512E+09 3.738E+00 1.132E+01 2.130E+02 5.702E+02 7.946E+02 7.983E+02 2.197E+07 25.0595 1.00000
  2.818E+09 2.818E+09 3.754E+00 1.275E+01 2.390E+02 6.520E+02 9.038E+02 9.075E+02 2.233E+07 25.2898 1.00000
  3.162E+09 3.162E+09 3.771E+00 1.435E+01 2.683E+02 7.454E+02 1.028E+03 1.032E+03 2.269E+07 25.5201 1.00000
  3.548E+09 3.548E+09 3.788E+00 1.616E+01 3.011E+02 8.524E+02 1.170E+03 1.173E+03 2.304E+07 25.7503 1.00000
  3.981E+09 3.981E+09 3.804E+00 1.819E+01 3.379E+02 9.747E+02 1.331E+03 1.335E+03 2.339E+07 25.9806 1.00000
  4.467E+09 4.467E+09 3.821E+00 2.046E+01 3.791E+02 1.115E+03 1.514E+03 1.518E+03 2.373E+07 26.2108 1.00000
  5.012E+09 5.012E+09 3.838E+00 2.303E+01 4.254E+02 1.275E+03 1.723E+03 1.727E+03 2.407E+07 26.4411 1.00000
  5.623E+09 5.623E+09 3.856E+00 2.590E+01 4.774E+02 1.458E+03 1.961E+03 1.965E+03 2.440E+07 26.6713 1.00000
  6.310E+09 6.310E+09 3.873E+00 2.914E+01 5.357E+02 1.667E+03 2.232E+03 2.236E+03 2.473E+07 26.9016 1.00000
  7.079E+09 7.079E+09 3.890E+00 3.277E+01 6.012E+02 1.907E+03 2.541E+03 2.545E+03 2.505E+07 27.1319 1.00000
  7.943E+09 7.943E+09 3.908E+00 3.685E+01 6.746E+02 2.182E+03 2.893E+03 2.897E+03 2.537E+07 27.3621 1.00000
  8.913E+09 8.913E+09 3.925E+00 4.143E+01 7.569E+02 2.496E+03 3.294E+03 3.298E+03 2.568E+07 27.5924 1.00000
  1.000E+10 1.000E+10 3.943E+00 4.657E+01 8.494E+02 2.855E+03 3.751E+03 3.755E+03 2.599E+07 27.8226 1.00000
  1.122E+10 1.122E+10 3.961E+00 5.235E+01 9.530E+02 3.266E+03 4.272E+03 4.276E+03 2.630E+07 28.0529 1.00000
  1.259E+10 1.259E+10 3.979E+00 5.884E+01 1.069E+03 3.737E+03 4.865E+03 4.869E+03 2.660E+07 28.2832 1.00000
  1.413E+10 1.413E+10 3.996E+00 6.613E+01 1.200E+03 4.276E+03 5.542E+03 5.546E+03 2.690E+07 28.5134 1.00000
  1.585E+10 1.585E+10 4.015E+00 7.431E+01 1.346E+03 4.892E+03 6.313E+03 6.317E+03 2.719E+07 28.7437 1.00000
  1.778E+10 1.778E+10 4.033E+00 8.349E+01 1.511E+03 5.598E+03 7.192E+03 7.196E+03 2.748E+07 28.9739 1.00000
  1.995E+10 1.995E+10 4.051E+00 9.380E+01 1.695E+03 6.406E+03 8.195E+03 8.199E+03 2.776E+07 29.2042 1.00000
  2.239E+10 2.239E+10 4.069E+00 1.054E+02 1.902E+03 7.331E+03 9.339E+03 9.343E+03 2.804E+07 29.4345 1.00000
  2.512E+10 2.512E+10 4.088E+00 1.184E+02 2.134E+03 8.391E+03 1.064E+04 1.065E+04 2.831E+07 29.6647 1.00000
  2.818E+10 2.818E+10 4.106E+00 1.330E+02 2.395E+03 9.603E+03 1.213E+04 1.213E+04 2.858E+07 29.8950 1.00000
  3.162E+10 3.162E+10 4.125E+00 1.493E+02 2.687E+03 1.099E+04 1.383E+04 1.383E+04 2.885E+07 30.1252 1.00000
  3.548E+10 3.548E+10 4.144E+00 1.677E+02 3.015E+03 1.258E+04 1.576E+04 1.577E+04 2.911E+07 30.3555 1.00000
  3.981E+10 3.981E+10 4.163E+00 1.883E+02 3.382E+03 1.440E+04 1.797E+04 1.798E+04 2.937E+07 30.5857 1.00000
  4.467E+10 4.467E+10 4.182E+00 2.115E+02 3.795E+03 1.649E+04 2.049E+04 2.050E+04 2.962E+07 30.8160 1.00000
  5.012E+10 5.012E+10 4.201E+00 2.375E+02 4.258E+03 1.888E+04 2.337E+04 2.338E+04 2.987E+07 31.0463 1.00000
  5.623E+10 5.623E+10 4.220E+00 2.666E+02 4.778E+03 2.161E+04 2.665E+04 2.666E+04 3.012E+07 31.2765 1.00000
  6.310E+10 6.310E+10 4.239E+00 2.993E+02 5.361E+03 2.474E+04 3.040E+04 3.041E+04 3.036E+07 31.5068 1.00000
  7.079E+10 7.079E+10 4.259E+00 3.361E+02 6.015E+03 2.833E+04 3.468E+04 3.469E+04 3.060E+07 31.7370 1.00000
  7.943E+10 7.943E+10 4.278E+00 3.773E+02 6.748E+03 3.244E+04 3.957E+04 3.957E+04 3.083E+07 31.9673 1.00000
  8.913E+10 8.913E+10 4.298E+00 4.235E+02 7.572E+03 3.715E+04 4.514E+04 4.515E+04 3.106E+07 32.1976 1.00000
  1.000E+11 1.000E+11 4.318E+00 4.754E+02 8.496E+03 4.254E+04 5.151E+04 5.152E+04 3.128E+07 32.4278 1.00000
  1.122E+11 1.122E+11 4.338E+00 5.337E+02 9.532E+03 4.872E+04 5.879E+04 5.879E+04 3.151E+07 32.6581 1.00000
  1.259E+11 1.259E+11 4.358E+00 5.990E+02 1.069E+04 5.580E+04 6.709E+04 6.710E+04 3.173E+07 32.8883 1.00000
  1.413E+11 1.413E+11 4.378E+00 6.724E+02 1.200E+04 6.391E+04 7.658E+04 7.659E+04 3.194E+07 33.1186 1.00000
  1.585E+11 1.585E+11 4.398E+00 7.547E+02 1.346E+04 7.320E+04 8.742E+04 8.743E+04 3.215E+07 33.3488 1.00000
  1.778E+11 1.778E+11 4.418E+00 8.470E+02 1.511E+04 8.385E+04 9.981E+04 9.981E+04 3.236E+07 33.5791 1.00000
  1.995E+11 1.995E+11 4.439E+00 9.506E+02 1.695E+04 9.606E+04 1.140E+05 1.140E+05 3.256E+07 33.8094 1.00000
  2.239E+11 2.239E+11 4.459E+00 1.067E+03 1.902E+04 1.100E+05 1.301E+05 1.301E+05 3.276E+07 34.0396 1.00000
  2.512E+11 2.512E+11 4.480E+00 1.197E+03 2.134E+04 1.261E+05 1.486E+05 1.486E+05 3.296E+07 34.2699 1.00000
  2.818E+11 2.818E+11 4.501E+00 1.344E+03 2.394E+04 1.444E+05 1.697E+05 1.697E+05 3.315E+07 34.5001 1.00000
  3.162E+11 3.162E+11 4.521E+00 1.508E+03 2.686E+04 1.655E+05 1.939E+05 1.939E+05 3.334E+07 34.7304 1.00000
  3.548E+11 3.548E+11 4.543E+00 1.692E+03 3.014E+04 1.896E+05 2.215E+05 2.215E+05 3.353E+07 34.9607 1.00000
  3.981E+11 3.981E+11 4.564E+00 1.899E+03 3.381E+04 2.173E+05 2.530E+05 2.530E+05 3.371E+07 35.1909 1.00000
  4.467E+11 4.467E+11 4.585E+00 2.131E+03 3.794E+04 2.490E+05 2.891E+05 2.891E+05 3.389E+07 35.4212 1.00000
  5.012E+11 5.012E+11 4.606E+00 2.392E+03 4.256E+04 2.854E+05 3.303E+05 3.303E+05 3.407E+07 35.6514 1.00000
  5.623E+11 5.623E+11 4.628E+00 2.684E+03 4.776E+04 3.271E+05 3.775E+05 3.775E+05 3.424E+07 35.8817 1.00000
  6.310E+11 6.310E+11 4.649E+00 3.012E+03 5.358E+04 3.749E+05 4.315E+05 4.315E+05 3.441E+07 36.1119 1.00000
  7.079E+11 7.079E+11 4.671E+00 3.379E+03 6.012E+04 4.297E+05 4.932E+05 4.932E+05 3.458E+07 36.3422 1.00000
  7.943E+11 7.943E+11 4.693E+00 3.792E+03 6.745E+04 4.925E+05 5.638E+05 5.638E+05 3.475E+07 36.5725 1.00000
  8.913E+11 8.913E+11 4.715E+00 4.255E+03 7.568E+04 5.646E+05 6.445E+05 6.445E+05 3.491E+07 36.8027 1.00000
  1.000E+12 1.000E+12 4.737E+00 4.775E+03 8.491E+04 6.472E+05 7.369E+05 7.369E+05 3.506E+07 37.0330 1.00000
  1.122E+12 1.122E+12 4.759E+00 5.358E+03 9.526E+04 7.420E+05 8.426E+05 8.426E+05 3.522E+07 37.2632 1.00000
  1.259E+12 1.259E+12 4.782E+00 6.012E+03 1.069E+05 8.507E+05 9.636E+05 9.636E+05 3.537E+07 37.4935 1.00000
  1.413E+12 1.413E+12 4.804E+00 6.746E+03 1.199E+05 9.753E+05 1.102E+06 1.102E+06 3.552E+07 37.7238 1.00000
  1.585E+12 1.585E+12 4.827E+00 7.570E+03 1.345E+05 1.118E+06 1.260E+06 1.260E+06 3.567E+07 37.9540 1.00000
  1.778E+12 1.778E+12 4.849E+00 8.494E+03 1.510E+05 1.282E+06 1.442E+06 1.442E+06 3.581E+07 38.1843 1.00000
  1.995E+12 1.995E+12 4.872E+00 9.530E+03 1.694E+05 1.470E+06 1.649E+06 1.649E+06 3.595E+07 38.4145 1.00000
  2.239E+12 2.239E+12 4.895E+00 1.069E+04 1.900E+05 1.686E+06 1.887E+06 1.887E+06 3.609E+07 38.6448 1.00000
  2.512E+12 2.512E+12 4.918E+00 1.200E+04 2.132E+05 1.934E+06 2.159E+06 2.159E+06 3.623E+07 38.8750 1.00000
  2.818E+12 2.818E+12 4.941E+00 1.346E+04 2.392E+05 2.218E+06 2.471E+06 2.471E+06 3.636E+07 39.1053 1.00000
  3.162E+12 3.162E+12 4.965E+00 1.511E+04 2.684E+05 2.544E+06 2.827E+06 2.827E+06 3.649E+07 39.3356 1.00000
  3.548E+12 3.548E+12 4.988E+00 1.695E+04 3.011E+05 2.918E+06 3.236E+06 3.236E+06 3.662E+07 39.5658 1.00000
  3.981E+12 3.981E+12 5.012E+00 1.902E+04 3.379E+05 3.347E+06 3.704E+06 3.704E+06 3.674E+07 39.7961 1.00000
  4.467E+12 4.467E+12 5.036E+00 2.134E+04 3.791E+05 3.839E+06 4.240E+06 4.240E+06 3.687E+07 40.0263 1.00000
  5.012E+12 5.012E+12 5.060E+00 2.394E+04 4.253E+05 4.405E+06 4.854E+06 4.854E+06 3.699E+07 40.2566 1.00000
  5.623E+12 5.623E+12 5.084E+00 2.687E+04 4.772E+05 5.053E+06 5.557E+06 5.557E+06 3.710E+07 40.4869 1.00000
  6.310E+12 6.310E+12 5.108E+00 3.015E+04 5.354E+05 5.797E+06 6.363E+06 6.363E+06 3.722E+07 40.7171 1.00000
  7.079E+12 7.079E+12 5.132E+00 3.382E+04 6.007E+05 6.652E+06 7.286E+06 7.286E+06 3.733E+07 40.9474 1.00000
  7.943E+12 7.943E+12 5.156E+00 3.795E+04 6.739E+05 7.632E+06 8.344E+06 8.344E+06 3.744E+07 41.1776 1.00000
  8.913E+12 8.913E+12 5.181E+00 4.258E+04 7.561E+05 8.757E+06 9.556E+06 9.556E+06 3.755E+07 41.4079 1.00000
  1.000E+13 1.000E+13 5.205E+00 4.778E+04 8.483E+05 1.005E+07 1.095E+07 1.095E+07 3.766E+07 41.6382 1.00000
  1.122E+13 1.122E+13 5.230E+00 5.361E+04 9.518E+05 1.153E+07 1.254E+07 1.254E+07 3.776E+07 41.8684 1.00000
  1.259E+13 1.259E+13 5.255E+00 6.015E+04 1.068E+06 1.323E+07 1.436E+07 1.436E+07 3.787E+07 42.0987 1.00000
  1.413E+13 1.413E+13 5.280E+00 6.749E+04 1.198E+06 1.519E+07 1.646E+07 1.646E+07 3.797E+07 42.3289 1.00000
  1.585E+13 1.585E+13 5.305E+00 7.573E+04 1.344E+06 1.743E+07 1.885E+07 1.885E+07 3.806E+07 42.5592 1.00000
  1.778E+13 1.778E+13 5.331E+00 8.497E+04 1.508E+06 2.001E+07 2.160E+07 2.160E+07 3.816E+07 42.7894 1.00000
  1.995E+13 1.995E+13 5.356E+00 9.534E+04 1.692E+06 2.297E+07 2.476E+07 2.476E+07 3.826E+07 43.0197 1.00000
  2.239E+13 2.239E+13 5.382E+00 1.070E+05 1.899E+06 2.637E+07 2.837E+07 2.837E+07 3.835E+07 43.2500 1.00000
  2.512E+13 2.512E+13 5.408E+00 1.200E+05 2.130E+06 3.027E+07 3.252E+07 3.252E+07 3.844E+07 43.4802 1.00000
  2.818E+13 2.818E+13 5.434E+00 1.347E+05 2.390E+06 3.475E+07 3.727E+07 3.727E+07 3.853E+07 43.7105 1.00000
  3.162E+13 3.162E+13 5.460E+00 1.511E+05 2.681E+06 3.989E+07 4.272E+07 4.272E+07 3.861E+07 43.9407 1.00000
  3.548E+13 3.548E+13 5.486E+00 1.695E+05 3.008E+06 4.580E+07 4.898E+07 4.898E+07 3.870E+07 44.1710 1.00000
  3.981E+13 3.981E+13 5.512E+00 1.902E+05 3.375E+06 5.259E+07 5.615E+07 5.615E+07 3.878E+07 44.4013 1.00000
  4.467E+13 4.467E+13 5.538E+00 2.134E+05 3.787E+06 6.038E+07 6.438E+07 6.438E+07 3.886E+07 44.6315 1.00000
  5.012E+13 5.012E+13 5.565E+00 2.395E+05 4.249E+06 6.934E+07 7.383E+07 7.383E+07 3.894E+07 44.8618 1.00000
  5.623E+13 5.623E+13 5.592E+00 2.687E+05 4.767E+06 7.962E+07 8.466E+07 8.466E+07 3.902E+07 45.0920 1.00000
  6.310E+13 6.310E+13 5.619E+00 3.015E+05 5.348E+06 9.144E+07 9.709E+07 9.709E+07 3.909E+07 45.3223 1.00000
  7.079E+13 7.079E+13 5.646E+00 3.383E+05 6.000E+06 1.050E+08 1.114E+08 1.114E+08 3.917E+07 45.5525 1.00000
  7.943E+13 7.943E+13 5.673E+00 3.796E+05 6.732E+06 1.206E+08 1.277E+08 1.277E+08 3.924E+07 45.7828 1.00000
  8.913E+13 8.913E+13 5.700E+00 4.259E+05 7.553E+06 1.385E+08 1.465E+08 1.465E+08 3.931E+07 46.0131 1.00000
