 Incident particle is a Tau with M = 1776.82000 MeV
 Index = 0: Testes
      Absorber with <Z/A> = 0.55100
 Sternheimer coef:  a     k=m_s   x_0    x_1    I[eV]   Cbar  delta0
                 0.0853  3.5428  0.2274  2.7988   75.0  3.4698 0.00

 *** Table generated with PUMAS v1.00 ***

      T         p     Ionization  brems     pair     photonuc  Radloss    dE/dx   CSDA Range  delta   beta
    [MeV]    [MeV/c]  -----------------------[MeV cm^2/g]------------------------  [g/cm^2]
  1.000E+05 1.018E+05 2.424E+00 1.431E-04 2.232E-03 8.375E-03 1.075E-02 2.434E+00 2.054E+04  4.7241 0.99985
  1.122E+05 1.140E+05 2.445E+00 1.653E-04 2.695E-03 9.461E-03 1.232E-02 2.457E+00 2.553E+04  4.9351 0.99988
  1.259E+05 1.277E+05 2.466E+00 1.909E-04 3.242E-03 1.063E-02 1.406E-02 2.480E+00 3.107E+04  5.1484 0.99990
  1.413E+05 1.430E+05 2.487E+00 2.203E-04 3.886E-03 1.195E-02 1.605E-02 2.503E+00 3.724E+04  5.3636 0.99992
  1.585E+05 1.603E+05 2.507E+00 2.542E-04 4.643E-03 1.342E-02 1.832E-02 2.526E+00 4.410E+04  5.5808 0.99994
  1.778E+05 1.796E+05 2.528E+00 2.931E-04 5.532E-03 1.507E-02 2.090E-02 2.549E+00 5.172E+04  5.7997 0.99995
  1.995E+05 2.013E+05 2.549E+00 3.378E-04 6.574E-03 1.695E-02 2.386E-02 2.573E+00 6.019E+04  6.0201 0.99996
  2.239E+05 2.256E+05 2.569E+00 3.891E-04 7.791E-03 1.901E-02 2.719E-02 2.596E+00 6.961E+04  6.2420 0.99997
  2.512E+05 2.530E+05 2.590E+00 4.481E-04 9.212E-03 2.131E-02 3.097E-02 2.621E+00 8.008E+04  6.4651 0.99998
  2.818E+05 2.836E+05 2.610E+00 5.157E-04 1.087E-02 2.391E-02 3.529E-02 2.645E+00 9.172E+04  6.6894 0.99998
  3.162E+05 3.180E+05 2.631E+00 5.934E-04 1.279E-02 2.685E-02 4.023E-02 2.671E+00 1.047E+05  6.9146 0.99998
  3.548E+05 3.566E+05 2.651E+00 6.824E-04 1.502E-02 3.014E-02 4.585E-02 2.697E+00 1.190E+05  7.1408 0.99999
  3.981E+05 3.999E+05 2.671E+00 7.845E-04 1.761E-02 3.383E-02 5.222E-02 2.723E+00 1.350E+05  7.3678 0.99999
  4.467E+05 4.485E+05 2.691E+00 9.015E-04 2.060E-02 3.796E-02 5.946E-02 2.751E+00 1.528E+05  7.5954 0.99999
  5.012E+05 5.030E+05 2.711E+00 1.036E-03 2.406E-02 4.261E-02 6.771E-02 2.779E+00 1.725E+05  7.8236 0.99999
  5.623E+05 5.641E+05 2.731E+00 1.189E-03 2.806E-02 4.765E-02 7.690E-02 2.808E+00 1.944E+05  8.0522 1.00000
  6.310E+05 6.327E+05 2.751E+00 1.365E-03 3.266E-02 5.333E-02 8.736E-02 2.838E+00 2.187E+05  8.2812 1.00000
  7.079E+05 7.097E+05 2.771E+00 1.567E-03 3.796E-02 5.975E-02 9.928E-02 2.870E+00 2.456E+05  8.5106 1.00000
  7.943E+05 7.961E+05 2.791E+00 1.797E-03 4.406E-02 6.700E-02 1.129E-01 2.904E+00 2.756E+05  8.7401 1.00000
  8.913E+05 8.930E+05 2.810E+00 2.061E-03 5.106E-02 7.519E-02 1.283E-01 2.939E+00 3.088E+05  8.9698 1.00000
  1.000E+06 1.002E+06 2.830E+00 2.363E-03 5.909E-02 8.446E-02 1.459E-01 2.976E+00 3.455E+05  9.1996 1.00000
  1.122E+06 1.124E+06 2.849E+00 2.708E-03 6.829E-02 9.495E-02 1.659E-01 3.015E+00 3.863E+05  9.4295 1.00000
  1.259E+06 1.261E+06 2.869E+00 3.103E-03 7.882E-02 1.068E-01 1.888E-01 3.057E+00 4.314E+05  9.6594 1.00000
  1.413E+06 1.414E+06 2.888E+00 3.554E-03 9.086E-02 1.203E-01 2.147E-01 3.103E+00 4.812E+05  9.8893 1.00000
  1.585E+06 1.587E+06 2.907E+00 4.070E-03 1.046E-01 1.356E-01 2.443E-01 3.151E+00 5.364E+05 10.1193 1.00000
  1.778E+06 1.780E+06 2.926E+00 4.659E-03 1.203E-01 1.529E-01 2.779E-01 3.204E+00 5.972E+05 10.3493 1.00000
  1.995E+06 1.997E+06 2.945E+00 5.333E-03 1.382E-01 1.726E-01 3.162E-01 3.261E+00 6.644E+05 10.5794 1.00000
  2.239E+06 2.240E+06 2.963E+00 6.102E-03 1.586E-01 1.950E-01 3.597E-01 3.323E+00 7.383E+05 10.8095 1.00000
  2.512E+06 2.514E+06 2.982E+00 6.980E-03 1.818E-01 2.203E-01 4.091E-01 3.391E+00 8.197E+05 11.0395 1.00000
  2.818E+06 2.820E+06 3.000E+00 7.982E-03 2.082E-01 2.492E-01 4.654E-01 3.466E+00 9.091E+05 11.2696 1.00000
  3.162E+06 3.164E+06 3.019E+00 9.127E-03 2.382E-01 2.820E-01 5.294E-01 3.548E+00 1.007E+06 11.4998 1.00000
  3.548E+06 3.550E+06 3.037E+00 1.043E-02 2.722E-01 3.194E-01 6.020E-01 3.639E+00 1.115E+06 11.7299 1.00000
  3.981E+06 3.983E+06 3.054E+00 1.192E-02 3.108E-01 3.619E-01 6.846E-01 3.739E+00 1.232E+06 11.9601 1.00000
  4.467E+06 4.469E+06 3.072E+00 1.362E-02 3.546E-01 4.102E-01 7.784E-01 3.851E+00 1.360E+06 12.1902 1.00000
  5.012E+06 5.014E+06 3.090E+00 1.556E-02 4.041E-01 4.653E-01 8.850E-01 3.975E+00 1.499E+06 12.4204 1.00000
  5.623E+06 5.625E+06 3.107E+00 1.777E-02 4.603E-01 5.280E-01 1.006E+00 4.113E+00 1.651E+06 12.6506 1.00000
  6.310E+06 6.311E+06 3.124E+00 2.028E-02 5.238E-01 5.994E-01 1.143E+00 4.268E+00 1.814E+06 12.8808 1.00000
  7.079E+06 7.081E+06 3.141E+00 2.315E-02 5.956E-01 6.807E-01 1.299E+00 4.440E+00 1.991E+06 13.1110 1.00000
  7.943E+06 7.945E+06 3.158E+00 2.641E-02 6.767E-01 7.734E-01 1.477E+00 4.634E+00 2.182E+06 13.3412 1.00000
  8.913E+06 8.914E+06 3.174E+00 3.013E-02 7.683E-01 8.791E-01 1.678E+00 4.852E+00 2.386E+06 13.5714 1.00000
  1.000E+07 1.000E+07 3.191E+00 3.436E-02 8.718E-01 9.995E-01 1.906E+00 5.097E+00 2.605E+06 13.8016 1.00000
  1.122E+07 1.122E+07 3.207E+00 3.917E-02 9.885E-01 1.137E+00 2.164E+00 5.372E+00 2.838E+06 14.0318 1.00000
  1.259E+07 1.259E+07 3.223E+00 4.465E-02 1.120E+00 1.293E+00 2.458E+00 5.682E+00 3.086E+06 14.2620 1.00000
  1.413E+07 1.413E+07 3.240E+00 5.088E-02 1.269E+00 1.472E+00 2.791E+00 6.031E+00 3.349E+06 14.4923 1.00000
  1.585E+07 1.585E+07 3.255E+00 5.796E-02 1.436E+00 1.675E+00 3.169E+00 6.425E+00 3.626E+06 14.7225 1.00000
  1.778E+07 1.778E+07 3.271E+00 6.601E-02 1.625E+00 1.907E+00 3.598E+00 6.869E+00 3.917E+06 14.9527 1.00000
  1.995E+07 1.995E+07 3.287E+00 7.516E-02 1.837E+00 2.172E+00 4.084E+00 7.371E+00 4.222E+06 15.1830 1.00000
  2.239E+07 2.239E+07 3.303E+00 8.555E-02 2.076E+00 2.474E+00 4.636E+00 7.938E+00 4.541E+06 15.4132 1.00000
  2.512E+07 2.512E+07 3.318E+00 9.735E-02 2.345E+00 2.819E+00 5.261E+00 8.579E+00 4.872E+06 15.6434 1.00000
  2.818E+07 2.819E+07 3.334E+00 1.107E-01 2.648E+00 3.212E+00 5.971E+00 9.304E+00 5.215E+06 15.8737 1.00000
  3.162E+07 3.162E+07 3.349E+00 1.260E-01 2.988E+00 3.661E+00 6.775E+00 1.012E+01 5.570E+06 16.1039 1.00000
  3.548E+07 3.548E+07 3.365E+00 1.432E-01 3.371E+00 4.173E+00 7.688E+00 1.105E+01 5.935E+06 16.3342 1.00000
  3.981E+07 3.981E+07 3.380E+00 1.628E-01 3.802E+00 4.758E+00 8.723E+00 1.210E+01 6.310E+06 16.5644 1.00000
  4.467E+07 4.467E+07 3.395E+00 1.850E-01 4.286E+00 5.425E+00 9.897E+00 1.329E+01 6.693E+06 16.7947 1.00000
  5.012E+07 5.012E+07 3.411E+00 2.101E-01 4.831E+00 6.187E+00 1.123E+01 1.464E+01 7.084E+06 17.0249 1.00000
  5.623E+07 5.624E+07 3.426E+00 2.386E-01 5.442E+00 7.057E+00 1.274E+01 1.616E+01 7.482E+06 17.2552 1.00000
  6.310E+07 6.310E+07 3.441E+00 2.709E-01 6.130E+00 8.049E+00 1.445E+01 1.789E+01 7.886E+06 17.4854 1.00000
  7.079E+07 7.080E+07 3.456E+00 3.075E-01 6.902E+00 9.183E+00 1.639E+01 1.985E+01 8.295E+06 17.7157 1.00000
  7.943E+07 7.943E+07 3.472E+00 3.489E-01 7.770E+00 1.048E+01 1.860E+01 2.207E+01 8.709E+06 17.9459 1.00000
  8.913E+07 8.913E+07 3.487E+00 3.957E-01 8.744E+00 1.196E+01 2.110E+01 2.458E+01 9.126E+06 18.1762 1.00000
  1.000E+08 1.000E+08 3.502E+00 4.488E-01 9.839E+00 1.364E+01 2.393E+01 2.743E+01 9.545E+06 18.4064 1.00000
  1.122E+08 1.122E+08 3.518E+00 5.087E-01 1.107E+01 1.557E+01 2.715E+01 3.066E+01 9.966E+06 18.6367 1.00000
  1.259E+08 1.259E+08 3.533E+00 5.766E-01 1.245E+01 1.777E+01 3.080E+01 3.433E+01 1.039E+07 18.8669 1.00000
  1.413E+08 1.413E+08 3.549E+00 6.533E-01 1.400E+01 2.029E+01 3.494E+01 3.849E+01 1.081E+07 19.0972 1.00000
  1.585E+08 1.585E+08 3.564E+00 7.400E-01 1.574E+01 2.316E+01 3.964E+01 4.320E+01 1.124E+07 19.3275 1.00000
  1.778E+08 1.778E+08 3.580E+00 8.379E-01 1.769E+01 2.644E+01 4.497E+01 4.855E+01 1.166E+07 19.5577 1.00000
  1.995E+08 1.995E+08 3.596E+00 9.486E-01 1.988E+01 3.019E+01 5.102E+01 5.462E+01 1.208E+07 19.7880 1.00000
  2.239E+08 2.239E+08 3.611E+00 1.074E+00 2.235E+01 3.447E+01 5.789E+01 6.150E+01 1.250E+07 20.0182 1.00000
  2.512E+08 2.512E+08 3.627E+00 1.215E+00 2.511E+01 3.936E+01 6.568E+01 6.931E+01 1.292E+07 20.2485 1.00000
  2.818E+08 2.818E+08 3.643E+00 1.374E+00 2.821E+01 4.495E+01 7.453E+01 7.818E+01 1.334E+07 20.4787 1.00000
  3.162E+08 3.162E+08 3.659E+00 1.554E+00 3.169E+01 5.134E+01 8.458E+01 8.824E+01 1.375E+07 20.7090 1.00000
  3.548E+08 3.548E+08 3.675E+00 1.756E+00 3.560E+01 5.863E+01 9.599E+01 9.966E+01 1.416E+07 20.9393 1.00000
  3.981E+08 3.981E+08 3.691E+00 1.985E+00 3.999E+01 6.697E+01 1.089E+02 1.126E+02 1.457E+07 21.1695 1.00000
  4.467E+08 4.467E+08 3.707E+00 2.243E+00 4.491E+01 7.650E+01 1.236E+02 1.274E+02 1.498E+07 21.3998 1.00000
  5.012E+08 5.012E+08 3.723E+00 2.533E+00 5.043E+01 8.739E+01 1.404E+02 1.441E+02 1.538E+07 21.6300 1.00000
  5.623E+08 5.623E+08 3.739E+00 2.861E+00 5.663E+01 9.984E+01 1.593E+02 1.631E+02 1.578E+07 21.8603 1.00000
  6.310E+08 6.310E+08 3.756E+00 3.230E+00 6.359E+01 1.141E+02 1.809E+02 1.846E+02 1.618E+07 22.0905 1.00000
  7.079E+08 7.079E+08 3.772E+00 3.645E+00 7.139E+01 1.303E+02 2.054E+02 2.091E+02 1.657E+07 22.3208 1.00000
  7.943E+08 7.943E+08 3.789E+00 4.114E+00 8.015E+01 1.489E+02 2.332E+02 2.370E+02 1.696E+07 22.5511 1.00000
  8.913E+08 8.913E+08 3.805E+00 4.641E+00 8.998E+01 1.702E+02 2.648E+02 2.686E+02 1.735E+07 22.7813 1.00000
  1.000E+09 1.000E+09 3.822E+00 5.235E+00 1.010E+02 1.945E+02 3.007E+02 3.045E+02 1.773E+07 23.0116 1.00000
  1.122E+09 1.122E+09 3.839E+00 5.903E+00 1.134E+02 2.222E+02 3.415E+02 3.454E+02 1.810E+07 23.2418 1.00000
  1.259E+09 1.259E+09 3.856E+00 6.655E+00 1.273E+02 2.540E+02 3.879E+02 3.918E+02 1.848E+07 23.4721 1.00000
  1.413E+09 1.413E+09 3.873E+00 7.502E+00 1.429E+02 2.903E+02 4.407E+02 4.445E+02 1.885E+07 23.7023 1.00000
  1.585E+09 1.585E+09 3.890E+00 8.454E+00 1.604E+02 3.318E+02 5.006E+02 5.045E+02 1.921E+07 23.9326 1.00000
  1.778E+09 1.778E+09 3.907E+00 9.525E+00 1.800E+02 3.793E+02 5.688E+02 5.727E+02 1.957E+07 24.1629 1.00000
  1.995E+09 1.995E+09 3.924E+00 1.073E+01 2.020E+02 4.336E+02 6.463E+02 6.502E+02 1.993E+07 24.3931 1.00000
  2.239E+09 2.239E+09 3.942E+00 1.208E+01 2.267E+02 4.957E+02 7.345E+02 7.384E+02 2.028E+07 24.6234 1.00000
  2.512E+09 2.512E+09 3.959E+00 1.361E+01 2.544E+02 5.667E+02 8.347E+02 8.387E+02 2.063E+07 24.8536 1.00000
  2.818E+09 2.818E+09 3.977E+00 1.532E+01 2.855E+02 6.479E+02 9.487E+02 9.527E+02 2.097E+07 25.0839 1.00000
  3.162E+09 3.162E+09 3.994E+00 1.724E+01 3.204E+02 7.408E+02 1.078E+03 1.082E+03 2.131E+07 25.3142 1.00000
  3.548E+09 3.548E+09 4.012E+00 1.941E+01 3.596E+02 8.471E+02 1.226E+03 1.230E+03 2.165E+07 25.5444 1.00000
  3.981E+09 3.981E+09 4.030E+00 2.184E+01 4.035E+02 9.686E+02 1.394E+03 1.398E+03 2.198E+07 25.7747 1.00000
  4.467E+09 4.467E+09 4.048E+00 2.457E+01 4.528E+02 1.108E+03 1.585E+03 1.589E+03 2.230E+07 26.0049 1.00000
  5.012E+09 5.012E+09 4.066E+00 2.764E+01 5.082E+02 1.267E+03 1.803E+03 1.807E+03 2.262E+07 26.2352 1.00000
  5.623E+09 5.623E+09 4.084E+00 3.109E+01 5.702E+02 1.449E+03 2.050E+03 2.054E+03 2.294E+07 26.4654 1.00000
  6.310E+09 6.310E+09 4.102E+00 3.496E+01 6.399E+02 1.657E+03 2.332E+03 2.336E+03 2.326E+07 26.6957 1.00000
  7.079E+09 7.079E+09 4.121E+00 3.931E+01 7.180E+02 1.895E+03 2.653E+03 2.657E+03 2.357E+07 26.9260 1.00000
  7.943E+09 7.943E+09 4.139E+00 4.420E+01 8.057E+02 2.168E+03 3.018E+03 3.022E+03 2.387E+07 27.1562 1.00000
  8.913E+09 8.913E+09 4.157E+00 4.969E+01 9.040E+02 2.480E+03 3.434E+03 3.438E+03 2.417E+07 27.3865 1.00000
  1.000E+10 1.000E+10 4.176E+00 5.585E+01 1.014E+03 2.837E+03 3.907E+03 3.912E+03 2.447E+07 27.6167 1.00000
  1.122E+10 1.122E+10 4.195E+00 6.277E+01 1.138E+03 3.246E+03 4.447E+03 4.451E+03 2.476E+07 27.8470 1.00000
  1.259E+10 1.259E+10 4.214E+00 7.054E+01 1.277E+03 3.714E+03 5.061E+03 5.066E+03 2.505E+07 28.0773 1.00000
  1.413E+10 1.413E+10 4.233E+00 7.926E+01 1.433E+03 4.249E+03 5.761E+03 5.766E+03 2.534E+07 28.3075 1.00000
  1.585E+10 1.585E+10 4.252E+00 8.906E+01 1.608E+03 4.862E+03 6.559E+03 6.563E+03 2.562E+07 28.5378 1.00000
  1.778E+10 1.778E+10 4.271E+00 1.001E+02 1.804E+03 5.563E+03 7.468E+03 7.472E+03 2.589E+07 28.7680 1.00000
  1.995E+10 1.995E+10 4.290E+00 1.124E+02 2.025E+03 6.366E+03 8.503E+03 8.508E+03 2.617E+07 28.9983 1.00000
  2.239E+10 2.239E+10 4.310E+00 1.263E+02 2.272E+03 7.286E+03 9.684E+03 9.688E+03 2.644E+07 29.2286 1.00000
  2.512E+10 2.512E+10 4.329E+00 1.418E+02 2.549E+03 8.338E+03 1.103E+04 1.103E+04 2.670E+07 29.4588 1.00000
  2.818E+10 2.818E+10 4.349E+00 1.593E+02 2.860E+03 9.543E+03 1.256E+04 1.257E+04 2.696E+07 29.6891 1.00000
  3.162E+10 3.162E+10 4.369E+00 1.789E+02 3.209E+03 1.092E+04 1.431E+04 1.432E+04 2.722E+07 29.9193 1.00000
  3.548E+10 3.548E+10 4.388E+00 2.009E+02 3.600E+03 1.250E+04 1.630E+04 1.631E+04 2.747E+07 30.1496 1.00000
  3.981E+10 3.981E+10 4.408E+00 2.256E+02 4.040E+03 1.431E+04 1.858E+04 1.858E+04 2.772E+07 30.3798 1.00000
  4.467E+10 4.467E+10 4.428E+00 2.533E+02 4.533E+03 1.638E+04 2.117E+04 2.117E+04 2.797E+07 30.6101 1.00000
  5.012E+10 5.012E+10 4.449E+00 2.844E+02 5.086E+03 1.876E+04 2.413E+04 2.413E+04 2.821E+07 30.8404 1.00000
  5.623E+10 5.623E+10 4.469E+00 3.192E+02 5.706E+03 2.148E+04 2.750E+04 2.750E+04 2.845E+07 31.0706 1.00000
  6.310E+10 6.310E+10 4.489E+00 3.584E+02 6.402E+03 2.459E+04 3.135E+04 3.135E+04 2.868E+07 31.3009 1.00000
  7.079E+10 7.079E+10 4.510E+00 4.024E+02 7.183E+03 2.815E+04 3.574E+04 3.574E+04 2.891E+07 31.5311 1.00000
  7.943E+10 7.943E+10 4.531E+00 4.517E+02 8.060E+03 3.224E+04 4.075E+04 4.075E+04 2.914E+07 31.7614 1.00000
  8.913E+10 8.913E+10 4.551E+00 5.070E+02 9.043E+03 3.692E+04 4.647E+04 4.647E+04 2.936E+07 31.9917 1.00000
  1.000E+11 1.000E+11 4.572E+00 5.691E+02 1.015E+04 4.228E+04 5.299E+04 5.300E+04 2.958E+07 32.2219 1.00000
  1.122E+11 1.122E+11 4.593E+00 6.388E+02 1.138E+04 4.842E+04 6.044E+04 6.044E+04 2.980E+07 32.4522 1.00000
  1.259E+11 1.259E+11 4.614E+00 7.170E+02 1.277E+04 5.545E+04 6.894E+04 6.895E+04 3.001E+07 32.6824 1.00000
  1.413E+11 1.413E+11 4.635E+00 8.048E+02 1.433E+04 6.351E+04 7.865E+04 7.865E+04 3.022E+07 32.9127 1.00000
  1.585E+11 1.585E+11 4.657E+00 9.033E+02 1.608E+04 7.275E+04 8.973E+04 8.973E+04 3.042E+07 33.1429 1.00000
  1.778E+11 1.778E+11 4.678E+00 1.014E+03 1.804E+04 8.333E+04 1.024E+05 1.024E+05 3.063E+07 33.3732 1.00000
  1.995E+11 1.995E+11 4.700E+00 1.138E+03 2.024E+04 9.546E+04 1.168E+05 1.168E+05 3.082E+07 33.6035 1.00000
  2.239E+11 2.239E+11 4.722E+00 1.277E+03 2.271E+04 1.094E+05 1.333E+05 1.334E+05 3.102E+07 33.8337 1.00000
  2.512E+11 2.512E+11 4.743E+00 1.433E+03 2.548E+04 1.253E+05 1.522E+05 1.522E+05 3.121E+07 34.0640 1.00000
  2.818E+11 2.818E+11 4.765E+00 1.608E+03 2.859E+04 1.435E+05 1.737E+05 1.737E+05 3.140E+07 34.2942 1.00000
  3.162E+11 3.162E+11 4.787E+00 1.805E+03 3.208E+04 1.645E+05 1.984E+05 1.984E+05 3.159E+07 34.5245 1.00000
  3.548E+11 3.548E+11 4.810E+00 2.025E+03 3.599E+04 1.885E+05 2.265E+05 2.265E+05 3.177E+07 34.7548 1.00000
  3.981E+11 3.981E+11 4.832E+00 2.273E+03 4.038E+04 2.160E+05 2.586E+05 2.586E+05 3.195E+07 34.9850 1.00000
  4.467E+11 4.467E+11 4.854E+00 2.550E+03 4.531E+04 2.475E+05 2.953E+05 2.953E+05 3.212E+07 35.2153 1.00000
  5.012E+11 5.012E+11 4.877E+00 2.862E+03 5.083E+04 2.836E+05 3.373E+05 3.373E+05 3.230E+07 35.4455 1.00000
  5.623E+11 5.623E+11 4.900E+00 3.211E+03 5.703E+04 3.250E+05 3.853E+05 3.853E+05 3.247E+07 35.6758 1.00000
  6.310E+11 6.310E+11 4.923E+00 3.604E+03 6.399E+04 3.725E+05 4.401E+05 4.401E+05 3.263E+07 35.9060 1.00000
  7.079E+11 7.079E+11 4.946E+00 4.044E+03 7.180E+04 4.270E+05 5.028E+05 5.028E+05 3.280E+07 36.1363 1.00000
  7.943E+11 7.943E+11 4.969E+00 4.538E+03 8.056E+04 4.894E+05 5.745E+05 5.745E+05 3.296E+07 36.3666 1.00000
  8.913E+11 8.913E+11 4.992E+00 5.092E+03 9.038E+04 5.611E+05 6.565E+05 6.565E+05 3.312E+07 36.5968 1.00000
  1.000E+12 1.000E+12 5.015E+00 5.713E+03 1.014E+05 6.432E+05 7.503E+05 7.503E+05 3.327E+07 36.8271 1.00000
  1.122E+12 1.122E+12 5.039E+00 6.411E+03 1.138E+05 7.374E+05 8.575E+05 8.575E+05 3.343E+07 37.0573 1.00000
  1.259E+12 1.259E+12 5.062E+00 7.194E+03 1.277E+05 8.454E+05 9.802E+05 9.802E+05 3.358E+07 37.2876 1.00000
  1.413E+12 1.413E+12 5.086E+00 8.072E+03 1.432E+05 9.692E+05 1.121E+06 1.121E+06 3.372E+07 37.5179 1.00000
  1.585E+12 1.585E+12 5.110E+00 9.057E+03 1.607E+05 1.111E+06 1.281E+06 1.281E+06 3.387E+07 37.7481 1.00000
  1.778E+12 1.778E+12 5.134E+00 1.016E+04 1.803E+05 1.274E+06 1.465E+06 1.465E+06 3.401E+07 37.9784 1.00000
  1.995E+12 1.995E+12 5.158E+00 1.140E+04 2.023E+05 1.461E+06 1.675E+06 1.675E+06 3.415E+07 38.2086 1.00000
  2.239E+12 2.239E+12 5.182E+00 1.279E+04 2.270E+05 1.676E+06 1.916E+06 1.916E+06 3.428E+07 38.4389 1.00000
  2.512E+12 2.512E+12 5.207E+00 1.436E+04 2.546E+05 1.922E+06 2.191E+06 2.191E+06 3.442E+07 38.6691 1.00000
  2.818E+12 2.818E+12 5.231E+00 1.611E+04 2.857E+05 2.204E+06 2.506E+06 2.506E+06 3.455E+07 38.8994 1.00000
  3.162E+12 3.162E+12 5.256E+00 1.807E+04 3.205E+05 2.528E+06 2.867E+06 2.867E+06 3.468E+07 39.1297 1.00000
  3.548E+12 3.548E+12 5.281E+00 2.028E+04 3.596E+05 2.900E+06 3.280E+06 3.280E+06 3.480E+07 39.3599 1.00000
  3.981E+12 3.981E+12 5.306E+00 2.276E+04 4.035E+05 3.326E+06 3.752E+06 3.752E+06 3.493E+07 39.5902 1.00000
  4.467E+12 4.467E+12 5.331E+00 2.553E+04 4.527E+05 3.816E+06 4.294E+06 4.294E+06 3.505E+07 39.8204 1.00000
  5.012E+12 5.012E+12 5.356E+00 2.865E+04 5.079E+05 4.377E+06 4.914E+06 4.914E+06 3.517E+07 40.0507 1.00000
  5.623E+12 5.623E+12 5.381E+00 3.215E+04 5.699E+05 5.022E+06 5.624E+06 5.624E+06 3.528E+07 40.2810 1.00000
  6.310E+12 6.310E+12 5.407E+00 3.607E+04 6.394E+05 5.761E+06 6.437E+06 6.437E+06 3.540E+07 40.5112 1.00000
  7.079E+12 7.079E+12 5.432E+00 4.047E+04 7.174E+05 6.610E+06 7.368E+06 7.368E+06 3.551E+07 40.7415 1.00000
  7.943E+12 7.943E+12 5.458E+00 4.541E+04 8.049E+05 7.584E+06 8.435E+06 8.435E+06 3.562E+07 40.9717 1.00000
  8.913E+12 8.913E+12 5.484E+00 5.095E+04 9.030E+05 8.703E+06 9.657E+06 9.657E+06 3.573E+07 41.2020 1.00000
  1.000E+13 1.000E+13 5.510E+00 5.717E+04 1.013E+06 9.987E+06 1.106E+07 1.106E+07 3.583E+07 41.4323 1.00000
  1.122E+13 1.122E+13 5.536E+00 6.414E+04 1.137E+06 1.146E+07 1.266E+07 1.266E+07 3.594E+07 41.6625 1.00000
  1.259E+13 1.259E+13 5.563E+00 7.197E+04 1.275E+06 1.315E+07 1.450E+07 1.450E+07 3.604E+07 41.8928 1.00000
  1.413E+13 1.413E+13 5.589E+00 8.075E+04 1.431E+06 1.509E+07 1.661E+07 1.661E+07 3.614E+07 42.1230 1.00000
  1.585E+13 1.585E+13 5.616E+00 9.061E+04 1.605E+06 1.732E+07 1.902E+07 1.902E+07 3.623E+07 42.3533 1.00000
  1.778E+13 1.778E+13 5.643E+00 1.017E+05 1.801E+06 1.989E+07 2.179E+07 2.179E+07 3.633E+07 42.5835 1.00000
  1.995E+13 1.995E+13 5.670E+00 1.141E+05 2.021E+06 2.283E+07 2.496E+07 2.496E+07 3.642E+07 42.8138 1.00000
  2.239E+13 2.239E+13 5.697E+00 1.280E+05 2.267E+06 2.620E+07 2.860E+07 2.860E+07 3.651E+07 43.0441 1.00000
  2.512E+13 2.512E+13 5.724E+00 1.436E+05 2.544E+06 3.008E+07 3.277E+07 3.277E+07 3.660E+07 43.2743 1.00000
  2.818E+13 2.818E+13 5.751E+00 1.611E+05 2.854E+06 3.453E+07 3.755E+07 3.755E+07 3.669E+07 43.5046 1.00000
  3.162E+13 3.162E+13 5.779E+00 1.808E+05 3.202E+06 3.964E+07 4.303E+07 4.303E+07 3.678E+07 43.7348 1.00000
  3.548E+13 3.548E+13 5.806E+00 2.028E+05 3.593E+06 4.552E+07 4.931E+07 4.931E+07 3.686E+07 43.9651 1.00000
  3.981E+13 3.981E+13 5.834E+00 2.276E+05 4.031E+06 5.226E+07 5.652E+07 5.652E+07 3.694E+07 44.1954 1.00000
  4.467E+13 4.467E+13 5.862E+00 2.554E+05 4.523E+06 6.001E+07 6.479E+07 6.479E+07 3.702E+07 44.4256 1.00000
  5.012E+13 5.012E+13 5.890E+00 2.865E+05 5.074E+06 6.891E+07 7.427E+07 7.427E+07 3.710E+07 44.6559 1.00000
  5.623E+13 5.623E+13 5.918E+00 3.215E+05 5.693E+06 7.913E+07 8.514E+07 8.514E+07 3.718E+07 44.8861 1.00000
  6.310E+13 6.310E+13 5.947E+00 3.607E+05 6.387E+06 9.087E+07 9.762E+07 9.762E+07 3.725E+07 45.1164 1.00000
  7.079E+13 7.079E+13 5.975E+00 4.047E+05 7.166E+06 1.044E+08 1.119E+08 1.119E+08 3.733E+07 45.3466 1.00000
  7.943E+13 7.943E+13 6.004E+00 4.541E+05 8.040E+06 1.199E+08 1.284E+08 1.284E+08 3.740E+07 45.5769 1.00000
  8.913E+13 8.913E+13 6.033E+00 5.095E+05 9.021E+06 1.377E+08 1.472E+08 1.472E+08 3.747E+07 45.8072 1.00000
