 Incident particle is a Tau with M = 1776.82000 MeV
 Index = 0: Tetrachloroethylene
      Absorber with <Z/A> = 0.48241
 Sternheimer coef:  a     k=m_s   x_0    x_1    I[eV]   Cbar  delta0
                 0.1859  3.0156  0.1713  2.9083  159.2  4.6619 0.00

 *** Table generated with PUMAS v1.00 ***

      T         p     Ionization  brems     pair     photonuc  Radloss    dE/dx   CSDA Range  delta   beta
    [MeV]    [MeV/c]  -----------------------[MeV cm^2/g]------------------------  [g/cm^2]
  1.000E+05 1.018E+05 2.085E+00 2.752E-04 4.402E-03 8.080E-03 1.276E-02 2.098E+00 2.383E+04  3.7173 0.99985
  1.122E+05 1.140E+05 2.105E+00 3.182E-04 5.289E-03 9.107E-03 1.471E-02 2.120E+00 2.962E+04  3.9088 0.99988
  1.259E+05 1.277E+05 2.125E+00 3.678E-04 6.335E-03 1.021E-02 1.691E-02 2.141E+00 3.605E+04  4.1037 0.99990
  1.413E+05 1.430E+05 2.144E+00 4.249E-04 7.565E-03 1.145E-02 1.944E-02 2.164E+00 4.318E+04  4.3017 0.99992
  1.585E+05 1.603E+05 2.164E+00 4.907E-04 9.008E-03 1.284E-02 2.233E-02 2.186E+00 5.111E+04  4.5028 0.99994
  1.778E+05 1.796E+05 2.183E+00 5.663E-04 1.070E-02 1.438E-02 2.565E-02 2.208E+00 5.991E+04  4.7068 0.99995
  1.995E+05 2.013E+05 2.202E+00 6.532E-04 1.268E-02 1.614E-02 2.947E-02 2.231E+00 6.969E+04  4.9135 0.99996
  2.239E+05 2.256E+05 2.221E+00 7.531E-04 1.499E-02 1.806E-02 3.379E-02 2.255E+00 8.054E+04  5.1228 0.99997
  2.512E+05 2.530E+05 2.240E+00 8.678E-04 1.767E-02 2.020E-02 3.874E-02 2.278E+00 9.259E+04  5.3345 0.99998
  2.818E+05 2.836E+05 2.258E+00 9.995E-04 2.080E-02 2.262E-02 4.441E-02 2.303E+00 1.060E+05  5.5485 0.99998
  3.162E+05 3.180E+05 2.277E+00 1.151E-03 2.443E-02 2.534E-02 5.092E-02 2.328E+00 1.208E+05  5.7646 0.99998
  3.548E+05 3.566E+05 2.295E+00 1.324E-03 2.863E-02 2.839E-02 5.835E-02 2.353E+00 1.373E+05  5.9826 0.99999
  3.981E+05 3.999E+05 2.313E+00 1.523E-03 3.349E-02 3.180E-02 6.681E-02 2.380E+00 1.556E+05  6.2024 0.99999
  4.467E+05 4.485E+05 2.331E+00 1.751E-03 3.911E-02 3.561E-02 7.647E-02 2.408E+00 1.759E+05  6.4239 0.99999
  5.012E+05 5.030E+05 2.349E+00 2.012E-03 4.559E-02 3.989E-02 8.750E-02 2.437E+00 1.984E+05  6.6469 0.99999
  5.623E+05 5.641E+05 2.367E+00 2.311E-03 5.306E-02 4.453E-02 9.990E-02 2.467E+00 2.233E+05  6.8713 1.00000
  6.310E+05 6.327E+05 2.385E+00 2.654E-03 6.166E-02 4.975E-02 1.141E-01 2.499E+00 2.510E+05  7.0968 1.00000
  7.079E+05 7.097E+05 2.402E+00 3.046E-03 7.154E-02 5.563E-02 1.302E-01 2.533E+00 2.816E+05  7.3235 1.00000
  7.943E+05 7.961E+05 2.420E+00 3.494E-03 8.288E-02 6.227E-02 1.486E-01 2.568E+00 3.155E+05  7.5510 1.00000
  8.913E+05 8.930E+05 2.437E+00 4.007E-03 9.588E-02 6.977E-02 1.697E-01 2.607E+00 3.529E+05  7.7793 1.00000
  1.000E+06 1.002E+06 2.454E+00 4.593E-03 1.108E-01 7.824E-02 1.936E-01 2.648E+00 3.943E+05  8.0082 1.00000
  1.122E+06 1.124E+06 2.471E+00 5.264E-03 1.278E-01 8.783E-02 2.209E-01 2.692E+00 4.400E+05  8.2376 1.00000
  1.259E+06 1.261E+06 2.488E+00 6.030E-03 1.473E-01 9.867E-02 2.520E-01 2.740E+00 4.904E+05  8.4673 1.00000
  1.413E+06 1.414E+06 2.505E+00 6.905E-03 1.695E-01 1.110E-01 2.873E-01 2.792E+00 5.459E+05  8.6972 1.00000
  1.585E+06 1.587E+06 2.522E+00 7.904E-03 1.948E-01 1.249E-01 3.276E-01 2.849E+00 6.071E+05  8.9272 1.00000
  1.778E+06 1.780E+06 2.538E+00 9.045E-03 2.237E-01 1.407E-01 3.734E-01 2.912E+00 6.742E+05  9.1572 1.00000
  1.995E+06 1.997E+06 2.555E+00 1.035E-02 2.565E-01 1.586E-01 4.255E-01 2.980E+00 7.479E+05  9.3873 1.00000
  2.239E+06 2.240E+06 2.571E+00 1.183E-02 2.939E-01 1.789E-01 4.846E-01 3.056E+00 8.285E+05  9.6174 1.00000
  2.512E+06 2.514E+06 2.588E+00 1.353E-02 3.363E-01 2.021E-01 5.519E-01 3.139E+00 9.167E+05  9.8474 1.00000
  2.818E+06 2.820E+06 2.604E+00 1.546E-02 3.845E-01 2.283E-01 6.283E-01 3.232E+00 1.013E+06 10.0775 1.00000
  3.162E+06 3.164E+06 2.620E+00 1.767E-02 4.391E-01 2.582E-01 7.150E-01 3.335E+00 1.118E+06 10.3077 1.00000
  3.548E+06 3.550E+06 2.635E+00 2.018E-02 5.011E-01 2.921E-01 8.134E-01 3.449E+00 1.232E+06 10.5378 1.00000
  3.981E+06 3.983E+06 2.651E+00 2.304E-02 5.713E-01 3.307E-01 9.250E-01 3.576E+00 1.355E+06 10.7680 1.00000
  4.467E+06 4.469E+06 2.666E+00 2.630E-02 6.507E-01 3.746E-01 1.052E+00 3.718E+00 1.488E+06 10.9981 1.00000
  5.012E+06 5.014E+06 2.682E+00 3.001E-02 7.406E-01 4.246E-01 1.195E+00 3.877E+00 1.632E+06 11.2283 1.00000
  5.623E+06 5.625E+06 2.697E+00 3.424E-02 8.421E-01 4.816E-01 1.358E+00 4.055E+00 1.786E+06 11.4585 1.00000
  6.310E+06 6.311E+06 2.712E+00 3.905E-02 9.569E-01 5.464E-01 1.542E+00 4.254E+00 1.951E+06 11.6887 1.00000
  7.079E+06 7.081E+06 2.727E+00 4.452E-02 1.087E+00 6.202E-01 1.751E+00 4.478E+00 2.128E+06 11.9189 1.00000
  7.943E+06 7.945E+06 2.742E+00 5.075E-02 1.233E+00 7.044E-01 1.988E+00 4.730E+00 2.315E+06 12.1491 1.00000
  8.913E+06 8.914E+06 2.756E+00 5.783E-02 1.398E+00 8.002E-01 2.256E+00 5.012E+00 2.515E+06 12.3793 1.00000
  1.000E+07 1.000E+07 2.771E+00 6.587E-02 1.584E+00 9.095E-01 2.559E+00 5.330E+00 2.725E+06 12.6095 1.00000
  1.122E+07 1.122E+07 2.785E+00 7.502E-02 1.794E+00 1.034E+00 2.903E+00 5.688E+00 2.947E+06 12.8397 1.00000
  1.259E+07 1.259E+07 2.799E+00 8.541E-02 2.030E+00 1.176E+00 3.292E+00 6.091E+00 3.180E+06 13.0699 1.00000
  1.413E+07 1.413E+07 2.813E+00 9.721E-02 2.297E+00 1.338E+00 3.732E+00 6.545E+00 3.423E+06 13.3002 1.00000
  1.585E+07 1.585E+07 2.827E+00 1.106E-01 2.597E+00 1.522E+00 4.230E+00 7.057E+00 3.677E+06 13.5304 1.00000
  1.778E+07 1.778E+07 2.841E+00 1.258E-01 2.934E+00 1.733E+00 4.793E+00 7.634E+00 3.940E+06 13.7606 1.00000
  1.995E+07 1.995E+07 2.855E+00 1.431E-01 3.314E+00 1.973E+00 5.431E+00 8.285E+00 4.214E+06 13.9909 1.00000
  2.239E+07 2.239E+07 2.868E+00 1.627E-01 3.742E+00 2.247E+00 6.152E+00 9.020E+00 4.495E+06 14.2211 1.00000
  2.512E+07 2.512E+07 2.882E+00 1.849E-01 4.223E+00 2.560E+00 6.968E+00 9.849E+00 4.785E+06 14.4513 1.00000
  2.818E+07 2.819E+07 2.895E+00 2.101E-01 4.764E+00 2.917E+00 7.890E+00 1.079E+01 5.083E+06 14.6816 1.00000
  3.162E+07 3.162E+07 2.909E+00 2.386E-01 5.372E+00 3.324E+00 8.934E+00 1.184E+01 5.388E+06 14.9118 1.00000
  3.548E+07 3.548E+07 2.922E+00 2.709E-01 6.055E+00 3.788E+00 1.011E+01 1.304E+01 5.699E+06 15.1421 1.00000
  3.981E+07 3.981E+07 2.936E+00 3.076E-01 6.823E+00 4.318E+00 1.145E+01 1.439E+01 6.015E+06 15.3723 1.00000
  4.467E+07 4.467E+07 2.949E+00 3.491E-01 7.687E+00 4.923E+00 1.296E+01 1.591E+01 6.337E+06 15.6026 1.00000
  5.012E+07 5.012E+07 2.963E+00 3.960E-01 8.657E+00 5.614E+00 1.467E+01 1.763E+01 6.663E+06 15.8328 1.00000
  5.623E+07 5.624E+07 2.976E+00 4.492E-01 9.747E+00 6.403E+00 1.660E+01 1.957E+01 6.992E+06 16.0631 1.00000
  6.310E+07 6.310E+07 2.990E+00 5.093E-01 1.097E+01 7.303E+00 1.878E+01 2.177E+01 7.325E+06 16.2933 1.00000
  7.079E+07 7.080E+07 3.003E+00 5.774E-01 1.235E+01 8.331E+00 2.125E+01 2.426E+01 7.661E+06 16.5236 1.00000
  7.943E+07 7.943E+07 3.016E+00 6.543E-01 1.389E+01 9.504E+00 2.405E+01 2.707E+01 7.998E+06 16.7538 1.00000
  8.913E+07 8.913E+07 3.030E+00 7.412E-01 1.562E+01 1.084E+01 2.721E+01 3.024E+01 8.338E+06 16.9841 1.00000
  1.000E+08 1.000E+08 3.043E+00 8.395E-01 1.757E+01 1.237E+01 3.079E+01 3.383E+01 8.678E+06 17.2143 1.00000
  1.122E+08 1.122E+08 3.057E+00 9.505E-01 1.976E+01 1.412E+01 3.483E+01 3.789E+01 9.019E+06 17.4446 1.00000
  1.259E+08 1.259E+08 3.070E+00 1.076E+00 2.221E+01 1.612E+01 3.941E+01 4.248E+01 9.361E+06 17.6748 1.00000
  1.413E+08 1.413E+08 3.084E+00 1.218E+00 2.497E+01 1.840E+01 4.459E+01 4.767E+01 9.703E+06 17.9051 1.00000
  1.585E+08 1.585E+08 3.097E+00 1.377E+00 2.806E+01 2.100E+01 5.044E+01 5.354E+01 1.004E+07 18.1354 1.00000
  1.778E+08 1.778E+08 3.111E+00 1.558E+00 3.154E+01 2.398E+01 5.707E+01 6.018E+01 1.039E+07 18.3656 1.00000
  1.995E+08 1.995E+08 3.125E+00 1.761E+00 3.543E+01 2.737E+01 6.457E+01 6.770E+01 1.073E+07 18.5959 1.00000
  2.239E+08 2.239E+08 3.139E+00 1.991E+00 3.981E+01 3.126E+01 7.306E+01 7.620E+01 1.107E+07 18.8261 1.00000
  2.512E+08 2.512E+08 3.152E+00 2.250E+00 4.472E+01 3.569E+01 8.266E+01 8.582E+01 1.140E+07 19.0564 1.00000
  2.818E+08 2.818E+08 3.166E+00 2.542E+00 5.023E+01 4.076E+01 9.354E+01 9.670E+01 1.174E+07 19.2866 1.00000
  3.162E+08 3.162E+08 3.180E+00 2.871E+00 5.642E+01 4.655E+01 1.058E+02 1.090E+02 1.208E+07 19.5169 1.00000
  3.548E+08 3.548E+08 3.194E+00 3.242E+00 6.336E+01 5.317E+01 1.198E+02 1.230E+02 1.241E+07 19.7472 1.00000
  3.981E+08 3.981E+08 3.208E+00 3.660E+00 7.116E+01 6.073E+01 1.355E+02 1.387E+02 1.274E+07 19.9774 1.00000
  4.467E+08 4.467E+08 3.222E+00 4.130E+00 7.990E+01 6.937E+01 1.534E+02 1.566E+02 1.307E+07 20.2077 1.00000
  5.012E+08 5.012E+08 3.236E+00 4.660E+00 8.971E+01 7.924E+01 1.736E+02 1.769E+02 1.340E+07 20.4379 1.00000
  5.623E+08 5.623E+08 3.251E+00 5.257E+00 1.007E+02 9.052E+01 1.965E+02 1.998E+02 1.373E+07 20.6682 1.00000
  6.310E+08 6.310E+08 3.265E+00 5.928E+00 1.131E+02 1.034E+02 2.224E+02 2.257E+02 1.405E+07 20.8984 1.00000
  7.079E+08 7.079E+08 3.279E+00 6.684E+00 1.270E+02 1.182E+02 2.518E+02 2.551E+02 1.437E+07 21.1287 1.00000
  7.943E+08 7.943E+08 3.294E+00 7.535E+00 1.425E+02 1.350E+02 2.851E+02 2.884E+02 1.469E+07 21.3590 1.00000
  8.913E+08 8.913E+08 3.308E+00 8.492E+00 1.600E+02 1.543E+02 3.228E+02 3.261E+02 1.501E+07 21.5892 1.00000
  1.000E+09 1.000E+09 3.323E+00 9.568E+00 1.796E+02 1.763E+02 3.655E+02 3.688E+02 1.532E+07 21.8195 1.00000
  1.122E+09 1.122E+09 3.338E+00 1.078E+01 2.016E+02 2.015E+02 4.138E+02 4.172E+02 1.563E+07 22.0497 1.00000
  1.259E+09 1.259E+09 3.353E+00 1.214E+01 2.262E+02 2.303E+02 4.687E+02 4.720E+02 1.594E+07 22.2800 1.00000
  1.413E+09 1.413E+09 3.367E+00 1.367E+01 2.539E+02 2.632E+02 5.308E+02 5.342E+02 1.625E+07 22.5102 1.00000
  1.585E+09 1.585E+09 3.382E+00 1.539E+01 2.850E+02 3.008E+02 6.012E+02 6.046E+02 1.655E+07 22.7405 1.00000
  1.778E+09 1.778E+09 3.397E+00 1.733E+01 3.198E+02 3.439E+02 6.810E+02 6.844E+02 1.686E+07 22.9708 1.00000
  1.995E+09 1.995E+09 3.413E+00 1.950E+01 3.589E+02 3.931E+02 7.715E+02 7.750E+02 1.715E+07 23.2010 1.00000
  2.239E+09 2.239E+09 3.428E+00 2.194E+01 4.028E+02 4.494E+02 8.742E+02 8.776E+02 1.745E+07 23.4313 1.00000
  2.512E+09 2.512E+09 3.443E+00 2.469E+01 4.521E+02 5.138E+02 9.905E+02 9.940E+02 1.774E+07 23.6615 1.00000
  2.818E+09 2.818E+09 3.458E+00 2.777E+01 5.073E+02 5.874E+02 1.122E+03 1.126E+03 1.803E+07 23.8918 1.00000
  3.162E+09 3.162E+09 3.474E+00 3.124E+01 5.693E+02 6.716E+02 1.272E+03 1.276E+03 1.832E+07 24.1221 1.00000
  3.548E+09 3.548E+09 3.489E+00 3.513E+01 6.388E+02 7.680E+02 1.442E+03 1.445E+03 1.860E+07 24.3523 1.00000
  3.981E+09 3.981E+09 3.505E+00 3.950E+01 7.169E+02 8.782E+02 1.635E+03 1.638E+03 1.889E+07 24.5826 1.00000
  4.467E+09 4.467E+09 3.521E+00 4.441E+01 8.045E+02 1.004E+03 1.853E+03 1.857E+03 1.917E+07 24.8128 1.00000
  5.012E+09 5.012E+09 3.536E+00 4.993E+01 9.027E+02 1.149E+03 2.101E+03 2.105E+03 1.944E+07 25.0431 1.00000
  5.623E+09 5.623E+09 3.552E+00 5.612E+01 1.013E+03 1.314E+03 2.383E+03 2.386E+03 1.972E+07 25.2733 1.00000
  6.310E+09 6.310E+09 3.568E+00 6.308E+01 1.137E+03 1.502E+03 2.702E+03 2.706E+03 1.999E+07 25.5036 1.00000
  7.079E+09 7.079E+09 3.584E+00 7.088E+01 1.275E+03 1.718E+03 3.065E+03 3.068E+03 2.025E+07 25.7339 1.00000
  7.943E+09 7.943E+09 3.600E+00 7.965E+01 1.431E+03 1.966E+03 3.476E+03 3.480E+03 2.052E+07 25.9641 1.00000
  8.913E+09 8.913E+09 3.617E+00 8.949E+01 1.606E+03 2.249E+03 3.944E+03 3.947E+03 2.078E+07 26.1944 1.00000
  1.000E+10 1.000E+10 3.633E+00 1.005E+02 1.802E+03 2.572E+03 4.475E+03 4.478E+03 2.104E+07 26.4246 1.00000
  1.122E+10 1.122E+10 3.649E+00 1.129E+02 2.022E+03 2.943E+03 5.078E+03 5.081E+03 2.130E+07 26.6549 1.00000
  1.259E+10 1.259E+10 3.666E+00 1.269E+02 2.269E+03 3.367E+03 5.762E+03 5.766E+03 2.155E+07 26.8852 1.00000
  1.413E+10 1.413E+10 3.683E+00 1.425E+02 2.545E+03 3.852E+03 6.540E+03 6.544E+03 2.180E+07 27.1154 1.00000
  1.585E+10 1.585E+10 3.699E+00 1.600E+02 2.856E+03 4.408E+03 7.424E+03 7.428E+03 2.205E+07 27.3457 1.00000
  1.778E+10 1.778E+10 3.716E+00 1.797E+02 3.205E+03 5.044E+03 8.428E+03 8.432E+03 2.229E+07 27.5759 1.00000
  1.995E+10 1.995E+10 3.733E+00 2.018E+02 3.596E+03 5.772E+03 9.570E+03 9.573E+03 2.253E+07 27.8062 1.00000
  2.239E+10 2.239E+10 3.750E+00 2.266E+02 4.035E+03 6.606E+03 1.087E+04 1.087E+04 2.277E+07 28.0365 1.00000
  2.512E+10 2.512E+10 3.767E+00 2.545E+02 4.527E+03 7.560E+03 1.234E+04 1.234E+04 2.301E+07 28.2667 1.00000
  2.818E+10 2.818E+10 3.784E+00 2.857E+02 5.079E+03 8.653E+03 1.402E+04 1.402E+04 2.324E+07 28.4970 1.00000
  3.162E+10 3.162E+10 3.802E+00 3.208E+02 5.699E+03 9.904E+03 1.592E+04 1.593E+04 2.347E+07 28.7272 1.00000
  3.548E+10 3.548E+10 3.819E+00 3.601E+02 6.394E+03 1.134E+04 1.809E+04 1.809E+04 2.370E+07 28.9575 1.00000
  3.981E+10 3.981E+10 3.836E+00 4.043E+02 7.175E+03 1.298E+04 2.056E+04 2.056E+04 2.393E+07 29.1877 1.00000
  4.467E+10 4.467E+10 3.854E+00 4.538E+02 8.050E+03 1.486E+04 2.336E+04 2.336E+04 2.415E+07 29.4180 1.00000
  5.012E+10 5.012E+10 3.872E+00 5.094E+02 9.032E+03 1.701E+04 2.655E+04 2.655E+04 2.437E+07 29.6483 1.00000
  5.623E+10 5.623E+10 3.889E+00 5.718E+02 1.013E+04 1.947E+04 3.018E+04 3.018E+04 2.458E+07 29.8785 1.00000
  6.310E+10 6.310E+10 3.907E+00 6.418E+02 1.137E+04 2.229E+04 3.430E+04 3.431E+04 2.480E+07 30.1088 1.00000
  7.079E+10 7.079E+10 3.925E+00 7.204E+02 1.276E+04 2.553E+04 3.900E+04 3.901E+04 2.501E+07 30.3390 1.00000
  7.943E+10 7.943E+10 3.943E+00 8.086E+02 1.431E+04 2.923E+04 4.435E+04 4.435E+04 2.522E+07 30.5693 1.00000
  8.913E+10 8.913E+10 3.961E+00 9.075E+02 1.606E+04 3.347E+04 5.044E+04 5.044E+04 2.542E+07 30.7996 1.00000
  1.000E+11 1.000E+11 3.980E+00 1.019E+03 1.802E+04 3.833E+04 5.737E+04 5.737E+04 2.563E+07 31.0298 1.00000
  1.122E+11 1.122E+11 3.998E+00 1.143E+03 2.022E+04 4.390E+04 6.526E+04 6.526E+04 2.583E+07 31.2601 1.00000
  1.259E+11 1.259E+11 4.017E+00 1.283E+03 2.268E+04 5.027E+04 7.424E+04 7.425E+04 2.602E+07 31.4903 1.00000
  1.413E+11 1.413E+11 4.035E+00 1.440E+03 2.545E+04 5.758E+04 8.447E+04 8.448E+04 2.622E+07 31.7206 1.00000
  1.585E+11 1.585E+11 4.054E+00 1.616E+03 2.856E+04 6.596E+04 9.613E+04 9.613E+04 2.641E+07 31.9508 1.00000
  1.778E+11 1.778E+11 4.073E+00 1.813E+03 3.204E+04 7.555E+04 1.094E+05 1.094E+05 2.660E+07 32.1811 1.00000
  1.995E+11 1.995E+11 4.092E+00 2.035E+03 3.595E+04 8.655E+04 1.245E+05 1.245E+05 2.678E+07 32.4114 1.00000
  2.239E+11 2.239E+11 4.111E+00 2.283E+03 4.033E+04 9.915E+04 1.418E+05 1.418E+05 2.697E+07 32.6416 1.00000
  2.512E+11 2.512E+11 4.130E+00 2.562E+03 4.526E+04 1.136E+05 1.614E+05 1.614E+05 2.715E+07 32.8719 1.00000
  2.818E+11 2.818E+11 4.149E+00 2.875E+03 5.078E+04 1.301E+05 1.838E+05 1.838E+05 2.733E+07 33.1021 1.00000
  3.162E+11 3.162E+11 4.168E+00 3.227E+03 5.697E+04 1.491E+05 2.093E+05 2.093E+05 2.750E+07 33.3324 1.00000
  3.548E+11 3.548E+11 4.188E+00 3.621E+03 6.392E+04 1.709E+05 2.384E+05 2.384E+05 2.768E+07 33.5627 1.00000
  3.981E+11 3.981E+11 4.207E+00 4.063E+03 7.172E+04 1.958E+05 2.716E+05 2.716E+05 2.785E+07 33.7929 1.00000
  4.467E+11 4.467E+11 4.227E+00 4.559E+03 8.046E+04 2.244E+05 3.094E+05 3.094E+05 2.801E+07 34.0232 1.00000
  5.012E+11 5.012E+11 4.247E+00 5.115E+03 9.028E+04 2.571E+05 3.525E+05 3.525E+05 2.818E+07 34.2534 1.00000
  5.623E+11 5.623E+11 4.267E+00 5.740E+03 1.013E+05 2.947E+05 4.017E+05 4.017E+05 2.834E+07 34.4837 1.00000
  6.310E+11 6.310E+11 4.287E+00 6.441E+03 1.136E+05 3.378E+05 4.578E+05 4.578E+05 2.850E+07 34.7139 1.00000
  7.079E+11 7.079E+11 4.307E+00 7.227E+03 1.275E+05 3.871E+05 5.219E+05 5.219E+05 2.866E+07 34.9442 1.00000
  7.943E+11 7.943E+11 4.327E+00 8.109E+03 1.431E+05 4.438E+05 5.949E+05 5.949E+05 2.882E+07 35.1745 1.00000
  8.913E+11 8.913E+11 4.347E+00 9.099E+03 1.605E+05 5.087E+05 6.783E+05 6.783E+05 2.897E+07 35.4047 1.00000
  1.000E+12 1.000E+12 4.368E+00 1.021E+04 1.801E+05 5.831E+05 7.734E+05 7.734E+05 2.912E+07 35.6350 1.00000
  1.122E+12 1.122E+12 4.388E+00 1.146E+04 2.021E+05 6.685E+05 8.820E+05 8.820E+05 2.927E+07 35.8652 1.00000
  1.259E+12 1.259E+12 4.409E+00 1.285E+04 2.267E+05 7.664E+05 1.006E+06 1.006E+06 2.941E+07 36.0955 1.00000
  1.413E+12 1.413E+12 4.430E+00 1.442E+04 2.544E+05 8.788E+05 1.148E+06 1.148E+06 2.956E+07 36.3258 1.00000
  1.585E+12 1.585E+12 4.451E+00 1.618E+04 2.854E+05 1.008E+06 1.309E+06 1.309E+06 2.970E+07 36.5560 1.00000
  1.778E+12 1.778E+12 4.472E+00 1.816E+04 3.202E+05 1.155E+06 1.494E+06 1.494E+06 2.984E+07 36.7863 1.00000
  1.995E+12 1.995E+12 4.493E+00 2.038E+04 3.593E+05 1.325E+06 1.705E+06 1.705E+06 2.997E+07 37.0165 1.00000
  2.239E+12 2.239E+12 4.514E+00 2.286E+04 4.031E+05 1.519E+06 1.945E+06 1.945E+06 3.011E+07 37.2468 1.00000
  2.512E+12 2.512E+12 4.535E+00 2.565E+04 4.522E+05 1.742E+06 2.220E+06 2.220E+06 3.024E+07 37.4770 1.00000
  2.818E+12 2.818E+12 4.557E+00 2.878E+04 5.074E+05 1.998E+06 2.535E+06 2.535E+06 3.037E+07 37.7073 1.00000
  3.162E+12 3.162E+12 4.578E+00 3.230E+04 5.693E+05 2.292E+06 2.894E+06 2.894E+06 3.049E+07 37.9376 1.00000
  3.548E+12 3.548E+12 4.600E+00 3.624E+04 6.387E+05 2.629E+06 3.304E+06 3.304E+06 3.062E+07 38.1678 1.00000
  3.981E+12 3.981E+12 4.622E+00 4.066E+04 7.166E+05 3.016E+06 3.773E+06 3.773E+06 3.074E+07 38.3981 1.00000
  4.467E+12 4.467E+12 4.644E+00 4.562E+04 8.040E+05 3.459E+06 4.309E+06 4.309E+06 3.086E+07 38.6283 1.00000
  5.012E+12 5.012E+12 4.666E+00 5.119E+04 9.021E+05 3.968E+06 4.922E+06 4.922E+06 3.098E+07 38.8586 1.00000
  5.623E+12 5.623E+12 4.688E+00 5.743E+04 1.012E+06 4.553E+06 5.622E+06 5.622E+06 3.110E+07 39.0889 1.00000
  6.310E+12 6.310E+12 4.711E+00 6.444E+04 1.136E+06 5.223E+06 6.423E+06 6.423E+06 3.121E+07 39.3191 1.00000
  7.079E+12 7.079E+12 4.733E+00 7.230E+04 1.274E+06 5.993E+06 7.339E+06 7.339E+06 3.132E+07 39.5494 1.00000
  7.943E+12 7.943E+12 4.756E+00 8.113E+04 1.429E+06 6.876E+06 8.387E+06 8.387E+06 3.143E+07 39.7796 1.00000
  8.913E+12 8.913E+12 4.778E+00 9.103E+04 1.604E+06 7.890E+06 9.585E+06 9.585E+06 3.154E+07 40.0099 1.00000
  1.000E+13 1.000E+13 4.801E+00 1.021E+05 1.799E+06 9.054E+06 1.096E+07 1.096E+07 3.165E+07 40.2402 1.00000
  1.122E+13 1.122E+13 4.824E+00 1.146E+05 2.019E+06 1.039E+07 1.252E+07 1.252E+07 3.175E+07 40.4704 1.00000
  1.259E+13 1.259E+13 4.847E+00 1.286E+05 2.265E+06 1.192E+07 1.432E+07 1.432E+07 3.186E+07 40.7007 1.00000
  1.413E+13 1.413E+13 4.870E+00 1.443E+05 2.541E+06 1.369E+07 1.637E+07 1.637E+07 3.196E+07 40.9309 1.00000
  1.585E+13 1.585E+13 4.894E+00 1.619E+05 2.851E+06 1.571E+07 1.872E+07 1.872E+07 3.206E+07 41.1612 1.00000
  1.778E+13 1.778E+13 4.917E+00 1.816E+05 3.199E+06 1.803E+07 2.141E+07 2.141E+07 3.215E+07 41.3914 1.00000
  1.995E+13 1.995E+13 4.941E+00 2.038E+05 3.589E+06 2.069E+07 2.449E+07 2.449E+07 3.225E+07 41.6217 1.00000
  2.239E+13 2.239E+13 4.964E+00 2.287E+05 4.027E+06 2.376E+07 2.801E+07 2.801E+07 3.234E+07 41.8520 1.00000
  2.512E+13 2.512E+13 4.988E+00 2.566E+05 4.518E+06 2.727E+07 3.205E+07 3.205E+07 3.243E+07 42.0822 1.00000
  2.818E+13 2.818E+13 5.012E+00 2.879E+05 5.069E+06 3.131E+07 3.666E+07 3.666E+07 3.252E+07 42.3125 1.00000
  3.162E+13 3.162E+13 5.036E+00 3.230E+05 5.687E+06 3.594E+07 4.195E+07 4.195E+07 3.261E+07 42.5427 1.00000
  3.548E+13 3.548E+13 5.060E+00 3.624E+05 6.381E+06 4.127E+07 4.801E+07 4.801E+07 3.270E+07 42.7730 1.00000
  3.981E+13 3.981E+13 5.085E+00 4.066E+05 7.159E+06 4.738E+07 5.495E+07 5.495E+07 3.278E+07 43.0033 1.00000
  4.467E+13 4.467E+13 5.109E+00 4.562E+05 8.032E+06 5.441E+07 6.289E+07 6.289E+07 3.286E+07 43.2335 1.00000
  5.012E+13 5.012E+13 5.134E+00 5.119E+05 9.012E+06 6.247E+07 7.200E+07 7.200E+07 3.294E+07 43.4638 1.00000
  5.623E+13 5.623E+13 5.158E+00 5.744E+05 1.011E+07 7.174E+07 8.243E+07 8.243E+07 3.302E+07 43.6940 1.00000
  6.310E+13 6.310E+13 5.183E+00 6.444E+05 1.134E+07 8.239E+07 9.437E+07 9.437E+07 3.310E+07 43.9243 1.00000
  7.079E+13 7.079E+13 5.208E+00 7.231E+05 1.273E+07 9.462E+07 1.081E+08 1.081E+08 3.318E+07 44.1545 1.00000
  7.943E+13 7.943E+13 5.233E+00 8.113E+05 1.428E+07 1.087E+08 1.238E+08 1.238E+08 3.325E+07 44.3848 1.00000
  8.913E+13 8.913E+13 5.259E+00 9.103E+05 1.602E+07 1.248E+08 1.417E+08 1.417E+08 3.333E+07 44.6151 1.00000
