 Incident particle is a Tau with M = 1776.82000 MeV
 Index = 0: Thallium
      Absorber with <Z/A> = 0.39632
 Sternheimer coef:  a     k=m_s   x_0    x_1    I[eV]   Cbar  delta0
                 0.0945  3.1450  0.3491  3.8044  810.0  6.1365 0.14

 *** Table generated with PUMAS v1.00 ***

      T         p     Ionization  brems     pair     photonuc  Radloss    dE/dx   CSDA Range  delta   beta
    [MeV]    [MeV/c]  -----------------------[MeV cm^2/g]------------------------  [g/cm^2]
  1.000E+05 1.018E+05 1.567E+00 1.033E-03 1.840E-02 7.551E-03 2.698E-02 1.594E+00 3.136E+04  2.8576 0.99985
  1.122E+05 1.140E+05 1.585E+00 1.198E-03 2.203E-02 8.474E-03 3.170E-02 1.617E+00 3.896E+04  3.0180 0.99988
  1.259E+05 1.277E+05 1.603E+00 1.389E-03 2.629E-02 9.460E-03 3.714E-02 1.641E+00 4.737E+04  3.1820 0.99990
  1.413E+05 1.430E+05 1.621E+00 1.609E-03 3.130E-02 1.056E-02 4.347E-02 1.665E+00 5.666E+04  3.3496 0.99992
  1.585E+05 1.603E+05 1.639E+00 1.863E-03 3.716E-02 1.179E-02 5.081E-02 1.690E+00 6.694E+04  3.5207 0.99994
  1.778E+05 1.796E+05 1.657E+00 2.155E-03 4.401E-02 1.315E-02 5.932E-02 1.716E+00 7.830E+04  3.6952 0.99995
  1.995E+05 2.013E+05 1.674E+00 2.492E-03 5.200E-02 1.470E-02 6.919E-02 1.743E+00 9.084E+04  3.8729 0.99996
  2.239E+05 2.256E+05 1.692E+00 2.880E-03 6.130E-02 1.638E-02 8.056E-02 1.772E+00 1.047E+05  4.0537 0.99997
  2.512E+05 2.530E+05 1.709E+00 3.327E-03 7.211E-02 1.825E-02 9.368E-02 1.802E+00 1.200E+05  4.2376 0.99998
  2.818E+05 2.836E+05 1.726E+00 3.840E-03 8.464E-02 2.034E-02 1.088E-01 1.834E+00 1.368E+05  4.4245 0.99998
  3.162E+05 3.180E+05 1.742E+00 4.430E-03 9.915E-02 2.270E-02 1.263E-01 1.869E+00 1.554E+05  4.6142 0.99998
  3.548E+05 3.566E+05 1.759E+00 5.108E-03 1.159E-01 2.533E-02 1.464E-01 1.905E+00 1.759E+05  4.8066 0.99999
  3.981E+05 3.999E+05 1.776E+00 5.887E-03 1.353E-01 2.825E-02 1.694E-01 1.945E+00 1.983E+05  5.0016 0.99999
  4.467E+05 4.485E+05 1.792E+00 6.780E-03 1.576E-01 3.151E-02 1.958E-01 1.988E+00 2.231E+05  5.1992 0.99999
  5.012E+05 5.030E+05 1.808E+00 7.805E-03 1.832E-01 3.517E-02 2.262E-01 2.034E+00 2.502E+05  5.3991 0.99999
  5.623E+05 5.641E+05 1.824E+00 8.980E-03 2.127E-01 3.911E-02 2.607E-01 2.085E+00 2.799E+05  5.6014 1.00000
  6.310E+05 6.327E+05 1.840E+00 1.033E-02 2.465E-01 4.353E-02 3.003E-01 2.140E+00 3.123E+05  5.8059 1.00000
  7.079E+05 7.097E+05 1.855E+00 1.187E-02 2.852E-01 4.850E-02 3.456E-01 2.201E+00 3.478E+05  6.0126 1.00000
  7.943E+05 7.961E+05 1.871E+00 1.364E-02 3.295E-01 5.410E-02 3.972E-01 2.268E+00 3.865E+05  6.2212 1.00000
  8.913E+05 8.930E+05 1.886E+00 1.566E-02 3.802E-01 6.041E-02 4.562E-01 2.342E+00 4.285E+05  6.4318 1.00000
  1.000E+06 1.002E+06 1.901E+00 1.797E-02 4.380E-01 6.753E-02 5.235E-01 2.425E+00 4.742E+05  6.6442 1.00000
  1.122E+06 1.124E+06 1.916E+00 2.061E-02 5.040E-01 7.556E-02 6.002E-01 2.516E+00 5.236E+05  6.8583 1.00000
  1.259E+06 1.261E+06 1.931E+00 2.364E-02 5.792E-01 8.465E-02 6.875E-01 2.618E+00 5.769E+05  7.0740 1.00000
  1.413E+06 1.414E+06 1.946E+00 2.709E-02 6.647E-01 9.492E-02 7.867E-01 2.732E+00 6.344E+05  7.2913 1.00000
  1.585E+06 1.587E+06 1.960E+00 3.104E-02 7.620E-01 1.065E-01 8.996E-01 2.860E+00 6.960E+05  7.5101 1.00000
  1.778E+06 1.780E+06 1.974E+00 3.555E-02 8.725E-01 1.197E-01 1.028E+00 3.002E+00 7.621E+05  7.7302 1.00000
  1.995E+06 1.997E+06 1.988E+00 4.069E-02 9.979E-01 1.346E-01 1.173E+00 3.162E+00 8.325E+05  7.9515 1.00000
  2.239E+06 2.240E+06 2.002E+00 4.656E-02 1.140E+00 1.516E-01 1.338E+00 3.341E+00 9.075E+05  8.1740 1.00000
  2.512E+06 2.514E+06 2.016E+00 5.325E-02 1.301E+00 1.708E-01 1.525E+00 3.541E+00 9.869E+05  8.3977 1.00000
  2.818E+06 2.820E+06 2.030E+00 6.088E-02 1.484E+00 1.926E-01 1.737E+00 3.767E+00 1.071E+06  8.6223 1.00000
  3.162E+06 3.164E+06 2.043E+00 6.958E-02 1.691E+00 2.174E-01 1.978E+00 4.020E+00 1.159E+06  8.8478 1.00000
  3.548E+06 3.550E+06 2.056E+00 7.949E-02 1.924E+00 2.455E-01 2.249E+00 4.305E+00 1.252E+06  9.0741 1.00000
  3.981E+06 3.983E+06 2.069E+00 9.078E-02 2.188E+00 2.776E-01 2.557E+00 4.626E+00 1.349E+06  9.3012 1.00000
  4.467E+06 4.469E+06 2.082E+00 1.036E-01 2.487E+00 3.140E-01 2.904E+00 4.986E+00 1.450E+06  9.5290 1.00000
  5.012E+06 5.014E+06 2.095E+00 1.183E-01 2.823E+00 3.554E-01 3.297E+00 5.392E+00 1.556E+06  9.7573 1.00000
  5.623E+06 5.625E+06 2.107E+00 1.349E-01 3.203E+00 4.026E-01 3.741E+00 5.848E+00 1.665E+06  9.9861 1.00000
  6.310E+06 6.311E+06 2.120E+00 1.538E-01 3.632E+00 4.562E-01 4.242E+00 6.362E+00 1.777E+06 10.2153 1.00000
  7.079E+06 7.081E+06 2.132E+00 1.753E-01 4.115E+00 5.173E-01 4.808E+00 6.940E+00 1.893E+06 10.4449 1.00000
  7.943E+06 7.945E+06 2.144E+00 1.998E-01 4.660E+00 5.869E-01 5.446E+00 7.590E+00 2.012E+06 10.6747 1.00000
  8.913E+06 8.914E+06 2.156E+00 2.276E-01 5.273E+00 6.662E-01 6.167E+00 8.323E+00 2.134E+06 10.9047 1.00000
  1.000E+07 1.000E+07 2.168E+00 2.592E-01 5.964E+00 7.566E-01 6.980E+00 9.148E+00 2.259E+06 11.1349 1.00000
  1.122E+07 1.122E+07 2.180E+00 2.950E-01 6.742E+00 8.596E-01 7.896E+00 1.008E+01 2.386E+06 11.3651 1.00000
  1.259E+07 1.259E+07 2.191E+00 3.357E-01 7.617E+00 9.769E-01 8.930E+00 1.112E+01 2.516E+06 11.5953 1.00000
  1.413E+07 1.413E+07 2.203E+00 3.819E-01 8.602E+00 1.111E+00 1.009E+01 1.230E+01 2.647E+06 11.8256 1.00000
  1.585E+07 1.585E+07 2.214E+00 4.343E-01 9.710E+00 1.263E+00 1.141E+01 1.362E+01 2.781E+06 12.0558 1.00000
  1.778E+07 1.778E+07 2.226E+00 4.937E-01 1.096E+01 1.437E+00 1.289E+01 1.511E+01 2.916E+06 12.2860 1.00000
  1.995E+07 1.995E+07 2.237E+00 5.610E-01 1.236E+01 1.636E+00 1.455E+01 1.679E+01 3.052E+06 12.5163 1.00000
  2.239E+07 2.239E+07 2.248E+00 6.373E-01 1.393E+01 1.862E+00 1.643E+01 1.868E+01 3.190E+06 12.7465 1.00000
  2.512E+07 2.512E+07 2.259E+00 7.237E-01 1.570E+01 2.120E+00 1.855E+01 2.081E+01 3.329E+06 12.9767 1.00000
  2.818E+07 2.819E+07 2.270E+00 8.216E-01 1.769E+01 2.415E+00 2.093E+01 2.320E+01 3.468E+06 13.2070 1.00000
  3.162E+07 3.162E+07 2.282E+00 9.325E-01 1.993E+01 2.751E+00 2.361E+01 2.589E+01 3.609E+06 13.4372 1.00000
  3.548E+07 3.548E+07 2.293E+00 1.058E+00 2.244E+01 3.135E+00 2.663E+01 2.892E+01 3.750E+06 13.6675 1.00000
  3.981E+07 3.981E+07 2.304E+00 1.200E+00 2.526E+01 3.573E+00 3.003E+01 3.234E+01 3.892E+06 13.8977 1.00000
  4.467E+07 4.467E+07 2.315E+00 1.360E+00 2.843E+01 4.073E+00 3.386E+01 3.618E+01 4.034E+06 14.1280 1.00000
  5.012E+07 5.012E+07 2.326E+00 1.542E+00 3.199E+01 4.643E+00 3.817E+01 4.050E+01 4.177E+06 14.3582 1.00000
  5.623E+07 5.624E+07 2.337E+00 1.747E+00 3.598E+01 5.294E+00 4.302E+01 4.536E+01 4.320E+06 14.5885 1.00000
  6.310E+07 6.310E+07 2.348E+00 1.979E+00 4.047E+01 6.038E+00 4.849E+01 5.084E+01 4.463E+06 14.8187 1.00000
  7.079E+07 7.080E+07 2.359E+00 2.241E+00 4.551E+01 6.887E+00 5.464E+01 5.700E+01 4.606E+06 15.0490 1.00000
  7.943E+07 7.943E+07 2.370E+00 2.536E+00 5.117E+01 7.856E+00 6.156E+01 6.393E+01 4.749E+06 15.2792 1.00000
  8.913E+07 8.913E+07 2.381E+00 2.870E+00 5.752E+01 8.962E+00 6.935E+01 7.173E+01 4.893E+06 15.5095 1.00000
  1.000E+08 1.000E+08 2.392E+00 3.247E+00 6.465E+01 1.023E+01 7.812E+01 8.052E+01 5.036E+06 15.7397 1.00000
  1.122E+08 1.122E+08 2.403E+00 3.672E+00 7.266E+01 1.167E+01 8.800E+01 9.040E+01 5.179E+06 15.9700 1.00000
  1.259E+08 1.259E+08 2.414E+00 4.152E+00 8.164E+01 1.332E+01 9.911E+01 1.015E+02 5.322E+06 16.2002 1.00000
  1.413E+08 1.413E+08 2.425E+00 4.692E+00 9.173E+01 1.520E+01 1.116E+02 1.140E+02 5.465E+06 16.4305 1.00000
  1.585E+08 1.585E+08 2.436E+00 5.302E+00 1.030E+02 1.735E+01 1.257E+02 1.281E+02 5.608E+06 16.6608 1.00000
  1.778E+08 1.778E+08 2.448E+00 5.989E+00 1.158E+02 1.981E+01 1.416E+02 1.440E+02 5.751E+06 16.8910 1.00000
  1.995E+08 1.995E+08 2.459E+00 6.764E+00 1.300E+02 2.261E+01 1.594E+02 1.618E+02 5.893E+06 17.1213 1.00000
  2.239E+08 2.239E+08 2.470E+00 7.636E+00 1.460E+02 2.582E+01 1.795E+02 1.819E+02 6.035E+06 17.3515 1.00000
  2.512E+08 2.512E+08 2.481E+00 8.618E+00 1.640E+02 2.948E+01 2.021E+02 2.046E+02 6.177E+06 17.5818 1.00000
  2.818E+08 2.818E+08 2.493E+00 9.725E+00 1.841E+02 3.366E+01 2.275E+02 2.300E+02 6.319E+06 17.8120 1.00000
  3.162E+08 3.162E+08 2.504E+00 1.097E+01 2.068E+02 3.844E+01 2.562E+02 2.587E+02 6.460E+06 18.0423 1.00000
  3.548E+08 3.548E+08 2.516E+00 1.237E+01 2.321E+02 4.391E+01 2.884E+02 2.909E+02 6.601E+06 18.2726 1.00000
  3.981E+08 3.981E+08 2.527E+00 1.395E+01 2.606E+02 5.015E+01 3.247E+02 3.273E+02 6.741E+06 18.5028 1.00000
  4.467E+08 4.467E+08 2.539E+00 1.572E+01 2.926E+02 5.728E+01 3.656E+02 3.681E+02 6.882E+06 18.7331 1.00000
  5.012E+08 5.012E+08 2.551E+00 1.772E+01 3.285E+02 6.543E+01 4.116E+02 4.142E+02 7.021E+06 18.9633 1.00000
  5.623E+08 5.623E+08 2.562E+00 1.997E+01 3.687E+02 7.475E+01 4.634E+02 4.660E+02 7.161E+06 19.1936 1.00000
  6.310E+08 6.310E+08 2.574E+00 2.249E+01 4.139E+02 8.540E+01 5.218E+02 5.244E+02 7.300E+06 19.4238 1.00000
  7.079E+08 7.079E+08 2.586E+00 2.533E+01 4.646E+02 9.758E+01 5.875E+02 5.901E+02 7.439E+06 19.6541 1.00000
  7.943E+08 7.943E+08 2.598E+00 2.852E+01 5.214E+02 1.115E+02 6.615E+02 6.641E+02 7.577E+06 19.8844 1.00000
  8.913E+08 8.913E+08 2.610E+00 3.211E+01 5.853E+02 1.274E+02 7.448E+02 7.474E+02 7.715E+06 20.1146 1.00000
  1.000E+09 1.000E+09 2.622E+00 3.614E+01 6.569E+02 1.456E+02 8.386E+02 8.412E+02 7.852E+06 20.3449 1.00000
  1.122E+09 1.122E+09 2.634E+00 4.068E+01 7.372E+02 1.664E+02 9.443E+02 9.469E+02 7.989E+06 20.5751 1.00000
  1.259E+09 1.259E+09 2.646E+00 4.577E+01 8.274E+02 1.901E+02 1.063E+03 1.066E+03 8.125E+06 20.8054 1.00000
  1.413E+09 1.413E+09 2.658E+00 5.149E+01 9.285E+02 2.173E+02 1.197E+03 1.200E+03 8.261E+06 21.0356 1.00000
  1.585E+09 1.585E+09 2.671E+00 5.791E+01 1.042E+03 2.484E+02 1.348E+03 1.351E+03 8.397E+06 21.2659 1.00000
  1.778E+09 1.778E+09 2.683E+00 6.513E+01 1.169E+03 2.839E+02 1.518E+03 1.521E+03 8.532E+06 21.4962 1.00000
  1.995E+09 1.995E+09 2.695E+00 7.324E+01 1.312E+03 3.246E+02 1.710E+03 1.713E+03 8.667E+06 21.7264 1.00000
  2.239E+09 2.239E+09 2.708E+00 8.234E+01 1.473E+03 3.711E+02 1.926E+03 1.929E+03 8.801E+06 21.9567 1.00000
  2.512E+09 2.512E+09 2.720E+00 9.256E+01 1.653E+03 4.242E+02 2.169E+03 2.172E+03 8.935E+06 22.1869 1.00000
  2.818E+09 2.818E+09 2.733E+00 1.040E+02 1.854E+03 4.850E+02 2.443E+03 2.446E+03 9.068E+06 22.4172 1.00000
  3.162E+09 3.162E+09 2.746E+00 1.169E+02 2.081E+03 5.545E+02 2.752E+03 2.755E+03 9.201E+06 22.6475 1.00000
  3.548E+09 3.548E+09 2.758E+00 1.314E+02 2.335E+03 6.341E+02 3.101E+03 3.103E+03 9.333E+06 22.8777 1.00000
  3.981E+09 3.981E+09 2.771E+00 1.477E+02 2.620E+03 7.251E+02 3.493E+03 3.496E+03 9.465E+06 23.1080 1.00000
  4.467E+09 4.467E+09 2.784E+00 1.659E+02 2.940E+03 8.292E+02 3.935E+03 3.938E+03 9.596E+06 23.3382 1.00000
  5.012E+09 5.012E+09 2.797E+00 1.864E+02 3.299E+03 9.483E+02 4.434E+03 4.437E+03 9.726E+06 23.5685 1.00000
  5.623E+09 5.623E+09 2.810E+00 2.094E+02 3.702E+03 1.085E+03 4.996E+03 4.999E+03 9.856E+06 23.7987 1.00000
  6.310E+09 6.310E+09 2.823E+00 2.352E+02 4.154E+03 1.240E+03 5.629E+03 5.632E+03 9.986E+06 24.0290 1.00000
  7.079E+09 7.079E+09 2.836E+00 2.641E+02 4.661E+03 1.419E+03 6.344E+03 6.347E+03 1.011E+07 24.2593 1.00000
  7.943E+09 7.943E+09 2.850E+00 2.966E+02 5.230E+03 1.623E+03 7.149E+03 7.152E+03 1.024E+07 24.4895 1.00000
  8.913E+09 8.913E+09 2.863E+00 3.331E+02 5.868E+03 1.857E+03 8.058E+03 8.060E+03 1.037E+07 24.7198 1.00000
  1.000E+10 1.000E+10 2.876E+00 3.740E+02 6.584E+03 2.124E+03 9.082E+03 9.085E+03 1.050E+07 24.9500 1.00000
  1.122E+10 1.122E+10 2.890E+00 4.200E+02 7.388E+03 2.430E+03 1.024E+04 1.024E+04 1.063E+07 25.1803 1.00000
  1.259E+10 1.259E+10 2.903E+00 4.716E+02 8.289E+03 2.780E+03 1.154E+04 1.154E+04 1.075E+07 25.4106 1.00000
  1.413E+10 1.413E+10 2.917E+00 5.294E+02 9.301E+03 3.181E+03 1.301E+04 1.301E+04 1.088E+07 25.6408 1.00000
  1.585E+10 1.585E+10 2.931E+00 5.944E+02 1.044E+04 3.639E+03 1.467E+04 1.467E+04 1.100E+07 25.8711 1.00000
  1.778E+10 1.778E+10 2.945E+00 6.673E+02 1.171E+04 4.165E+03 1.654E+04 1.654E+04 1.113E+07 26.1013 1.00000
  1.995E+10 1.995E+10 2.959E+00 7.491E+02 1.314E+04 4.766E+03 1.865E+04 1.866E+04 1.125E+07 26.3316 1.00000
  2.239E+10 2.239E+10 2.972E+00 8.408E+02 1.474E+04 5.454E+03 2.104E+04 2.104E+04 1.137E+07 26.5619 1.00000
  2.512E+10 2.512E+10 2.987E+00 9.438E+02 1.654E+04 6.242E+03 2.373E+04 2.373E+04 1.150E+07 26.7921 1.00000
  2.818E+10 2.818E+10 3.001E+00 1.059E+03 1.856E+04 7.144E+03 2.676E+04 2.676E+04 1.162E+07 27.0224 1.00000
  3.162E+10 3.162E+10 3.015E+00 1.189E+03 2.082E+04 8.177E+03 3.019E+04 3.019E+04 1.174E+07 27.2526 1.00000
  3.548E+10 3.548E+10 3.029E+00 1.335E+03 2.336E+04 9.359E+03 3.406E+04 3.406E+04 1.186E+07 27.4829 1.00000
  3.981E+10 3.981E+10 3.043E+00 1.498E+03 2.621E+04 1.071E+04 3.842E+04 3.843E+04 1.198E+07 27.7131 1.00000
  4.467E+10 4.467E+10 3.058E+00 1.681E+03 2.941E+04 1.226E+04 4.336E+04 4.336E+04 1.210E+07 27.9434 1.00000
  5.012E+10 5.012E+10 3.072E+00 1.887E+03 3.300E+04 1.404E+04 4.893E+04 4.893E+04 1.222E+07 28.1737 1.00000
  5.623E+10 5.623E+10 3.087E+00 2.117E+03 3.703E+04 1.608E+04 5.522E+04 5.522E+04 1.233E+07 28.4039 1.00000
  6.310E+10 6.310E+10 3.102E+00 2.376E+03 4.154E+04 1.841E+04 6.232E+04 6.233E+04 1.245E+07 28.6342 1.00000
  7.079E+10 7.079E+10 3.116E+00 2.667E+03 4.661E+04 2.107E+04 7.035E+04 7.036E+04 1.257E+07 28.8644 1.00000
  7.943E+10 7.943E+10 3.131E+00 2.993E+03 5.230E+04 2.413E+04 7.942E+04 7.942E+04 1.268E+07 29.0947 1.00000
  8.913E+10 8.913E+10 3.146E+00 3.358E+03 5.868E+04 2.763E+04 8.967E+04 8.967E+04 1.280E+07 29.3250 1.00000
  1.000E+11 1.000E+11 3.161E+00 3.769E+03 6.584E+04 3.165E+04 1.013E+05 1.013E+05 1.291E+07 29.5552 1.00000
  1.122E+11 1.122E+11 3.176E+00 4.229E+03 7.387E+04 3.624E+04 1.143E+05 1.143E+05 1.303E+07 29.7855 1.00000
  1.259E+11 1.259E+11 3.192E+00 4.746E+03 8.288E+04 4.151E+04 1.291E+05 1.291E+05 1.314E+07 30.0157 1.00000
  1.413E+11 1.413E+11 3.207E+00 5.325E+03 9.299E+04 4.754E+04 1.459E+05 1.459E+05 1.325E+07 30.2460 1.00000
  1.585E+11 1.585E+11 3.222E+00 5.976E+03 1.043E+05 5.446E+04 1.648E+05 1.648E+05 1.336E+07 30.4762 1.00000
  1.778E+11 1.778E+11 3.238E+00 6.706E+03 1.171E+05 6.238E+04 1.861E+05 1.861E+05 1.347E+07 30.7065 1.00000
  1.995E+11 1.995E+11 3.253E+00 7.524E+03 1.313E+05 7.146E+04 2.103E+05 2.103E+05 1.358E+07 30.9368 1.00000
  2.239E+11 2.239E+11 3.269E+00 8.443E+03 1.474E+05 8.186E+04 2.377E+05 2.377E+05 1.369E+07 31.1670 1.00000
  2.512E+11 2.512E+11 3.284E+00 9.474E+03 1.653E+05 9.378E+04 2.686E+05 2.686E+05 1.380E+07 31.3973 1.00000
  2.818E+11 2.818E+11 3.300E+00 1.063E+04 1.855E+05 1.075E+05 3.036E+05 3.036E+05 1.391E+07 31.6275 1.00000
  3.162E+11 3.162E+11 3.316E+00 1.193E+04 2.081E+05 1.231E+05 3.432E+05 3.432E+05 1.402E+07 31.8578 1.00000
  3.548E+11 3.548E+11 3.332E+00 1.338E+04 2.335E+05 1.411E+05 3.880E+05 3.880E+05 1.412E+07 32.0881 1.00000
  3.981E+11 3.981E+11 3.348E+00 1.502E+04 2.620E+05 1.617E+05 4.387E+05 4.387E+05 1.423E+07 32.3183 1.00000
  4.467E+11 4.467E+11 3.364E+00 1.685E+04 2.940E+05 1.852E+05 4.961E+05 4.961E+05 1.433E+07 32.5486 1.00000
  5.012E+11 5.012E+11 3.381E+00 1.891E+04 3.298E+05 2.123E+05 5.610E+05 5.610E+05 1.443E+07 32.7788 1.00000
  5.623E+11 5.623E+11 3.397E+00 2.122E+04 3.701E+05 2.433E+05 6.346E+05 6.346E+05 1.454E+07 33.0091 1.00000
  6.310E+11 6.310E+11 3.413E+00 2.381E+04 4.152E+05 2.789E+05 7.179E+05 7.179E+05 1.464E+07 33.2393 1.00000
  7.079E+11 7.079E+11 3.430E+00 2.671E+04 4.658E+05 3.196E+05 8.122E+05 8.122E+05 1.474E+07 33.4696 1.00000
  7.943E+11 7.943E+11 3.446E+00 2.997E+04 5.227E+05 3.664E+05 9.190E+05 9.190E+05 1.484E+07 33.6999 1.00000
  8.913E+11 8.913E+11 3.463E+00 3.363E+04 5.864E+05 4.200E+05 1.040E+06 1.040E+06 1.494E+07 33.9301 1.00000
  1.000E+12 1.000E+12 3.480E+00 3.773E+04 6.580E+05 4.815E+05 1.177E+06 1.177E+06 1.504E+07 34.1604 1.00000
  1.122E+12 1.122E+12 3.497E+00 4.234E+04 7.382E+05 5.520E+05 1.333E+06 1.333E+06 1.514E+07 34.3906 1.00000
  1.259E+12 1.259E+12 3.514E+00 4.750E+04 8.283E+05 6.328E+05 1.509E+06 1.509E+06 1.523E+07 34.6209 1.00000
  1.413E+12 1.413E+12 3.531E+00 5.330E+04 9.293E+05 7.255E+05 1.708E+06 1.708E+06 1.533E+07 34.8512 1.00000
  1.585E+12 1.585E+12 3.548E+00 5.980E+04 1.043E+06 8.319E+05 1.934E+06 1.934E+06 1.542E+07 35.0814 1.00000
  1.778E+12 1.778E+12 3.565E+00 6.710E+04 1.170E+06 9.539E+05 2.191E+06 2.191E+06 1.552E+07 35.3117 1.00000
  1.995E+12 1.995E+12 3.583E+00 7.529E+04 1.312E+06 1.094E+06 2.482E+06 2.482E+06 1.561E+07 35.5419 1.00000
  2.239E+12 2.239E+12 3.600E+00 8.448E+04 1.473E+06 1.254E+06 2.811E+06 2.811E+06 1.570E+07 35.7722 1.00000
  2.512E+12 2.512E+12 3.618E+00 9.479E+04 1.652E+06 1.439E+06 3.186E+06 3.186E+06 1.579E+07 36.0024 1.00000
  2.818E+12 2.818E+12 3.635E+00 1.064E+05 1.854E+06 1.650E+06 3.610E+06 3.610E+06 1.589E+07 36.2327 1.00000
  3.162E+12 3.162E+12 3.653E+00 1.193E+05 2.080E+06 1.892E+06 4.092E+06 4.092E+06 1.597E+07 36.4630 1.00000
  3.548E+12 3.548E+12 3.671E+00 1.339E+05 2.333E+06 2.171E+06 4.638E+06 4.638E+06 1.606E+07 36.6932 1.00000
  3.981E+12 3.981E+12 3.689E+00 1.502E+05 2.618E+06 2.490E+06 5.258E+06 5.258E+06 1.615E+07 36.9235 1.00000
  4.467E+12 4.467E+12 3.707E+00 1.686E+05 2.937E+06 2.856E+06 5.962E+06 5.962E+06 1.624E+07 37.1537 1.00000
  5.012E+12 5.012E+12 3.725E+00 1.891E+05 3.296E+06 3.276E+06 6.761E+06 6.761E+06 1.632E+07 37.3840 1.00000
  5.623E+12 5.623E+12 3.743E+00 2.122E+05 3.698E+06 3.759E+06 7.669E+06 7.669E+06 1.641E+07 37.6143 1.00000
  6.310E+12 6.310E+12 3.762E+00 2.381E+05 4.149E+06 4.313E+06 8.699E+06 8.699E+06 1.649E+07 37.8445 1.00000
  7.079E+12 7.079E+12 3.780E+00 2.672E+05 4.655E+06 4.948E+06 9.870E+06 9.870E+06 1.658E+07 38.0748 1.00000
  7.943E+12 7.943E+12 3.799E+00 2.998E+05 5.222E+06 5.677E+06 1.120E+07 1.120E+07 1.666E+07 38.3050 1.00000
  8.913E+12 8.913E+12 3.817E+00 3.363E+05 5.859E+06 6.515E+06 1.271E+07 1.271E+07 1.674E+07 38.5353 1.00000
  1.000E+13 1.000E+13 3.836E+00 3.774E+05 6.574E+06 7.476E+06 1.443E+07 1.443E+07 1.682E+07 38.7656 1.00000
  1.122E+13 1.122E+13 3.855E+00 4.234E+05 7.376E+06 8.579E+06 1.638E+07 1.638E+07 1.690E+07 38.9958 1.00000
  1.259E+13 1.259E+13 3.874E+00 4.751E+05 8.275E+06 9.845E+06 1.860E+07 1.860E+07 1.698E+07 39.2261 1.00000
  1.413E+13 1.413E+13 3.893E+00 5.331E+05 9.284E+06 1.130E+07 2.112E+07 2.112E+07 1.706E+07 39.4563 1.00000
  1.585E+13 1.585E+13 3.912E+00 5.981E+05 1.042E+07 1.297E+07 2.398E+07 2.398E+07 1.713E+07 39.6866 1.00000
  1.778E+13 1.778E+13 3.931E+00 6.711E+05 1.169E+07 1.489E+07 2.724E+07 2.724E+07 1.721E+07 39.9168 1.00000
  1.995E+13 1.995E+13 3.951E+00 7.530E+05 1.311E+07 1.709E+07 3.095E+07 3.095E+07 1.728E+07 40.1471 1.00000
  2.239E+13 2.239E+13 3.970E+00 8.448E+05 1.471E+07 1.961E+07 3.517E+07 3.517E+07 1.736E+07 40.3774 1.00000
  2.512E+13 2.512E+13 3.990E+00 9.479E+05 1.651E+07 2.252E+07 3.997E+07 3.997E+07 1.743E+07 40.6076 1.00000
  2.818E+13 2.818E+13 4.009E+00 1.064E+06 1.852E+07 2.585E+07 4.543E+07 4.543E+07 1.750E+07 40.8379 1.00000
  3.162E+13 3.162E+13 4.029E+00 1.193E+06 2.078E+07 2.968E+07 5.165E+07 5.165E+07 1.757E+07 41.0681 1.00000
  3.548E+13 3.548E+13 4.049E+00 1.339E+06 2.331E+07 3.407E+07 5.872E+07 5.872E+07 1.764E+07 41.2984 1.00000
  3.981E+13 3.981E+13 4.069E+00 1.502E+06 2.615E+07 3.912E+07 6.678E+07 6.678E+07 1.771E+07 41.5287 1.00000
  4.467E+13 4.467E+13 4.089E+00 1.686E+06 2.934E+07 4.492E+07 7.595E+07 7.595E+07 1.778E+07 41.7589 1.00000
  5.012E+13 5.012E+13 4.109E+00 1.891E+06 3.292E+07 5.158E+07 8.639E+07 8.639E+07 1.785E+07 41.9892 1.00000
  5.623E+13 5.623E+13 4.130E+00 2.122E+06 3.694E+07 5.923E+07 9.829E+07 9.829E+07 1.792E+07 42.2194 1.00000
  6.310E+13 6.310E+13 4.150E+00 2.381E+06 4.144E+07 6.802E+07 1.118E+08 1.118E+08 1.798E+07 42.4497 1.00000
  7.079E+13 7.079E+13 4.171E+00 2.672E+06 4.650E+07 7.812E+07 1.273E+08 1.273E+08 1.805E+07 42.6799 1.00000
  7.943E+13 7.943E+13 4.191E+00 2.998E+06 5.217E+07 8.972E+07 1.449E+08 1.449E+08 1.811E+07 42.9102 1.00000
  8.913E+13 8.913E+13 4.212E+00 3.363E+06 5.853E+07 1.030E+08 1.649E+08 1.649E+08 1.817E+07 43.1405 1.00000
