 Incident particle is a Tau with M = 1776.82000 MeV
 Index = 0: Thorium
      Absorber with <Z/A> = 0.38787
 Sternheimer coef:  a     k=m_s   x_0    x_1    I[eV]   Cbar  delta0
                 0.0865  3.2610  0.4202  3.7681  847.0  6.2473 0.14

 *** Table generated with PUMAS v1.00 ***

      T         p     Ionization  brems     pair     photonuc  Radloss    dE/dx   CSDA Range  delta   beta
    [MeV]    [MeV/c]  -----------------------[MeV cm^2/g]------------------------  [g/cm^2]
  1.000E+05 1.018E+05 1.538E+00 1.112E-03 1.997E-02 7.518E-03 2.860E-02 1.567E+00 3.191E+04  2.6914 0.99985
  1.122E+05 1.140E+05 1.556E+00 1.290E-03 2.390E-02 8.434E-03 3.363E-02 1.590E+00 3.964E+04  2.8524 0.99988
  1.259E+05 1.277E+05 1.574E+00 1.495E-03 2.853E-02 9.414E-03 3.944E-02 1.613E+00 4.819E+04  3.0174 0.99990
  1.413E+05 1.430E+05 1.591E+00 1.732E-03 3.395E-02 1.051E-02 4.620E-02 1.637E+00 5.764E+04  3.1862 0.99992
  1.585E+05 1.603E+05 1.609E+00 2.006E-03 4.031E-02 1.173E-02 5.404E-02 1.663E+00 6.809E+04  3.3586 0.99994
  1.778E+05 1.796E+05 1.626E+00 2.322E-03 4.773E-02 1.308E-02 6.313E-02 1.689E+00 7.963E+04  3.5345 0.99995
  1.995E+05 2.013E+05 1.643E+00 2.685E-03 5.639E-02 1.461E-02 7.369E-02 1.716E+00 9.237E+04  3.7138 0.99996
  2.239E+05 2.256E+05 1.660E+00 3.104E-03 6.647E-02 1.627E-02 8.585E-02 1.745E+00 1.064E+05  3.8964 0.99997
  2.512E+05 2.530E+05 1.676E+00 3.585E-03 7.818E-02 1.813E-02 9.989E-02 1.776E+00 1.220E+05  4.0822 0.99998
  2.818E+05 2.836E+05 1.693E+00 4.139E-03 9.176E-02 2.020E-02 1.161E-01 1.809E+00 1.391E+05  4.2709 0.99998
  3.162E+05 3.180E+05 1.709E+00 4.776E-03 1.075E-01 2.254E-02 1.348E-01 1.844E+00 1.579E+05  4.4626 0.99998
  3.548E+05 3.566E+05 1.725E+00 5.508E-03 1.256E-01 2.514E-02 1.563E-01 1.881E+00 1.786E+05  4.6571 0.99999
  3.981E+05 3.999E+05 1.741E+00 6.349E-03 1.466E-01 2.804E-02 1.810E-01 1.922E+00 2.014E+05  4.8542 0.99999
  4.467E+05 4.485E+05 1.757E+00 7.313E-03 1.707E-01 3.127E-02 2.093E-01 1.966E+00 2.264E+05  5.0539 0.99999
  5.012E+05 5.030E+05 1.773E+00 8.420E-03 1.985E-01 3.488E-02 2.418E-01 2.014E+00 2.538E+05  5.2560 0.99999
  5.623E+05 5.641E+05 1.788E+00 9.689E-03 2.303E-01 3.878E-02 2.788E-01 2.067E+00 2.837E+05  5.4604 1.00000
  6.310E+05 6.327E+05 1.804E+00 1.114E-02 2.669E-01 4.315E-02 3.212E-01 2.125E+00 3.165E+05  5.6670 1.00000
  7.079E+05 7.097E+05 1.819E+00 1.281E-02 3.088E-01 4.807E-02 3.697E-01 2.188E+00 3.522E+05  5.8758 1.00000
  7.943E+05 7.961E+05 1.834E+00 1.472E-02 3.567E-01 5.361E-02 4.251E-01 2.259E+00 3.910E+05  6.0865 1.00000
  8.913E+05 8.930E+05 1.849E+00 1.690E-02 4.115E-01 5.984E-02 4.883E-01 2.337E+00 4.332E+05  6.2991 1.00000
  1.000E+06 1.002E+06 1.863E+00 1.940E-02 4.741E-01 6.688E-02 5.603E-01 2.424E+00 4.789E+05  6.5135 1.00000
  1.122E+06 1.124E+06 1.878E+00 2.226E-02 5.454E-01 7.482E-02 6.424E-01 2.520E+00 5.283E+05  6.7295 1.00000
  1.259E+06 1.261E+06 1.892E+00 2.553E-02 6.266E-01 8.380E-02 7.359E-01 2.628E+00 5.815E+05  6.9471 1.00000
  1.413E+06 1.414E+06 1.906E+00 2.926E-02 7.190E-01 9.395E-02 8.422E-01 2.749E+00 6.387E+05  7.1662 1.00000
  1.585E+06 1.587E+06 1.920E+00 3.352E-02 8.241E-01 1.054E-01 9.631E-01 2.883E+00 6.999E+05  7.3866 1.00000
  1.778E+06 1.780E+06 1.934E+00 3.839E-02 9.435E-01 1.185E-01 1.100E+00 3.034E+00 7.653E+05  7.6083 1.00000
  1.995E+06 1.997E+06 1.948E+00 4.395E-02 1.079E+00 1.332E-01 1.256E+00 3.204E+00 8.349E+05  7.8312 1.00000
  2.239E+06 2.240E+06 1.961E+00 5.029E-02 1.233E+00 1.499E-01 1.433E+00 3.394E+00 9.088E+05  8.0551 1.00000
  2.512E+06 2.514E+06 1.975E+00 5.753E-02 1.407E+00 1.689E-01 1.633E+00 3.608E+00 9.869E+05  8.2800 1.00000
  2.818E+06 2.820E+06 1.988E+00 6.578E-02 1.604E+00 1.905E-01 1.860E+00 3.848E+00 1.069E+06  8.5058 1.00000
  3.162E+06 3.164E+06 2.001E+00 7.518E-02 1.827E+00 2.149E-01 2.117E+00 4.118E+00 1.156E+06  8.7324 1.00000
  3.548E+06 3.550E+06 2.014E+00 8.589E-02 2.079E+00 2.428E-01 2.408E+00 4.421E+00 1.246E+06  8.9597 1.00000
  3.981E+06 3.983E+06 2.026E+00 9.809E-02 2.364E+00 2.744E-01 2.736E+00 4.763E+00 1.341E+06  9.1876 1.00000
  4.467E+06 4.469E+06 2.039E+00 1.120E-01 2.686E+00 3.103E-01 3.108E+00 5.147E+00 1.439E+06  9.4160 1.00000
  5.012E+06 5.014E+06 2.051E+00 1.278E-01 3.049E+00 3.513E-01 3.528E+00 5.579E+00 1.541E+06  9.6449 1.00000
  5.623E+06 5.625E+06 2.064E+00 1.458E-01 3.459E+00 3.978E-01 4.002E+00 6.066E+00 1.646E+06  9.8742 1.00000
  6.310E+06 6.311E+06 2.076E+00 1.662E-01 3.921E+00 4.508E-01 4.538E+00 6.614E+00 1.754E+06 10.1039 1.00000
  7.079E+06 7.081E+06 2.088E+00 1.895E-01 4.442E+00 5.112E-01 5.143E+00 7.231E+00 1.866E+06 10.3337 1.00000
  7.943E+06 7.945E+06 2.100E+00 2.159E-01 5.030E+00 5.799E-01 5.825E+00 7.925E+00 1.980E+06 10.5637 1.00000
  8.913E+06 8.914E+06 2.111E+00 2.460E-01 5.691E+00 6.582E-01 6.595E+00 8.707E+00 2.097E+06 10.7939 1.00000
  1.000E+07 1.000E+07 2.123E+00 2.801E-01 6.436E+00 7.474E-01 7.464E+00 9.586E+00 2.216E+06 11.0241 1.00000
  1.122E+07 1.122E+07 2.134E+00 3.189E-01 7.275E+00 8.491E-01 8.443E+00 1.058E+01 2.337E+06 11.2543 1.00000
  1.259E+07 1.259E+07 2.146E+00 3.629E-01 8.218E+00 9.650E-01 9.546E+00 1.169E+01 2.460E+06 11.4845 1.00000
  1.413E+07 1.413E+07 2.157E+00 4.128E-01 9.280E+00 1.097E+00 1.079E+01 1.295E+01 2.585E+06 11.7148 1.00000
  1.585E+07 1.585E+07 2.168E+00 4.694E-01 1.047E+01 1.248E+00 1.219E+01 1.436E+01 2.712E+06 11.9450 1.00000
  1.778E+07 1.778E+07 2.179E+00 5.336E-01 1.182E+01 1.420E+00 1.377E+01 1.595E+01 2.840E+06 12.1752 1.00000
  1.995E+07 1.995E+07 2.191E+00 6.063E-01 1.333E+01 1.616E+00 1.555E+01 1.774E+01 2.969E+06 12.4055 1.00000
  2.239E+07 2.239E+07 2.202E+00 6.888E-01 1.503E+01 1.839E+00 1.755E+01 1.975E+01 3.099E+06 12.6357 1.00000
  2.512E+07 2.512E+07 2.212E+00 7.822E-01 1.693E+01 2.094E+00 1.981E+01 2.202E+01 3.231E+06 12.8659 1.00000
  2.818E+07 2.819E+07 2.223E+00 8.880E-01 1.908E+01 2.385E+00 2.235E+01 2.457E+01 3.362E+06 13.0962 1.00000
  3.162E+07 3.162E+07 2.234E+00 1.008E+00 2.149E+01 2.717E+00 2.521E+01 2.745E+01 3.495E+06 13.3264 1.00000
  3.548E+07 3.548E+07 2.245E+00 1.143E+00 2.419E+01 3.096E+00 2.843E+01 3.068E+01 3.628E+06 13.5567 1.00000
  3.981E+07 3.981E+07 2.256E+00 1.297E+00 2.723E+01 3.528E+00 3.206E+01 3.431E+01 3.762E+06 13.7869 1.00000
  4.467E+07 4.467E+07 2.267E+00 1.470E+00 3.065E+01 4.022E+00 3.614E+01 3.841E+01 3.896E+06 14.0172 1.00000
  5.012E+07 5.012E+07 2.277E+00 1.666E+00 3.448E+01 4.585E+00 4.074E+01 4.301E+01 4.030E+06 14.2474 1.00000
  5.623E+07 5.624E+07 2.288E+00 1.888E+00 3.879E+01 5.228E+00 4.591E+01 4.820E+01 4.165E+06 14.4777 1.00000
  6.310E+07 6.310E+07 2.299E+00 2.138E+00 4.363E+01 5.962E+00 5.173E+01 5.403E+01 4.299E+06 14.7079 1.00000
  7.079E+07 7.080E+07 2.310E+00 2.421E+00 4.906E+01 6.800E+00 5.828E+01 6.059E+01 4.434E+06 14.9382 1.00000
  7.943E+07 7.943E+07 2.321E+00 2.740E+00 5.516E+01 7.757E+00 6.565E+01 6.797E+01 4.569E+06 15.1684 1.00000
  8.913E+07 8.913E+07 2.331E+00 3.101E+00 6.200E+01 8.850E+00 7.395E+01 7.628E+01 4.704E+06 15.3987 1.00000
  1.000E+08 1.000E+08 2.342E+00 3.508E+00 6.969E+01 1.010E+01 8.329E+01 8.563E+01 4.839E+06 15.6289 1.00000
  1.122E+08 1.122E+08 2.353E+00 3.967E+00 7.831E+01 1.152E+01 9.380E+01 9.615E+01 4.973E+06 15.8592 1.00000
  1.259E+08 1.259E+08 2.364E+00 4.485E+00 8.799E+01 1.315E+01 1.056E+02 1.080E+02 5.108E+06 16.0894 1.00000
  1.413E+08 1.413E+08 2.375E+00 5.069E+00 9.886E+01 1.501E+01 1.189E+02 1.213E+02 5.242E+06 16.3197 1.00000
  1.585E+08 1.585E+08 2.386E+00 5.727E+00 1.111E+02 1.713E+01 1.339E+02 1.363E+02 5.377E+06 16.5500 1.00000
  1.778E+08 1.778E+08 2.397E+00 6.469E+00 1.248E+02 1.956E+01 1.508E+02 1.532E+02 5.511E+06 16.7802 1.00000
  1.995E+08 1.995E+08 2.408E+00 7.305E+00 1.401E+02 2.233E+01 1.698E+02 1.722E+02 5.645E+06 17.0105 1.00000
  2.239E+08 2.239E+08 2.419E+00 8.246E+00 1.574E+02 2.549E+01 1.911E+02 1.935E+02 5.778E+06 17.2407 1.00000
  2.512E+08 2.512E+08 2.430E+00 9.307E+00 1.767E+02 2.911E+01 2.151E+02 2.176E+02 5.912E+06 17.4710 1.00000
  2.818E+08 2.818E+08 2.441E+00 1.050E+01 1.984E+02 3.324E+01 2.422E+02 2.446E+02 6.045E+06 17.7012 1.00000
  3.162E+08 3.162E+08 2.452E+00 1.185E+01 2.228E+02 3.796E+01 2.726E+02 2.751E+02 6.177E+06 17.9315 1.00000
  3.548E+08 3.548E+08 2.463E+00 1.336E+01 2.502E+02 4.335E+01 3.069E+02 3.093E+02 6.310E+06 18.1618 1.00000
  3.981E+08 3.981E+08 2.475E+00 1.506E+01 2.809E+02 4.952E+01 3.454E+02 3.479E+02 6.442E+06 18.3920 1.00000
  4.467E+08 4.467E+08 2.486E+00 1.698E+01 3.153E+02 5.656E+01 3.888E+02 3.913E+02 6.574E+06 18.6223 1.00000
  5.012E+08 5.012E+08 2.498E+00 1.913E+01 3.540E+02 6.461E+01 4.377E+02 4.402E+02 6.706E+06 18.8525 1.00000
  5.623E+08 5.623E+08 2.509E+00 2.155E+01 3.973E+02 7.381E+01 4.927E+02 4.952E+02 6.837E+06 19.0828 1.00000
  6.310E+08 6.310E+08 2.521E+00 2.428E+01 4.460E+02 8.433E+01 5.546E+02 5.571E+02 6.968E+06 19.3130 1.00000
  7.079E+08 7.079E+08 2.532E+00 2.734E+01 5.006E+02 9.635E+01 6.243E+02 6.268E+02 7.098E+06 19.5433 1.00000
  7.943E+08 7.943E+08 2.544E+00 3.079E+01 5.619E+02 1.101E+02 7.028E+02 7.053E+02 7.228E+06 19.7736 1.00000
  8.913E+08 8.913E+08 2.555E+00 3.466E+01 6.307E+02 1.258E+02 7.911E+02 7.937E+02 7.358E+06 20.0038 1.00000
  1.000E+09 1.000E+09 2.567E+00 3.901E+01 7.078E+02 1.437E+02 8.906E+02 8.931E+02 7.487E+06 20.2341 1.00000
  1.122E+09 1.122E+09 2.579E+00 4.390E+01 7.944E+02 1.643E+02 1.003E+03 1.005E+03 7.616E+06 20.4643 1.00000
  1.259E+09 1.259E+09 2.591E+00 4.939E+01 8.915E+02 1.877E+02 1.129E+03 1.131E+03 7.745E+06 20.6946 1.00000
  1.413E+09 1.413E+09 2.603E+00 5.556E+01 1.001E+03 2.146E+02 1.271E+03 1.273E+03 7.873E+06 20.9248 1.00000
  1.585E+09 1.585E+09 2.615E+00 6.249E+01 1.123E+03 2.453E+02 1.431E+03 1.433E+03 8.001E+06 21.1551 1.00000
  1.778E+09 1.778E+09 2.627E+00 7.028E+01 1.260E+03 2.804E+02 1.611E+03 1.613E+03 8.128E+06 21.3854 1.00000
  1.995E+09 1.995E+09 2.639E+00 7.902E+01 1.414E+03 3.205E+02 1.814E+03 1.816E+03 8.255E+06 21.6156 1.00000
  2.239E+09 2.239E+09 2.651E+00 8.884E+01 1.587E+03 3.664E+02 2.042E+03 2.045E+03 8.382E+06 21.8459 1.00000
  2.512E+09 2.512E+09 2.664E+00 9.987E+01 1.781E+03 4.189E+02 2.299E+03 2.302E+03 8.508E+06 22.0761 1.00000
  2.818E+09 2.818E+09 2.676E+00 1.122E+02 1.998E+03 4.789E+02 2.589E+03 2.592E+03 8.634E+06 22.3064 1.00000
  3.162E+09 3.162E+09 2.688E+00 1.262E+02 2.242E+03 5.476E+02 2.916E+03 2.919E+03 8.759E+06 22.5367 1.00000
  3.548E+09 3.548E+09 2.701E+00 1.418E+02 2.516E+03 6.261E+02 3.284E+03 3.287E+03 8.884E+06 22.7669 1.00000
  3.981E+09 3.981E+09 2.713E+00 1.593E+02 2.823E+03 7.159E+02 3.698E+03 3.701E+03 9.008E+06 22.9972 1.00000
  4.467E+09 4.467E+09 2.726E+00 1.790E+02 3.168E+03 8.187E+02 4.166E+03 4.168E+03 9.132E+06 23.2274 1.00000
  5.012E+09 5.012E+09 2.739E+00 2.010E+02 3.555E+03 9.363E+02 4.692E+03 4.695E+03 9.256E+06 23.4577 1.00000
  5.623E+09 5.623E+09 2.751E+00 2.258E+02 3.989E+03 1.071E+03 5.285E+03 5.288E+03 9.379E+06 23.6879 1.00000
  6.310E+09 6.310E+09 2.764E+00 2.537E+02 4.476E+03 1.225E+03 5.954E+03 5.957E+03 9.501E+06 23.9182 1.00000
  7.079E+09 7.079E+09 2.777E+00 2.849E+02 5.022E+03 1.401E+03 6.708E+03 6.710E+03 9.623E+06 24.1485 1.00000
  7.943E+09 7.943E+09 2.790E+00 3.199E+02 5.635E+03 1.602E+03 7.557E+03 7.560E+03 9.744E+06 24.3787 1.00000
  8.913E+09 8.913E+09 2.803E+00 3.593E+02 6.323E+03 1.833E+03 8.515E+03 8.518E+03 9.865E+06 24.6090 1.00000
  1.000E+10 1.000E+10 2.816E+00 4.034E+02 7.094E+03 2.097E+03 9.595E+03 9.598E+03 9.986E+06 24.8392 1.00000
  1.122E+10 1.122E+10 2.830E+00 4.530E+02 7.960E+03 2.399E+03 1.081E+04 1.082E+04 1.011E+07 25.0695 1.00000
  1.259E+10 1.259E+10 2.843E+00 5.086E+02 8.932E+03 2.745E+03 1.218E+04 1.219E+04 1.023E+07 25.2998 1.00000
  1.413E+10 1.413E+10 2.856E+00 5.710E+02 1.002E+04 3.141E+03 1.373E+04 1.374E+04 1.034E+07 25.5300 1.00000
  1.585E+10 1.585E+10 2.870E+00 6.410E+02 1.124E+04 3.593E+03 1.548E+04 1.548E+04 1.046E+07 25.7603 1.00000
  1.778E+10 1.778E+10 2.883E+00 7.196E+02 1.262E+04 4.112E+03 1.745E+04 1.745E+04 1.058E+07 25.9905 1.00000
  1.995E+10 1.995E+10 2.897E+00 8.078E+02 1.416E+04 4.706E+03 1.967E+04 1.967E+04 1.070E+07 26.2208 1.00000
  2.239E+10 2.239E+10 2.910E+00 9.068E+02 1.588E+04 5.385E+03 2.218E+04 2.218E+04 1.081E+07 26.4511 1.00000
  2.512E+10 2.512E+10 2.924E+00 1.018E+03 1.782E+04 6.163E+03 2.500E+04 2.501E+04 1.093E+07 26.6813 1.00000
  2.818E+10 2.818E+10 2.938E+00 1.142E+03 2.000E+04 7.054E+03 2.819E+04 2.819E+04 1.105E+07 26.9116 1.00000
  3.162E+10 3.162E+10 2.952E+00 1.282E+03 2.244E+04 8.074E+03 3.179E+04 3.179E+04 1.116E+07 27.1418 1.00000
  3.548E+10 3.548E+10 2.966E+00 1.439E+03 2.517E+04 9.241E+03 3.585E+04 3.586E+04 1.128E+07 27.3721 1.00000
  3.981E+10 3.981E+10 2.980E+00 1.615E+03 2.824E+04 1.058E+04 4.044E+04 4.044E+04 1.139E+07 27.6023 1.00000
  4.467E+10 4.467E+10 2.994E+00 1.813E+03 3.169E+04 1.211E+04 4.561E+04 4.562E+04 1.150E+07 27.8326 1.00000
  5.012E+10 5.012E+10 3.008E+00 2.035E+03 3.556E+04 1.386E+04 5.145E+04 5.146E+04 1.162E+07 28.0629 1.00000
  5.623E+10 5.623E+10 3.022E+00 2.283E+03 3.989E+04 1.587E+04 5.805E+04 5.805E+04 1.173E+07 28.2931 1.00000
  6.310E+10 6.310E+10 3.037E+00 2.563E+03 4.476E+04 1.817E+04 6.550E+04 6.550E+04 1.184E+07 28.5234 1.00000
  7.079E+10 7.079E+10 3.051E+00 2.876E+03 5.022E+04 2.081E+04 7.391E+04 7.391E+04 1.195E+07 28.7536 1.00000
  7.943E+10 7.943E+10 3.066E+00 3.227E+03 5.635E+04 2.383E+04 8.340E+04 8.341E+04 1.206E+07 28.9839 1.00000
  8.913E+10 8.913E+10 3.080E+00 3.622E+03 6.322E+04 2.729E+04 9.413E+04 9.413E+04 1.217E+07 29.2142 1.00000
  1.000E+11 1.000E+11 3.095E+00 4.064E+03 7.094E+04 3.125E+04 1.062E+05 1.062E+05 1.228E+07 29.4444 1.00000
  1.122E+11 1.122E+11 3.110E+00 4.560E+03 7.959E+04 3.579E+04 1.199E+05 1.199E+05 1.239E+07 29.6747 1.00000
  1.259E+11 1.259E+11 3.125E+00 5.117E+03 8.930E+04 4.098E+04 1.354E+05 1.354E+05 1.250E+07 29.9049 1.00000
  1.413E+11 1.413E+11 3.140E+00 5.743E+03 1.002E+05 4.694E+04 1.529E+05 1.529E+05 1.260E+07 30.1352 1.00000
  1.585E+11 1.585E+11 3.155E+00 6.444E+03 1.124E+05 5.377E+04 1.726E+05 1.726E+05 1.271E+07 30.3654 1.00000
  1.778E+11 1.778E+11 3.170E+00 7.231E+03 1.261E+05 6.159E+04 1.950E+05 1.950E+05 1.281E+07 30.5957 1.00000
  1.995E+11 1.995E+11 3.185E+00 8.114E+03 1.415E+05 7.056E+04 2.202E+05 2.202E+05 1.292E+07 30.8260 1.00000
  2.239E+11 2.239E+11 3.200E+00 9.104E+03 1.588E+05 8.083E+04 2.487E+05 2.487E+05 1.302E+07 31.0562 1.00000
  2.512E+11 2.512E+11 3.216E+00 1.022E+04 1.781E+05 9.260E+04 2.810E+05 2.810E+05 1.313E+07 31.2865 1.00000
  2.818E+11 2.818E+11 3.231E+00 1.146E+04 1.999E+05 1.061E+05 3.174E+05 3.174E+05 1.323E+07 31.5167 1.00000
  3.162E+11 3.162E+11 3.247E+00 1.286E+04 2.243E+05 1.216E+05 3.587E+05 3.587E+05 1.333E+07 31.7470 1.00000
  3.548E+11 3.548E+11 3.262E+00 1.443E+04 2.516E+05 1.393E+05 4.053E+05 4.053E+05 1.343E+07 31.9773 1.00000
  3.981E+11 3.981E+11 3.278E+00 1.619E+04 2.823E+05 1.596E+05 4.581E+05 4.581E+05 1.353E+07 32.2075 1.00000
  4.467E+11 4.467E+11 3.294E+00 1.817E+04 3.167E+05 1.829E+05 5.178E+05 5.178E+05 1.363E+07 32.4378 1.00000
  5.012E+11 5.012E+11 3.310E+00 2.039E+04 3.554E+05 2.096E+05 5.854E+05 5.854E+05 1.373E+07 32.6680 1.00000
  5.623E+11 5.623E+11 3.326E+00 2.288E+04 3.987E+05 2.402E+05 6.618E+05 6.619E+05 1.383E+07 32.8983 1.00000
  6.310E+11 6.310E+11 3.342E+00 2.567E+04 4.474E+05 2.753E+05 7.484E+05 7.484E+05 1.393E+07 33.1285 1.00000
  7.079E+11 7.079E+11 3.358E+00 2.880E+04 5.019E+05 3.156E+05 8.463E+05 8.463E+05 1.403E+07 33.3588 1.00000
  7.943E+11 7.943E+11 3.374E+00 3.232E+04 5.632E+05 3.618E+05 9.572E+05 9.572E+05 1.412E+07 33.5891 1.00000
  8.913E+11 8.913E+11 3.391E+00 3.626E+04 6.319E+05 4.147E+05 1.083E+06 1.083E+06 1.422E+07 33.8193 1.00000
  1.000E+12 1.000E+12 3.407E+00 4.069E+04 7.089E+05 4.754E+05 1.225E+06 1.225E+06 1.431E+07 34.0496 1.00000
  1.122E+12 1.122E+12 3.424E+00 4.565E+04 7.954E+05 5.450E+05 1.386E+06 1.386E+06 1.441E+07 34.2798 1.00000
  1.259E+12 1.259E+12 3.440E+00 5.122E+04 8.924E+05 6.248E+05 1.568E+06 1.568E+06 1.450E+07 34.5101 1.00000
  1.413E+12 1.413E+12 3.457E+00 5.747E+04 1.001E+06 7.164E+05 1.775E+06 1.775E+06 1.459E+07 34.7404 1.00000
  1.585E+12 1.585E+12 3.474E+00 6.449E+04 1.123E+06 8.214E+05 2.009E+06 2.009E+06 1.468E+07 34.9706 1.00000
  1.778E+12 1.778E+12 3.491E+00 7.236E+04 1.260E+06 9.419E+05 2.275E+06 2.275E+06 1.477E+07 35.2009 1.00000
  1.995E+12 1.995E+12 3.508E+00 8.119E+04 1.414E+06 1.080E+06 2.575E+06 2.575E+06 1.486E+07 35.4311 1.00000
  2.239E+12 2.239E+12 3.525E+00 9.109E+04 1.587E+06 1.239E+06 2.916E+06 2.916E+06 1.495E+07 35.6614 1.00000
  2.512E+12 2.512E+12 3.542E+00 1.022E+05 1.780E+06 1.420E+06 3.303E+06 3.303E+06 1.504E+07 35.8916 1.00000
  2.818E+12 2.818E+12 3.559E+00 1.147E+05 1.997E+06 1.629E+06 3.741E+06 3.741E+06 1.513E+07 36.1219 1.00000
  3.162E+12 3.162E+12 3.576E+00 1.287E+05 2.241E+06 1.869E+06 4.238E+06 4.238E+06 1.521E+07 36.3522 1.00000
  3.548E+12 3.548E+12 3.594E+00 1.444E+05 2.514E+06 2.143E+06 4.802E+06 4.802E+06 1.530E+07 36.5824 1.00000
  3.981E+12 3.981E+12 3.611E+00 1.620E+05 2.821E+06 2.458E+06 5.441E+06 5.441E+06 1.538E+07 36.8127 1.00000
  4.467E+12 4.467E+12 3.629E+00 1.818E+05 3.165E+06 2.820E+06 6.167E+06 6.167E+06 1.547E+07 37.0429 1.00000
  5.012E+12 5.012E+12 3.647E+00 2.039E+05 3.551E+06 3.235E+06 6.990E+06 6.990E+06 1.555E+07 37.2732 1.00000
  5.623E+12 5.623E+12 3.665E+00 2.288E+05 3.984E+06 3.712E+06 7.924E+06 7.924E+06 1.563E+07 37.5035 1.00000
  6.310E+12 6.310E+12 3.683E+00 2.567E+05 4.470E+06 4.258E+06 8.985E+06 8.985E+06 1.572E+07 37.7337 1.00000
  7.079E+12 7.079E+12 3.701E+00 2.881E+05 5.015E+06 4.886E+06 1.019E+07 1.019E+07 1.580E+07 37.9640 1.00000
  7.943E+12 7.943E+12 3.719E+00 3.232E+05 5.627E+06 5.606E+06 1.156E+07 1.156E+07 1.588E+07 38.1942 1.00000
  8.913E+12 8.913E+12 3.737E+00 3.627E+05 6.313E+06 6.432E+06 1.311E+07 1.311E+07 1.595E+07 38.4245 1.00000
  1.000E+13 1.000E+13 3.755E+00 4.069E+05 7.083E+06 7.381E+06 1.487E+07 1.487E+07 1.603E+07 38.6548 1.00000
  1.122E+13 1.122E+13 3.774E+00 4.566E+05 7.947E+06 8.471E+06 1.687E+07 1.687E+07 1.611E+07 38.8850 1.00000
  1.259E+13 1.259E+13 3.792E+00 5.123E+05 8.916E+06 9.721E+06 1.915E+07 1.915E+07 1.619E+07 39.1153 1.00000
  1.413E+13 1.413E+13 3.811E+00 5.748E+05 1.000E+07 1.116E+07 2.174E+07 2.174E+07 1.626E+07 39.3455 1.00000
  1.585E+13 1.585E+13 3.830E+00 6.449E+05 1.122E+07 1.281E+07 2.467E+07 2.467E+07 1.634E+07 39.5758 1.00000
  1.778E+13 1.778E+13 3.849E+00 7.236E+05 1.259E+07 1.470E+07 2.801E+07 2.801E+07 1.641E+07 39.8060 1.00000
  1.995E+13 1.995E+13 3.868E+00 8.119E+05 1.413E+07 1.687E+07 3.181E+07 3.181E+07 1.648E+07 40.0363 1.00000
  2.239E+13 2.239E+13 3.887E+00 9.110E+05 1.585E+07 1.937E+07 3.613E+07 3.613E+07 1.655E+07 40.2666 1.00000
  2.512E+13 2.512E+13 3.906E+00 1.022E+06 1.778E+07 2.223E+07 4.104E+07 4.104E+07 1.663E+07 40.4968 1.00000
  2.818E+13 2.818E+13 3.925E+00 1.147E+06 1.995E+07 2.552E+07 4.662E+07 4.662E+07 1.670E+07 40.7271 1.00000
  3.162E+13 3.162E+13 3.944E+00 1.287E+06 2.239E+07 2.930E+07 5.298E+07 5.298E+07 1.677E+07 40.9573 1.00000
  3.548E+13 3.548E+13 3.964E+00 1.444E+06 2.512E+07 3.364E+07 6.020E+07 6.020E+07 1.683E+07 41.1876 1.00000
  3.981E+13 3.981E+13 3.983E+00 1.620E+06 2.818E+07 3.863E+07 6.843E+07 6.843E+07 1.690E+07 41.4179 1.00000
  4.467E+13 4.467E+13 4.003E+00 1.818E+06 3.162E+07 4.435E+07 7.779E+07 7.779E+07 1.697E+07 41.6481 1.00000
  5.012E+13 5.012E+13 4.023E+00 2.039E+06 3.547E+07 5.093E+07 8.844E+07 8.844E+07 1.703E+07 41.8784 1.00000
  5.623E+13 5.623E+13 4.043E+00 2.288E+06 3.980E+07 5.848E+07 1.006E+08 1.006E+08 1.710E+07 42.1086 1.00000
  6.310E+13 6.310E+13 4.063E+00 2.568E+06 4.465E+07 6.716E+07 1.144E+08 1.144E+08 1.716E+07 42.3389 1.00000
  7.079E+13 7.079E+13 4.083E+00 2.881E+06 5.010E+07 7.713E+07 1.301E+08 1.301E+08 1.723E+07 42.5691 1.00000
  7.943E+13 7.943E+13 4.103E+00 3.232E+06 5.621E+07 8.859E+07 1.480E+08 1.480E+08 1.729E+07 42.7994 1.00000
  8.913E+13 8.913E+13 4.123E+00 3.627E+06 6.306E+07 1.017E+08 1.684E+08 1.684E+08 1.735E+07 43.0297 1.00000
