 Incident particle is a Tau with M = 1776.82000 MeV
 Index = 0: Thulium
      Absorber with <Z/A> = 0.40844
 Sternheimer coef:  a     k=m_s   x_0    x_1    I[eV]   Cbar  delta0
                 0.2489  2.5469  0.0812  3.5085  674.0  5.9677 0.14

 *** Table generated with PUMAS v1.00 ***

      T         p     Ionization  brems     pair     photonuc  Radloss    dE/dx   CSDA Range  delta   beta
    [MeV]    [MeV/c]  -----------------------[MeV cm^2/g]------------------------  [g/cm^2]
  1.000E+05 1.018E+05 1.619E+00 9.215E-04 1.620E-02 7.600E-03 2.472E-02 1.644E+00 3.042E+04  3.1639 0.99985
  1.122E+05 1.140E+05 1.638E+00 1.068E-03 1.940E-02 8.533E-03 2.900E-02 1.667E+00 3.779E+04  3.3179 0.99988
  1.259E+05 1.277E+05 1.657E+00 1.238E-03 2.316E-02 9.531E-03 3.393E-02 1.691E+00 4.594E+04  3.4754 0.99990
  1.413E+05 1.430E+05 1.676E+00 1.434E-03 2.757E-02 1.065E-02 3.965E-02 1.716E+00 5.496E+04  3.6362 0.99992
  1.585E+05 1.603E+05 1.695E+00 1.659E-03 3.274E-02 1.189E-02 4.629E-02 1.741E+00 6.493E+04  3.8003 0.99994
  1.778E+05 1.796E+05 1.713E+00 1.919E-03 3.879E-02 1.327E-02 5.397E-02 1.767E+00 7.596E+04  3.9677 0.99995
  1.995E+05 2.013E+05 1.732E+00 2.218E-03 4.584E-02 1.483E-02 6.289E-02 1.795E+00 8.814E+04  4.1383 0.99996
  2.239E+05 2.256E+05 1.750E+00 2.563E-03 5.405E-02 1.653E-02 7.315E-02 1.823E+00 1.016E+05  4.3120 0.99997
  2.512E+05 2.530E+05 1.768E+00 2.960E-03 6.359E-02 1.843E-02 8.498E-02 1.853E+00 1.165E+05  4.4888 0.99998
  2.818E+05 2.836E+05 1.786E+00 3.416E-03 7.466E-02 2.055E-02 9.863E-02 1.885E+00 1.329E+05  4.6686 0.99998
  3.162E+05 3.180E+05 1.804E+00 3.939E-03 8.748E-02 2.294E-02 1.144E-01 1.918E+00 1.509E+05  4.8513 0.99998
  3.548E+05 3.566E+05 1.822E+00 4.541E-03 1.023E-01 2.561E-02 1.324E-01 1.954E+00 1.709E+05  5.0368 0.99999
  3.981E+05 3.999E+05 1.839E+00 5.232E-03 1.194E-01 2.858E-02 1.532E-01 1.992E+00 1.928E+05  5.2252 0.99999
  4.467E+05 4.485E+05 1.856E+00 6.025E-03 1.391E-01 3.189E-02 1.770E-01 2.033E+00 2.170E+05  5.4163 0.99999
  5.012E+05 5.030E+05 1.873E+00 6.934E-03 1.618E-01 3.561E-02 2.043E-01 2.077E+00 2.435E+05  5.6100 0.99999
  5.623E+05 5.641E+05 1.890E+00 7.976E-03 1.878E-01 3.961E-02 2.354E-01 2.125E+00 2.726E+05  5.8064 1.00000
  6.310E+05 6.327E+05 1.907E+00 9.170E-03 2.177E-01 4.410E-02 2.710E-01 2.178E+00 3.045E+05  6.0052 1.00000
  7.079E+05 7.097E+05 1.923E+00 1.054E-02 2.520E-01 4.916E-02 3.117E-01 2.235E+00 3.394E+05  6.2065 1.00000
  7.943E+05 7.961E+05 1.939E+00 1.210E-02 2.913E-01 5.485E-02 3.582E-01 2.298E+00 3.775E+05  6.4102 1.00000
  8.913E+05 8.930E+05 1.955E+00 1.390E-02 3.361E-01 6.127E-02 4.113E-01 2.367E+00 4.191E+05  6.6162 1.00000
  1.000E+06 1.002E+06 1.971E+00 1.595E-02 3.874E-01 6.851E-02 4.718E-01 2.443E+00 4.643E+05  6.8243 1.00000
  1.122E+06 1.124E+06 1.987E+00 1.829E-02 4.458E-01 7.669E-02 5.408E-01 2.528E+00 5.134E+05  7.0347 1.00000
  1.259E+06 1.261E+06 2.002E+00 2.097E-02 5.125E-01 8.593E-02 6.194E-01 2.622E+00 5.666E+05  7.2471 1.00000
  1.413E+06 1.414E+06 2.018E+00 2.403E-02 5.883E-01 9.639E-02 7.087E-01 2.726E+00 6.241E+05  7.4614 1.00000
  1.585E+06 1.587E+06 2.033E+00 2.753E-02 6.746E-01 1.082E-01 8.103E-01 2.843E+00 6.860E+05  7.6777 1.00000
  1.778E+06 1.780E+06 2.047E+00 3.152E-02 7.726E-01 1.216E-01 9.257E-01 2.973E+00 7.525E+05  7.8957 1.00000
  1.995E+06 1.997E+06 2.062E+00 3.608E-02 8.839E-01 1.368E-01 1.057E+00 3.119E+00 8.238E+05  8.1155 1.00000
  2.239E+06 2.240E+06 2.076E+00 4.128E-02 1.010E+00 1.541E-01 1.205E+00 3.282E+00 8.999E+05  8.3369 1.00000
  2.512E+06 2.514E+06 2.091E+00 4.721E-02 1.153E+00 1.737E-01 1.374E+00 3.465E+00 9.810E+05  8.5598 1.00000
  2.818E+06 2.820E+06 2.105E+00 5.397E-02 1.315E+00 1.959E-01 1.565E+00 3.670E+00 1.067E+06  8.7841 1.00000
  3.162E+06 3.164E+06 2.118E+00 6.167E-02 1.499E+00 2.211E-01 1.782E+00 3.900E+00 1.158E+06  9.0098 1.00000
  3.548E+06 3.550E+06 2.132E+00 7.045E-02 1.706E+00 2.498E-01 2.027E+00 4.158E+00 1.254E+06  9.2366 1.00000
  3.981E+06 3.983E+06 2.145E+00 8.045E-02 1.941E+00 2.824E-01 2.304E+00 4.449E+00 1.354E+06  9.4644 1.00000
  4.467E+06 4.469E+06 2.158E+00 9.184E-02 2.206E+00 3.195E-01 2.617E+00 4.776E+00 1.460E+06  9.6932 1.00000
  5.012E+06 5.014E+06 2.171E+00 1.048E-01 2.505E+00 3.617E-01 2.972E+00 5.143E+00 1.570E+06  9.9227 1.00000
  5.623E+06 5.625E+06 2.184E+00 1.195E-01 2.843E+00 4.098E-01 3.372E+00 5.557E+00 1.684E+06 10.1527 1.00000
  6.310E+06 6.311E+06 2.197E+00 1.363E-01 3.224E+00 4.645E-01 3.825E+00 6.022E+00 1.803E+06 10.3829 1.00000
  7.079E+06 7.081E+06 2.210E+00 1.554E-01 3.653E+00 5.267E-01 4.336E+00 6.545E+00 1.926E+06 10.6131 1.00000
  7.943E+06 7.945E+06 2.222E+00 1.770E-01 4.138E+00 5.977E-01 4.912E+00 7.134E+00 2.052E+06 10.8433 1.00000
  8.913E+06 8.914E+06 2.234E+00 2.017E-01 4.683E+00 6.785E-01 5.563E+00 7.798E+00 2.183E+06 11.0735 1.00000
  1.000E+07 1.000E+07 2.247E+00 2.296E-01 5.298E+00 7.705E-01 6.298E+00 8.544E+00 2.316E+06 11.3037 1.00000
  1.122E+07 1.122E+07 2.259E+00 2.614E-01 5.989E+00 8.755E-01 7.126E+00 9.385E+00 2.452E+06 11.5339 1.00000
  1.259E+07 1.259E+07 2.271E+00 2.974E-01 6.768E+00 9.951E-01 8.061E+00 1.033E+01 2.592E+06 11.7641 1.00000
  1.413E+07 1.413E+07 2.283E+00 3.384E-01 7.644E+00 1.131E+00 9.114E+00 1.140E+01 2.733E+06 11.9944 1.00000
  1.585E+07 1.585E+07 2.294E+00 3.848E-01 8.630E+00 1.287E+00 1.030E+01 1.260E+01 2.877E+06 12.2246 1.00000
  1.778E+07 1.778E+07 2.306E+00 4.374E-01 9.738E+00 1.464E+00 1.164E+01 1.395E+01 3.023E+06 12.4548 1.00000
  1.995E+07 1.995E+07 2.318E+00 4.971E-01 1.098E+01 1.667E+00 1.315E+01 1.547E+01 3.171E+06 12.6851 1.00000
  2.239E+07 2.239E+07 2.329E+00 5.647E-01 1.239E+01 1.897E+00 1.485E+01 1.718E+01 3.321E+06 12.9153 1.00000
  2.512E+07 2.512E+07 2.341E+00 6.413E-01 1.396E+01 2.161E+00 1.676E+01 1.910E+01 3.472E+06 13.1455 1.00000
  2.818E+07 2.819E+07 2.352E+00 7.281E-01 1.573E+01 2.461E+00 1.892E+01 2.127E+01 3.624E+06 13.3758 1.00000
  3.162E+07 3.162E+07 2.364E+00 8.263E-01 1.772E+01 2.803E+00 2.135E+01 2.372E+01 3.777E+06 13.6060 1.00000
  3.548E+07 3.548E+07 2.375E+00 9.375E-01 1.996E+01 3.195E+00 2.409E+01 2.646E+01 3.932E+06 13.8363 1.00000
  3.981E+07 3.981E+07 2.387E+00 1.063E+00 2.247E+01 3.641E+00 2.717E+01 2.956E+01 4.087E+06 14.0665 1.00000
  4.467E+07 4.467E+07 2.398E+00 1.206E+00 2.529E+01 4.150E+00 3.064E+01 3.304E+01 4.242E+06 14.2968 1.00000
  5.012E+07 5.012E+07 2.409E+00 1.367E+00 2.846E+01 4.732E+00 3.455E+01 3.696E+01 4.399E+06 14.5270 1.00000
  5.623E+07 5.624E+07 2.421E+00 1.548E+00 3.201E+01 5.395E+00 3.896E+01 4.138E+01 4.555E+06 14.7573 1.00000
  6.310E+07 6.310E+07 2.432E+00 1.754E+00 3.601E+01 6.153E+00 4.392E+01 4.635E+01 4.712E+06 14.9875 1.00000
  7.079E+07 7.080E+07 2.443E+00 1.986E+00 4.050E+01 7.018E+00 4.950E+01 5.194E+01 4.869E+06 15.2178 1.00000
  7.943E+07 7.943E+07 2.455E+00 2.249E+00 4.553E+01 8.006E+00 5.579E+01 5.824E+01 5.027E+06 15.4480 1.00000
  8.913E+07 8.913E+07 2.466E+00 2.545E+00 5.119E+01 9.134E+00 6.287E+01 6.533E+01 5.184E+06 15.6783 1.00000
  1.000E+08 1.000E+08 2.478E+00 2.879E+00 5.754E+01 1.042E+01 7.084E+01 7.331E+01 5.341E+06 15.9085 1.00000
  1.122E+08 1.122E+08 2.489E+00 3.256E+00 6.466E+01 1.189E+01 7.981E+01 8.230E+01 5.499E+06 16.1388 1.00000
  1.259E+08 1.259E+08 2.500E+00 3.682E+00 7.266E+01 1.357E+01 8.992E+01 9.242E+01 5.656E+06 16.3690 1.00000
  1.413E+08 1.413E+08 2.512E+00 4.162E+00 8.164E+01 1.549E+01 1.013E+02 1.038E+02 5.813E+06 16.5993 1.00000
  1.585E+08 1.585E+08 2.523E+00 4.703E+00 9.172E+01 1.768E+01 1.141E+02 1.166E+02 5.970E+06 16.8296 1.00000
  1.778E+08 1.778E+08 2.535E+00 5.313E+00 1.030E+02 2.019E+01 1.285E+02 1.311E+02 6.127E+06 17.0598 1.00000
  1.995E+08 1.995E+08 2.547E+00 6.000E+00 1.157E+02 2.305E+01 1.448E+02 1.473E+02 6.283E+06 17.2901 1.00000
  2.239E+08 2.239E+08 2.558E+00 6.775E+00 1.300E+02 2.631E+01 1.631E+02 1.656E+02 6.439E+06 17.5203 1.00000
  2.512E+08 2.512E+08 2.570E+00 7.647E+00 1.460E+02 3.004E+01 1.837E+02 1.862E+02 6.595E+06 17.7506 1.00000
  2.818E+08 2.818E+08 2.582E+00 8.629E+00 1.639E+02 3.431E+01 2.069E+02 2.094E+02 6.751E+06 17.9808 1.00000
  3.162E+08 3.162E+08 2.593E+00 9.735E+00 1.841E+02 3.918E+01 2.330E+02 2.356E+02 6.906E+06 18.2111 1.00000
  3.548E+08 3.548E+08 2.605E+00 1.098E+01 2.067E+02 4.475E+01 2.624E+02 2.650E+02 7.060E+06 18.4414 1.00000
  3.981E+08 3.981E+08 2.617E+00 1.238E+01 2.320E+02 5.111E+01 2.955E+02 2.981E+02 7.215E+06 18.6716 1.00000
  4.467E+08 4.467E+08 2.629E+00 1.396E+01 2.605E+02 5.838E+01 3.328E+02 3.355E+02 7.368E+06 18.9019 1.00000
  5.012E+08 5.012E+08 2.641E+00 1.573E+01 2.924E+02 6.669E+01 3.749E+02 3.775E+02 7.522E+06 19.1321 1.00000
  5.623E+08 5.623E+08 2.653E+00 1.773E+01 3.283E+02 7.619E+01 4.222E+02 4.248E+02 7.675E+06 19.3624 1.00000
  6.310E+08 6.310E+08 2.665E+00 1.997E+01 3.685E+02 8.704E+01 4.755E+02 4.782E+02 7.827E+06 19.5926 1.00000
  7.079E+08 7.079E+08 2.678E+00 2.249E+01 4.136E+02 9.945E+01 5.356E+02 5.382E+02 7.979E+06 19.8229 1.00000
  7.943E+08 7.943E+08 2.690E+00 2.533E+01 4.643E+02 1.136E+02 6.032E+02 6.059E+02 8.131E+06 20.0532 1.00000
  8.913E+08 8.913E+08 2.702E+00 2.852E+01 5.211E+02 1.298E+02 6.794E+02 6.821E+02 8.282E+06 20.2834 1.00000
  1.000E+09 1.000E+09 2.714E+00 3.210E+01 5.848E+02 1.484E+02 7.653E+02 7.680E+02 8.432E+06 20.5137 1.00000
  1.122E+09 1.122E+09 2.727E+00 3.613E+01 6.564E+02 1.696E+02 8.621E+02 8.648E+02 8.582E+06 20.7439 1.00000
  1.259E+09 1.259E+09 2.739E+00 4.065E+01 7.367E+02 1.938E+02 9.711E+02 9.739E+02 8.732E+06 20.9742 1.00000
  1.413E+09 1.413E+09 2.752E+00 4.574E+01 8.267E+02 2.215E+02 1.094E+03 1.097E+03 8.881E+06 21.2044 1.00000
  1.585E+09 1.585E+09 2.765E+00 5.145E+01 9.278E+02 2.532E+02 1.232E+03 1.235E+03 9.029E+06 21.4347 1.00000
  1.778E+09 1.778E+09 2.777E+00 5.786E+01 1.041E+03 2.894E+02 1.388E+03 1.391E+03 9.177E+06 21.6650 1.00000
  1.995E+09 1.995E+09 2.790E+00 6.507E+01 1.168E+03 3.308E+02 1.564E+03 1.567E+03 9.324E+06 21.8952 1.00000
  2.239E+09 2.239E+09 2.803E+00 7.316E+01 1.311E+03 3.782E+02 1.763E+03 1.765E+03 9.471E+06 22.1255 1.00000
  2.512E+09 2.512E+09 2.816E+00 8.225E+01 1.471E+03 4.324E+02 1.986E+03 1.989E+03 9.617E+06 22.3557 1.00000
  2.818E+09 2.818E+09 2.829E+00 9.246E+01 1.651E+03 4.943E+02 2.238E+03 2.241E+03 9.762E+06 22.5860 1.00000
  3.162E+09 3.162E+09 2.842E+00 1.039E+02 1.853E+03 5.652E+02 2.522E+03 2.525E+03 9.907E+06 22.8163 1.00000
  3.548E+09 3.548E+09 2.855E+00 1.168E+02 2.079E+03 6.463E+02 2.842E+03 2.845E+03 1.005E+07 23.0465 1.00000
  3.981E+09 3.981E+09 2.868E+00 1.312E+02 2.333E+03 7.390E+02 3.203E+03 3.206E+03 1.019E+07 23.2768 1.00000
  4.467E+09 4.467E+09 2.882E+00 1.475E+02 2.618E+03 8.451E+02 3.610E+03 3.613E+03 1.034E+07 23.5070 1.00000
  5.012E+09 5.012E+09 2.895E+00 1.657E+02 2.938E+03 9.665E+02 4.070E+03 4.073E+03 1.048E+07 23.7373 1.00000
  5.623E+09 5.623E+09 2.909E+00 1.861E+02 3.296E+03 1.105E+03 4.588E+03 4.591E+03 1.062E+07 23.9675 1.00000
  6.310E+09 6.310E+09 2.922E+00 2.090E+02 3.699E+03 1.264E+03 5.172E+03 5.175E+03 1.076E+07 24.1978 1.00000
  7.079E+09 7.079E+09 2.936E+00 2.348E+02 4.150E+03 1.446E+03 5.831E+03 5.834E+03 1.090E+07 24.4281 1.00000
  7.943E+09 7.943E+09 2.949E+00 2.637E+02 4.657E+03 1.654E+03 6.574E+03 6.577E+03 1.104E+07 24.6583 1.00000
  8.913E+09 8.913E+09 2.963E+00 2.961E+02 5.225E+03 1.892E+03 7.413E+03 7.416E+03 1.118E+07 24.8886 1.00000
  1.000E+10 1.000E+10 2.977E+00 3.325E+02 5.863E+03 2.165E+03 8.360E+03 8.363E+03 1.132E+07 25.1188 1.00000
  1.122E+10 1.122E+10 2.991E+00 3.734E+02 6.578E+03 2.476E+03 9.428E+03 9.431E+03 1.146E+07 25.3491 1.00000
  1.259E+10 1.259E+10 3.005E+00 4.193E+02 7.381E+03 2.833E+03 1.063E+04 1.064E+04 1.159E+07 25.5794 1.00000
  1.413E+10 1.413E+10 3.019E+00 4.707E+02 8.282E+03 3.242E+03 1.199E+04 1.200E+04 1.173E+07 25.8096 1.00000
  1.585E+10 1.585E+10 3.033E+00 5.285E+02 9.292E+03 3.709E+03 1.353E+04 1.353E+04 1.187E+07 26.0399 1.00000
  1.778E+10 1.778E+10 3.047E+00 5.933E+02 1.043E+04 4.245E+03 1.526E+04 1.527E+04 1.200E+07 26.2701 1.00000
  1.995E+10 1.995E+10 3.062E+00 6.660E+02 1.170E+04 4.857E+03 1.722E+04 1.722E+04 1.214E+07 26.5004 1.00000
  2.239E+10 2.239E+10 3.076E+00 7.477E+02 1.313E+04 5.559E+03 1.943E+04 1.944E+04 1.227E+07 26.7307 1.00000
  2.512E+10 2.512E+10 3.090E+00 8.393E+02 1.473E+04 6.362E+03 2.193E+04 2.193E+04 1.240E+07 26.9609 1.00000
  2.818E+10 2.818E+10 3.105E+00 9.421E+02 1.652E+04 7.281E+03 2.475E+04 2.475E+04 1.253E+07 27.1912 1.00000
  3.162E+10 3.162E+10 3.120E+00 1.057E+03 1.854E+04 8.334E+03 2.793E+04 2.794E+04 1.266E+07 27.4214 1.00000
  3.548E+10 3.548E+10 3.134E+00 1.187E+03 2.080E+04 9.539E+03 3.153E+04 3.153E+04 1.279E+07 27.6517 1.00000
  3.981E+10 3.981E+10 3.149E+00 1.332E+03 2.334E+04 1.092E+04 3.559E+04 3.560E+04 1.292E+07 27.8819 1.00000
  4.467E+10 4.467E+10 3.164E+00 1.495E+03 2.619E+04 1.250E+04 4.018E+04 4.019E+04 1.305E+07 28.1122 1.00000
  5.012E+10 5.012E+10 3.179E+00 1.678E+03 2.938E+04 1.431E+04 4.537E+04 4.538E+04 1.318E+07 28.3425 1.00000
  5.623E+10 5.623E+10 3.194E+00 1.883E+03 3.297E+04 1.638E+04 5.124E+04 5.124E+04 1.331E+07 28.5727 1.00000
  6.310E+10 6.310E+10 3.209E+00 2.113E+03 3.699E+04 1.876E+04 5.786E+04 5.787E+04 1.343E+07 28.8030 1.00000
  7.079E+10 7.079E+10 3.224E+00 2.372E+03 4.150E+04 2.148E+04 6.536E+04 6.536E+04 1.356E+07 29.0332 1.00000
  7.943E+10 7.943E+10 3.240E+00 2.661E+03 4.657E+04 2.460E+04 7.382E+04 7.383E+04 1.368E+07 29.2635 1.00000
  8.913E+10 8.913E+10 3.255E+00 2.987E+03 5.225E+04 2.817E+04 8.340E+04 8.340E+04 1.381E+07 29.4938 1.00000
  1.000E+11 1.000E+11 3.270E+00 3.352E+03 5.862E+04 3.225E+04 9.423E+04 9.423E+04 1.393E+07 29.7240 1.00000
  1.122E+11 1.122E+11 3.286E+00 3.761E+03 6.577E+04 3.694E+04 1.065E+05 1.065E+05 1.405E+07 29.9543 1.00000
  1.259E+11 1.259E+11 3.302E+00 4.221E+03 7.380E+04 4.231E+04 1.203E+05 1.203E+05 1.417E+07 30.1845 1.00000
  1.413E+11 1.413E+11 3.317E+00 4.736E+03 8.280E+04 4.846E+04 1.360E+05 1.360E+05 1.429E+07 30.4148 1.00000
  1.585E+11 1.585E+11 3.333E+00 5.315E+03 9.290E+04 5.550E+04 1.537E+05 1.537E+05 1.441E+07 30.6450 1.00000
  1.778E+11 1.778E+11 3.349E+00 5.964E+03 1.042E+05 6.358E+04 1.738E+05 1.738E+05 1.453E+07 30.8753 1.00000
  1.995E+11 1.995E+11 3.365E+00 6.692E+03 1.169E+05 7.283E+04 1.965E+05 1.965E+05 1.465E+07 31.1056 1.00000
  2.239E+11 2.239E+11 3.381E+00 7.509E+03 1.312E+05 8.344E+04 2.222E+05 2.222E+05 1.477E+07 31.3358 1.00000
  2.512E+11 2.512E+11 3.397E+00 8.426E+03 1.472E+05 9.559E+04 2.512E+05 2.512E+05 1.488E+07 31.5661 1.00000
  2.818E+11 2.818E+11 3.414E+00 9.454E+03 1.652E+05 1.095E+05 2.842E+05 2.842E+05 1.500E+07 31.7963 1.00000
  3.162E+11 3.162E+11 3.430E+00 1.061E+04 1.853E+05 1.255E+05 3.214E+05 3.214E+05 1.511E+07 32.0266 1.00000
  3.548E+11 3.548E+11 3.447E+00 1.190E+04 2.079E+05 1.438E+05 3.636E+05 3.636E+05 1.522E+07 32.2569 1.00000
  3.981E+11 3.981E+11 3.463E+00 1.336E+04 2.333E+05 1.648E+05 4.114E+05 4.114E+05 1.534E+07 32.4871 1.00000
  4.467E+11 4.467E+11 3.480E+00 1.499E+04 2.618E+05 1.888E+05 4.656E+05 4.656E+05 1.545E+07 32.7174 1.00000
  5.012E+11 5.012E+11 3.496E+00 1.682E+04 2.937E+05 2.164E+05 5.269E+05 5.269E+05 1.556E+07 32.9476 1.00000
  5.623E+11 5.623E+11 3.513E+00 1.887E+04 3.295E+05 2.480E+05 5.964E+05 5.964E+05 1.567E+07 33.1779 1.00000
  6.310E+11 6.310E+11 3.530E+00 2.117E+04 3.697E+05 2.842E+05 6.751E+05 6.751E+05 1.578E+07 33.4081 1.00000
  7.079E+11 7.079E+11 3.547E+00 2.376E+04 4.148E+05 3.258E+05 7.643E+05 7.643E+05 1.588E+07 33.6384 1.00000
  7.943E+11 7.943E+11 3.564E+00 2.666E+04 4.654E+05 3.734E+05 8.655E+05 8.655E+05 1.599E+07 33.8687 1.00000
  8.913E+11 8.913E+11 3.582E+00 2.991E+04 5.222E+05 4.281E+05 9.801E+05 9.801E+05 1.609E+07 34.0989 1.00000
  1.000E+12 1.000E+12 3.599E+00 3.356E+04 5.859E+05 4.907E+05 1.110E+06 1.110E+06 1.620E+07 34.3292 1.00000
  1.122E+12 1.122E+12 3.616E+00 3.765E+04 6.573E+05 5.626E+05 1.258E+06 1.258E+06 1.630E+07 34.5594 1.00000
  1.259E+12 1.259E+12 3.634E+00 4.225E+04 7.375E+05 6.450E+05 1.425E+06 1.425E+06 1.641E+07 34.7897 1.00000
  1.413E+12 1.413E+12 3.651E+00 4.741E+04 8.275E+05 7.395E+05 1.614E+06 1.614E+06 1.651E+07 35.0200 1.00000
  1.585E+12 1.585E+12 3.669E+00 5.319E+04 9.284E+05 8.479E+05 1.829E+06 1.829E+06 1.661E+07 35.2502 1.00000
  1.778E+12 1.778E+12 3.687E+00 5.968E+04 1.042E+06 9.723E+05 2.074E+06 2.074E+06 1.671E+07 35.4805 1.00000
  1.995E+12 1.995E+12 3.705E+00 6.696E+04 1.169E+06 1.115E+06 2.351E+06 2.351E+06 1.680E+07 35.7107 1.00000
  2.239E+12 2.239E+12 3.723E+00 7.514E+04 1.311E+06 1.279E+06 2.665E+06 2.665E+06 1.690E+07 35.9410 1.00000
  2.512E+12 2.512E+12 3.741E+00 8.430E+04 1.471E+06 1.466E+06 3.022E+06 3.022E+06 1.700E+07 36.1712 1.00000
  2.818E+12 2.818E+12 3.759E+00 9.459E+04 1.651E+06 1.682E+06 3.427E+06 3.427E+06 1.709E+07 36.4015 1.00000
  3.162E+12 3.162E+12 3.777E+00 1.061E+05 1.852E+06 1.929E+06 3.887E+06 3.887E+06 1.719E+07 36.6318 1.00000
  3.548E+12 3.548E+12 3.796E+00 1.191E+05 2.078E+06 2.212E+06 4.409E+06 4.409E+06 1.728E+07 36.8620 1.00000
  3.981E+12 3.981E+12 3.814E+00 1.336E+05 2.331E+06 2.538E+06 5.003E+06 5.003E+06 1.737E+07 37.0923 1.00000
  4.467E+12 4.467E+12 3.833E+00 1.499E+05 2.616E+06 2.911E+06 5.677E+06 5.677E+06 1.747E+07 37.3225 1.00000
  5.012E+12 5.012E+12 3.851E+00 1.682E+05 2.935E+06 3.340E+06 6.442E+06 6.442E+06 1.756E+07 37.5528 1.00000
  5.623E+12 5.623E+12 3.870E+00 1.887E+05 3.293E+06 3.831E+06 7.312E+06 7.312E+06 1.765E+07 37.7831 1.00000
  6.310E+12 6.310E+12 3.889E+00 2.118E+05 3.694E+06 4.396E+06 8.301E+06 8.301E+06 1.773E+07 38.0133 1.00000
  7.079E+12 7.079E+12 3.908E+00 2.376E+05 4.145E+06 5.043E+06 9.425E+06 9.425E+06 1.782E+07 38.2436 1.00000
  7.943E+12 7.943E+12 3.927E+00 2.666E+05 4.650E+06 5.787E+06 1.070E+07 1.070E+07 1.791E+07 38.4738 1.00000
  8.913E+12 8.913E+12 3.947E+00 2.991E+05 5.217E+06 6.640E+06 1.216E+07 1.216E+07 1.799E+07 38.7041 1.00000
  1.000E+13 1.000E+13 3.966E+00 3.356E+05 5.854E+06 7.619E+06 1.381E+07 1.381E+07 1.808E+07 38.9344 1.00000
  1.122E+13 1.122E+13 3.985E+00 3.766E+05 6.568E+06 8.744E+06 1.569E+07 1.569E+07 1.816E+07 39.1646 1.00000
  1.259E+13 1.259E+13 4.005E+00 4.225E+05 7.369E+06 1.003E+07 1.783E+07 1.783E+07 1.824E+07 39.3949 1.00000
  1.413E+13 1.413E+13 4.024E+00 4.741E+05 8.267E+06 1.152E+07 2.026E+07 2.026E+07 1.832E+07 39.6251 1.00000
  1.585E+13 1.585E+13 4.044E+00 5.320E+05 9.276E+06 1.322E+07 2.303E+07 2.303E+07 1.840E+07 39.8554 1.00000
  1.778E+13 1.778E+13 4.064E+00 5.969E+05 1.041E+07 1.517E+07 2.618E+07 2.618E+07 1.848E+07 40.0856 1.00000
  1.995E+13 1.995E+13 4.084E+00 6.697E+05 1.168E+07 1.741E+07 2.976E+07 2.976E+07 1.856E+07 40.3159 1.00000
  2.239E+13 2.239E+13 4.104E+00 7.514E+05 1.310E+07 1.999E+07 3.384E+07 3.384E+07 1.864E+07 40.5462 1.00000
  2.512E+13 2.512E+13 4.124E+00 8.431E+05 1.470E+07 2.295E+07 3.849E+07 3.849E+07 1.871E+07 40.7764 1.00000
  2.818E+13 2.818E+13 4.144E+00 9.460E+05 1.649E+07 2.635E+07 4.378E+07 4.378E+07 1.879E+07 41.0067 1.00000
  3.162E+13 3.162E+13 4.165E+00 1.061E+06 1.850E+07 3.025E+07 4.981E+07 4.981E+07 1.886E+07 41.2369 1.00000
  3.548E+13 3.548E+13 4.185E+00 1.191E+06 2.076E+07 3.473E+07 5.668E+07 5.668E+07 1.893E+07 41.4672 1.00000
  3.981E+13 3.981E+13 4.206E+00 1.336E+06 2.329E+07 3.987E+07 6.450E+07 6.450E+07 1.901E+07 41.6975 1.00000
  4.467E+13 4.467E+13 4.227E+00 1.499E+06 2.613E+07 4.578E+07 7.341E+07 7.341E+07 1.908E+07 41.9277 1.00000
  5.012E+13 5.012E+13 4.247E+00 1.682E+06 2.932E+07 5.257E+07 8.357E+07 8.357E+07 1.915E+07 42.1580 1.00000
  5.623E+13 5.623E+13 4.268E+00 1.887E+06 3.289E+07 6.037E+07 9.515E+07 9.515E+07 1.921E+07 42.3882 1.00000
  6.310E+13 6.310E+13 4.289E+00 2.118E+06 3.690E+07 6.933E+07 1.083E+08 1.083E+08 1.928E+07 42.6185 1.00000
  7.079E+13 7.079E+13 4.311E+00 2.376E+06 4.140E+07 7.962E+07 1.234E+08 1.234E+08 1.935E+07 42.8487 1.00000
  7.943E+13 7.943E+13 4.332E+00 2.666E+06 4.645E+07 9.145E+07 1.406E+08 1.406E+08 1.941E+07 43.0790 1.00000
  8.913E+13 8.913E+13 4.353E+00 2.991E+06 5.212E+07 1.050E+08 1.601E+08 1.601E+08 1.948E+07 43.3093 1.00000
