 Incident particle is a Tau with M = 1776.82000 MeV
 Index = 0: Tin
      Absorber with <Z/A> = 0.42119
 Sternheimer coef:  a     k=m_s   x_0    x_1    I[eV]   Cbar  delta0
                 0.1869  2.8576  0.2879  3.2959  488.0  5.5340 0.14

 *** Table generated with PUMAS v1.00 ***

      T         p     Ionization  brems     pair     photonuc  Radloss    dE/dx   CSDA Range  delta   beta
    [MeV]    [MeV/c]  -----------------------[MeV cm^2/g]------------------------  [g/cm^2]
  1.000E+05 1.018E+05 1.709E+00 7.086E-04 1.218E-02 7.694E-03 2.058E-02 1.729E+00 2.891E+04  3.2011 0.99985
  1.122E+05 1.140E+05 1.728E+00 8.210E-04 1.459E-02 8.645E-03 2.406E-02 1.752E+00 3.592E+04  3.3709 0.99988
  1.259E+05 1.277E+05 1.746E+00 9.508E-04 1.743E-02 9.664E-03 2.804E-02 1.774E+00 4.369E+04  3.5444 0.99990
  1.413E+05 1.430E+05 1.765E+00 1.100E-03 2.076E-02 1.080E-02 3.266E-02 1.797E+00 5.229E+04  3.7214 0.99992
  1.585E+05 1.603E+05 1.783E+00 1.273E-03 2.466E-02 1.207E-02 3.801E-02 1.821E+00 6.182E+04  3.9019 0.99994
  1.778E+05 1.796E+05 1.801E+00 1.472E-03 2.922E-02 1.348E-02 4.418E-02 1.845E+00 7.237E+04  4.0858 0.99995
  1.995E+05 2.013E+05 1.819E+00 1.700E-03 3.455E-02 1.509E-02 5.134E-02 1.870E+00 8.405E+04  4.2729 0.99996
  2.239E+05 2.256E+05 1.837E+00 1.963E-03 4.076E-02 1.683E-02 5.955E-02 1.896E+00 9.697E+04  4.4631 0.99997
  2.512E+05 2.530E+05 1.854E+00 2.266E-03 4.797E-02 1.877E-02 6.901E-02 1.923E+00 1.113E+05  4.6563 0.99998
  2.818E+05 2.836E+05 1.872E+00 2.614E-03 5.635E-02 2.095E-02 7.991E-02 1.952E+00 1.271E+05  4.8524 0.99998
  3.162E+05 3.180E+05 1.889E+00 3.014E-03 6.605E-02 2.341E-02 9.247E-02 1.982E+00 1.446E+05  5.0513 0.99998
  3.548E+05 3.566E+05 1.906E+00 3.472E-03 7.727E-02 2.615E-02 1.069E-01 2.013E+00 1.639E+05  5.2529 0.99999
  3.981E+05 3.999E+05 1.923E+00 3.999E-03 9.022E-02 2.920E-02 1.234E-01 2.047E+00 1.852E+05  5.4570 0.99999
  4.467E+05 4.485E+05 1.940E+00 4.603E-03 1.052E-01 3.261E-02 1.424E-01 2.082E+00 2.088E+05  5.6636 0.99999
  5.012E+05 5.030E+05 1.956E+00 5.296E-03 1.224E-01 3.644E-02 1.641E-01 2.121E+00 2.347E+05  5.8725 0.99999
  5.623E+05 5.641E+05 1.973E+00 6.090E-03 1.421E-01 4.056E-02 1.888E-01 2.162E+00 2.633E+05  6.0836 1.00000
  6.310E+05 6.327E+05 1.989E+00 6.999E-03 1.649E-01 4.519E-02 2.170E-01 2.206E+00 2.947E+05  6.2968 1.00000
  7.079E+05 7.097E+05 2.005E+00 8.040E-03 1.909E-01 5.041E-02 2.494E-01 2.254E+00 3.292E+05  6.5120 1.00000
  7.943E+05 7.961E+05 2.021E+00 9.232E-03 2.207E-01 5.628E-02 2.863E-01 2.307E+00 3.671E+05  6.7291 1.00000
  8.913E+05 8.930E+05 2.037E+00 1.060E-02 2.549E-01 6.290E-02 3.284E-01 2.365E+00 4.086E+05  6.9479 1.00000
  1.000E+06 1.002E+06 2.052E+00 1.216E-02 2.939E-01 7.038E-02 3.764E-01 2.429E+00 4.540E+05  7.1684 1.00000
  1.122E+06 1.124E+06 2.068E+00 1.394E-02 3.384E-01 7.883E-02 4.312E-01 2.499E+00 5.035E+05  7.3903 1.00000
  1.259E+06 1.261E+06 2.083E+00 1.598E-02 3.892E-01 8.838E-02 4.935E-01 2.576E+00 5.575E+05  7.6137 1.00000
  1.413E+06 1.414E+06 2.098E+00 1.831E-02 4.470E-01 9.919E-02 5.645E-01 2.662E+00 6.161E+05  7.8383 1.00000
  1.585E+06 1.587E+06 2.113E+00 2.097E-02 5.128E-01 1.114E-01 6.452E-01 2.758E+00 6.797E+05  8.0641 1.00000
  1.778E+06 1.780E+06 2.127E+00 2.400E-02 5.876E-01 1.253E-01 7.369E-01 2.864E+00 7.486E+05  8.2909 1.00000
  1.995E+06 1.997E+06 2.142E+00 2.747E-02 6.726E-01 1.410E-01 8.411E-01 2.983E+00 8.228E+05  8.5186 1.00000
  2.239E+06 2.240E+06 2.156E+00 3.142E-02 7.691E-01 1.588E-01 9.593E-01 3.116E+00 9.027E+05  8.7470 1.00000
  2.512E+06 2.514E+06 2.171E+00 3.593E-02 8.785E-01 1.791E-01 1.093E+00 3.264E+00 9.884E+05  8.9761 1.00000
  2.818E+06 2.820E+06 2.185E+00 4.107E-02 1.002E+00 2.021E-01 1.246E+00 3.430E+00 1.080E+06  9.2057 1.00000
  3.162E+06 3.164E+06 2.199E+00 4.692E-02 1.143E+00 2.282E-01 1.418E+00 3.617E+00 1.178E+06  9.4356 1.00000
  3.548E+06 3.550E+06 2.212E+00 5.360E-02 1.302E+00 2.579E-01 1.613E+00 3.826E+00 1.281E+06  9.6657 1.00000
  3.981E+06 3.983E+06 2.226E+00 6.120E-02 1.481E+00 2.917E-01 1.834E+00 4.060E+00 1.391E+06  9.8959 1.00000
  4.467E+06 4.469E+06 2.240E+00 6.985E-02 1.684E+00 3.301E-01 2.084E+00 4.324E+00 1.507E+06 10.1260 1.00000
  5.012E+06 5.014E+06 2.253E+00 7.970E-02 1.914E+00 3.738E-01 2.367E+00 4.620E+00 1.629E+06 10.3562 1.00000
  5.623E+06 5.625E+06 2.266E+00 9.091E-02 2.172E+00 4.235E-01 2.687E+00 4.953E+00 1.757E+06 10.5864 1.00000
  6.310E+06 6.311E+06 2.279E+00 1.037E-01 2.464E+00 4.801E-01 3.048E+00 5.328E+00 1.891E+06 10.8166 1.00000
  7.079E+06 7.081E+06 2.292E+00 1.182E-01 2.794E+00 5.446E-01 3.457E+00 5.749E+00 2.030E+06 11.0468 1.00000
  7.943E+06 7.945E+06 2.305E+00 1.346E-01 3.165E+00 6.180E-01 3.918E+00 6.223E+00 2.175E+06 11.2770 1.00000
  8.913E+06 8.914E+06 2.318E+00 1.534E-01 3.584E+00 7.017E-01 4.439E+00 6.757E+00 2.324E+06 11.5072 1.00000
  1.000E+07 1.000E+07 2.330E+00 1.746E-01 4.055E+00 7.971E-01 5.027E+00 7.358E+00 2.479E+06 11.7374 1.00000
  1.122E+07 1.122E+07 2.343E+00 1.988E-01 4.587E+00 9.057E-01 5.691E+00 8.034E+00 2.638E+06 11.9676 1.00000
  1.259E+07 1.259E+07 2.355E+00 2.262E-01 5.184E+00 1.030E+00 6.440E+00 8.796E+00 2.801E+06 12.1978 1.00000
  1.413E+07 1.413E+07 2.368E+00 2.573E-01 5.857E+00 1.171E+00 7.285E+00 9.653E+00 2.967E+06 12.4281 1.00000
  1.585E+07 1.585E+07 2.380E+00 2.926E-01 6.614E+00 1.332E+00 8.239E+00 1.062E+01 3.138E+06 12.6583 1.00000
  1.778E+07 1.778E+07 2.392E+00 3.327E-01 7.466E+00 1.516E+00 9.314E+00 1.171E+01 3.312E+06 12.8885 1.00000
  1.995E+07 1.995E+07 2.404E+00 3.781E-01 8.424E+00 1.725E+00 1.053E+01 1.293E+01 3.488E+06 13.1188 1.00000
  2.239E+07 2.239E+07 2.416E+00 4.296E-01 9.501E+00 1.964E+00 1.189E+01 1.431E+01 3.667E+06 13.3490 1.00000
  2.512E+07 2.512E+07 2.428E+00 4.879E-01 1.071E+01 2.237E+00 1.344E+01 1.586E+01 3.849E+06 13.5792 1.00000
  2.818E+07 2.819E+07 2.440E+00 5.540E-01 1.207E+01 2.548E+00 1.517E+01 1.761E+01 4.032E+06 13.8095 1.00000
  3.162E+07 3.162E+07 2.451E+00 6.288E-01 1.360E+01 2.903E+00 1.713E+01 1.958E+01 4.218E+06 14.0397 1.00000
  3.548E+07 3.548E+07 2.463E+00 7.135E-01 1.532E+01 3.308E+00 1.934E+01 2.180E+01 4.405E+06 14.2700 1.00000
  3.981E+07 3.981E+07 2.475E+00 8.093E-01 1.725E+01 3.770E+00 2.183E+01 2.430E+01 4.593E+06 14.5002 1.00000
  4.467E+07 4.467E+07 2.487E+00 9.178E-01 1.942E+01 4.298E+00 2.463E+01 2.712E+01 4.783E+06 14.7305 1.00000
  5.012E+07 5.012E+07 2.498E+00 1.040E+00 2.185E+01 4.900E+00 2.780E+01 3.029E+01 4.973E+06 14.9607 1.00000
  5.623E+07 5.624E+07 2.510E+00 1.179E+00 2.459E+01 5.587E+00 3.136E+01 3.387E+01 5.164E+06 15.1910 1.00000
  6.310E+07 6.310E+07 2.522E+00 1.336E+00 2.766E+01 6.372E+00 3.537E+01 3.789E+01 5.356E+06 15.4212 1.00000
  7.079E+07 7.080E+07 2.533E+00 1.513E+00 3.111E+01 7.268E+00 3.989E+01 4.243E+01 5.549E+06 15.6515 1.00000
  7.943E+07 7.943E+07 2.545E+00 1.713E+00 3.499E+01 8.292E+00 4.499E+01 4.754E+01 5.741E+06 15.8817 1.00000
  8.913E+07 8.913E+07 2.557E+00 1.939E+00 3.934E+01 9.460E+00 5.074E+01 5.329E+01 5.934E+06 16.1120 1.00000
  1.000E+08 1.000E+08 2.569E+00 2.194E+00 4.422E+01 1.079E+01 5.721E+01 5.978E+01 6.127E+06 16.3422 1.00000
  1.122E+08 1.122E+08 2.580E+00 2.482E+00 4.970E+01 1.232E+01 6.450E+01 6.708E+01 6.320E+06 16.5725 1.00000
  1.259E+08 1.259E+08 2.592E+00 2.807E+00 5.585E+01 1.406E+01 7.272E+01 7.531E+01 6.513E+06 16.8027 1.00000
  1.413E+08 1.413E+08 2.604E+00 3.173E+00 6.276E+01 1.605E+01 8.198E+01 8.458E+01 6.706E+06 17.0330 1.00000
  1.585E+08 1.585E+08 2.616E+00 3.586E+00 7.052E+01 1.832E+01 9.242E+01 9.503E+01 6.898E+06 17.2633 1.00000
  1.778E+08 1.778E+08 2.628E+00 4.052E+00 7.922E+01 2.091E+01 1.042E+02 1.068E+02 7.091E+06 17.4935 1.00000
  1.995E+08 1.995E+08 2.640E+00 4.578E+00 8.899E+01 2.387E+01 1.174E+02 1.201E+02 7.283E+06 17.7238 1.00000
  2.239E+08 2.239E+08 2.652E+00 5.169E+00 9.995E+01 2.726E+01 1.324E+02 1.350E+02 7.474E+06 17.9540 1.00000
  2.512E+08 2.512E+08 2.664E+00 5.836E+00 1.123E+02 3.112E+01 1.492E+02 1.519E+02 7.665E+06 18.1843 1.00000
  2.818E+08 2.818E+08 2.676E+00 6.587E+00 1.261E+02 3.554E+01 1.682E+02 1.709E+02 7.856E+06 18.4145 1.00000
  3.162E+08 3.162E+08 2.688E+00 7.433E+00 1.416E+02 4.059E+01 1.896E+02 1.923E+02 8.046E+06 18.6448 1.00000
  3.548E+08 3.548E+08 2.700E+00 8.385E+00 1.589E+02 4.635E+01 2.137E+02 2.164E+02 8.235E+06 18.8751 1.00000
  3.981E+08 3.981E+08 2.713E+00 9.456E+00 1.785E+02 5.295E+01 2.409E+02 2.436E+02 8.424E+06 19.1053 1.00000
  4.467E+08 4.467E+08 2.725E+00 1.066E+01 2.004E+02 6.048E+01 2.715E+02 2.742E+02 8.613E+06 19.3356 1.00000
  5.012E+08 5.012E+08 2.737E+00 1.202E+01 2.249E+02 6.908E+01 3.060E+02 3.088E+02 8.800E+06 19.5658 1.00000
  5.623E+08 5.623E+08 2.750E+00 1.355E+01 2.525E+02 7.892E+01 3.450E+02 3.477E+02 8.987E+06 19.7961 1.00000
  6.310E+08 6.310E+08 2.762E+00 1.526E+01 2.835E+02 9.017E+01 3.889E+02 3.916E+02 9.173E+06 20.0263 1.00000
  7.079E+08 7.079E+08 2.775E+00 1.719E+01 3.182E+02 1.030E+02 4.384E+02 4.412E+02 9.359E+06 20.2566 1.00000
  7.943E+08 7.943E+08 2.787E+00 1.937E+01 3.571E+02 1.177E+02 4.942E+02 4.970E+02 9.544E+06 20.4869 1.00000
  8.913E+08 8.913E+08 2.800E+00 2.181E+01 4.009E+02 1.345E+02 5.572E+02 5.600E+02 9.728E+06 20.7171 1.00000
  1.000E+09 1.000E+09 2.813E+00 2.455E+01 4.499E+02 1.537E+02 6.282E+02 6.310E+02 9.911E+06 20.9474 1.00000
  1.122E+09 1.122E+09 2.826E+00 2.764E+01 5.050E+02 1.757E+02 7.083E+02 7.111E+02 1.009E+07 21.1776 1.00000
  1.259E+09 1.259E+09 2.839E+00 3.110E+01 5.667E+02 2.008E+02 7.986E+02 8.014E+02 1.028E+07 21.4079 1.00000
  1.413E+09 1.413E+09 2.852E+00 3.500E+01 6.360E+02 2.295E+02 9.005E+02 9.033E+02 1.046E+07 21.6381 1.00000
  1.585E+09 1.585E+09 2.865E+00 3.937E+01 7.138E+02 2.623E+02 1.015E+03 1.018E+03 1.064E+07 21.8684 1.00000
  1.778E+09 1.778E+09 2.878E+00 4.429E+01 8.011E+02 2.998E+02 1.145E+03 1.148E+03 1.082E+07 22.0987 1.00000
  1.995E+09 1.995E+09 2.891E+00 4.981E+01 8.990E+02 3.427E+02 1.291E+03 1.294E+03 1.099E+07 22.3289 1.00000
  2.239E+09 2.239E+09 2.904E+00 5.601E+01 1.009E+03 3.918E+02 1.457E+03 1.460E+03 1.117E+07 22.5592 1.00000
  2.512E+09 2.512E+09 2.918E+00 6.298E+01 1.132E+03 4.479E+02 1.643E+03 1.646E+03 1.135E+07 22.7894 1.00000
  2.818E+09 2.818E+09 2.931E+00 7.080E+01 1.270E+03 5.121E+02 1.853E+03 1.856E+03 1.152E+07 23.0197 1.00000
  3.162E+09 3.162E+09 2.944E+00 7.959E+01 1.426E+03 5.855E+02 2.091E+03 2.094E+03 1.170E+07 23.2500 1.00000
  3.548E+09 3.548E+09 2.958E+00 8.945E+01 1.600E+03 6.695E+02 2.359E+03 2.362E+03 1.187E+07 23.4802 1.00000
  3.981E+09 3.981E+09 2.972E+00 1.005E+02 1.795E+03 7.656E+02 2.661E+03 2.664E+03 1.204E+07 23.7105 1.00000
  4.467E+09 4.467E+09 2.985E+00 1.130E+02 2.014E+03 8.755E+02 3.003E+03 3.006E+03 1.222E+07 23.9407 1.00000
  5.012E+09 5.012E+09 2.999E+00 1.269E+02 2.260E+03 1.001E+03 3.388E+03 3.391E+03 1.239E+07 24.1710 1.00000
  5.623E+09 5.623E+09 3.013E+00 1.426E+02 2.536E+03 1.145E+03 3.824E+03 3.827E+03 1.256E+07 24.4012 1.00000
  6.310E+09 6.310E+09 3.027E+00 1.602E+02 2.846E+03 1.310E+03 4.316E+03 4.319E+03 1.273E+07 24.6315 1.00000
  7.079E+09 7.079E+09 3.041E+00 1.799E+02 3.193E+03 1.498E+03 4.871E+03 4.874E+03 1.290E+07 24.8618 1.00000
  7.943E+09 7.943E+09 3.055E+00 2.021E+02 3.583E+03 1.714E+03 5.499E+03 5.502E+03 1.306E+07 25.0920 1.00000
  8.913E+09 8.913E+09 3.069E+00 2.270E+02 4.020E+03 1.960E+03 6.207E+03 6.210E+03 1.323E+07 25.3223 1.00000
  1.000E+10 1.000E+10 3.084E+00 2.549E+02 4.511E+03 2.242E+03 7.008E+03 7.011E+03 1.339E+07 25.5525 1.00000
  1.122E+10 1.122E+10 3.098E+00 2.863E+02 5.062E+03 2.565E+03 7.913E+03 7.916E+03 1.356E+07 25.7828 1.00000
  1.259E+10 1.259E+10 3.112E+00 3.214E+02 5.679E+03 2.935E+03 8.936E+03 8.939E+03 1.372E+07 26.0131 1.00000
  1.413E+10 1.413E+10 3.127E+00 3.609E+02 6.372E+03 3.358E+03 1.009E+04 1.009E+04 1.388E+07 26.2433 1.00000
  1.585E+10 1.585E+10 3.141E+00 4.052E+02 7.150E+03 3.843E+03 1.140E+04 1.140E+04 1.404E+07 26.4736 1.00000
  1.778E+10 1.778E+10 3.156E+00 4.549E+02 8.022E+03 4.397E+03 1.287E+04 1.288E+04 1.420E+07 26.7038 1.00000
  1.995E+10 1.995E+10 3.171E+00 5.107E+02 9.001E+03 5.032E+03 1.454E+04 1.455E+04 1.436E+07 26.9341 1.00000
  2.239E+10 2.239E+10 3.186E+00 5.733E+02 1.010E+04 5.758E+03 1.643E+04 1.643E+04 1.452E+07 27.1644 1.00000
  2.512E+10 2.512E+10 3.201E+00 6.436E+02 1.133E+04 6.590E+03 1.857E+04 1.857E+04 1.468E+07 27.3946 1.00000
  2.818E+10 2.818E+10 3.216E+00 7.225E+02 1.271E+04 7.543E+03 2.098E+04 2.098E+04 1.483E+07 27.6249 1.00000
  3.162E+10 3.162E+10 3.231E+00 8.109E+02 1.427E+04 8.633E+03 2.371E+04 2.371E+04 1.499E+07 27.8551 1.00000
  3.548E+10 3.548E+10 3.246E+00 9.102E+02 1.601E+04 9.882E+03 2.680E+04 2.680E+04 1.514E+07 28.0854 1.00000
  3.981E+10 3.981E+10 3.261E+00 1.022E+03 1.796E+04 1.131E+04 3.029E+04 3.030E+04 1.529E+07 28.3156 1.00000
  4.467E+10 4.467E+10 3.276E+00 1.147E+03 2.015E+04 1.295E+04 3.425E+04 3.425E+04 1.544E+07 28.5459 1.00000
  5.012E+10 5.012E+10 3.292E+00 1.287E+03 2.261E+04 1.483E+04 3.872E+04 3.872E+04 1.559E+07 28.7762 1.00000
  5.623E+10 5.623E+10 3.307E+00 1.444E+03 2.537E+04 1.697E+04 4.379E+04 4.379E+04 1.574E+07 29.0064 1.00000
  6.310E+10 6.310E+10 3.323E+00 1.621E+03 2.846E+04 1.943E+04 4.952E+04 4.952E+04 1.589E+07 29.2367 1.00000
  7.079E+10 7.079E+10 3.339E+00 1.819E+03 3.194E+04 2.225E+04 5.601E+04 5.601E+04 1.604E+07 29.4669 1.00000
  7.943E+10 7.943E+10 3.354E+00 2.042E+03 3.583E+04 2.548E+04 6.335E+04 6.336E+04 1.618E+07 29.6972 1.00000
  8.913E+10 8.913E+10 3.370E+00 2.291E+03 4.020E+04 2.918E+04 7.167E+04 7.167E+04 1.633E+07 29.9275 1.00000
  1.000E+11 1.000E+11 3.386E+00 2.571E+03 4.511E+04 3.341E+04 8.109E+04 8.109E+04 1.647E+07 30.1577 1.00000
  1.122E+11 1.122E+11 3.402E+00 2.885E+03 5.061E+04 3.827E+04 9.176E+04 9.176E+04 1.661E+07 30.3880 1.00000
  1.259E+11 1.259E+11 3.418E+00 3.238E+03 5.678E+04 4.383E+04 1.038E+05 1.039E+05 1.675E+07 30.6182 1.00000
  1.413E+11 1.413E+11 3.435E+00 3.633E+03 6.371E+04 5.020E+04 1.175E+05 1.175E+05 1.689E+07 30.8485 1.00000
  1.585E+11 1.585E+11 3.451E+00 4.077E+03 7.148E+04 5.750E+04 1.331E+05 1.331E+05 1.703E+07 31.0787 1.00000
  1.778E+11 1.778E+11 3.467E+00 4.575E+03 8.020E+04 6.586E+04 1.506E+05 1.506E+05 1.716E+07 31.3090 1.00000
  1.995E+11 1.995E+11 3.484E+00 5.134E+03 8.999E+04 7.545E+04 1.706E+05 1.706E+05 1.730E+07 31.5393 1.00000
  2.239E+11 2.239E+11 3.500E+00 5.761E+03 1.010E+05 8.643E+04 1.932E+05 1.932E+05 1.743E+07 31.7695 1.00000
  2.512E+11 2.512E+11 3.517E+00 6.464E+03 1.133E+05 9.902E+04 2.188E+05 2.188E+05 1.757E+07 31.9998 1.00000
  2.818E+11 2.818E+11 3.534E+00 7.253E+03 1.271E+05 1.135E+05 2.478E+05 2.478E+05 1.770E+07 32.2300 1.00000
  3.162E+11 3.162E+11 3.551E+00 8.139E+03 1.426E+05 1.300E+05 2.807E+05 2.807E+05 1.783E+07 32.4603 1.00000
  3.548E+11 3.548E+11 3.568E+00 9.133E+03 1.600E+05 1.489E+05 3.181E+05 3.181E+05 1.796E+07 32.6906 1.00000
  3.981E+11 3.981E+11 3.585E+00 1.025E+04 1.795E+05 1.707E+05 3.604E+05 3.604E+05 1.809E+07 32.9208 1.00000
  4.467E+11 4.467E+11 3.602E+00 1.150E+04 2.014E+05 1.956E+05 4.085E+05 4.085E+05 1.821E+07 33.1511 1.00000
  5.012E+11 5.012E+11 3.619E+00 1.290E+04 2.260E+05 2.241E+05 4.630E+05 4.630E+05 1.834E+07 33.3813 1.00000
  5.623E+11 5.623E+11 3.637E+00 1.448E+04 2.535E+05 2.569E+05 5.249E+05 5.249E+05 1.846E+07 33.6116 1.00000
  6.310E+11 6.310E+11 3.654E+00 1.624E+04 2.845E+05 2.944E+05 5.952E+05 5.952E+05 1.859E+07 33.8418 1.00000
  7.079E+11 7.079E+11 3.672E+00 1.823E+04 3.192E+05 3.375E+05 6.749E+05 6.749E+05 1.871E+07 34.0721 1.00000
  7.943E+11 7.943E+11 3.689E+00 2.045E+04 3.581E+05 3.868E+05 7.654E+05 7.654E+05 1.883E+07 34.3024 1.00000
  8.913E+11 8.913E+11 3.707E+00 2.295E+04 4.018E+05 4.434E+05 8.682E+05 8.682E+05 1.895E+07 34.5326 1.00000
  1.000E+12 1.000E+12 3.725E+00 2.575E+04 4.508E+05 5.083E+05 9.849E+05 9.849E+05 1.907E+07 34.7629 1.00000
  1.122E+12 1.122E+12 3.743E+00 2.889E+04 5.058E+05 5.828E+05 1.117E+06 1.117E+06 1.918E+07 34.9931 1.00000
  1.259E+12 1.259E+12 3.761E+00 3.242E+04 5.675E+05 6.681E+05 1.268E+06 1.268E+06 1.930E+07 35.2234 1.00000
  1.413E+12 1.413E+12 3.779E+00 3.637E+04 6.367E+05 7.661E+05 1.439E+06 1.439E+06 1.941E+07 35.4537 1.00000
  1.585E+12 1.585E+12 3.797E+00 4.081E+04 7.144E+05 8.784E+05 1.634E+06 1.634E+06 1.953E+07 35.6839 1.00000
  1.778E+12 1.778E+12 3.816E+00 4.579E+04 8.015E+05 1.007E+06 1.854E+06 1.854E+06 1.964E+07 35.9142 1.00000
  1.995E+12 1.995E+12 3.834E+00 5.138E+04 8.993E+05 1.155E+06 2.106E+06 2.106E+06 1.975E+07 36.1444 1.00000
  2.239E+12 2.239E+12 3.853E+00 5.765E+04 1.009E+06 1.324E+06 2.391E+06 2.391E+06 1.986E+07 36.3747 1.00000
  2.512E+12 2.512E+12 3.871E+00 6.468E+04 1.132E+06 1.519E+06 2.716E+06 2.716E+06 1.996E+07 36.6049 1.00000
  2.818E+12 2.818E+12 3.890E+00 7.258E+04 1.270E+06 1.742E+06 3.085E+06 3.085E+06 2.007E+07 36.8352 1.00000
  3.162E+12 3.162E+12 3.909E+00 8.143E+04 1.425E+06 1.998E+06 3.504E+06 3.504E+06 2.017E+07 37.0655 1.00000
  3.548E+12 3.548E+12 3.928E+00 9.137E+04 1.599E+06 2.292E+06 3.982E+06 3.982E+06 2.028E+07 37.2957 1.00000
  3.981E+12 3.981E+12 3.947E+00 1.025E+05 1.794E+06 2.629E+06 4.525E+06 4.525E+06 2.038E+07 37.5260 1.00000
  4.467E+12 4.467E+12 3.966E+00 1.150E+05 2.013E+06 3.016E+06 5.143E+06 5.143E+06 2.048E+07 37.7562 1.00000
  5.012E+12 5.012E+12 3.985E+00 1.291E+05 2.258E+06 3.459E+06 5.847E+06 5.847E+06 2.058E+07 37.9865 1.00000
  5.623E+12 5.623E+12 4.005E+00 1.448E+05 2.533E+06 3.969E+06 6.647E+06 6.647E+06 2.068E+07 38.2168 1.00000
  6.310E+12 6.310E+12 4.024E+00 1.625E+05 2.842E+06 4.553E+06 7.558E+06 7.558E+06 2.078E+07 38.4470 1.00000
  7.079E+12 7.079E+12 4.044E+00 1.823E+05 3.189E+06 5.224E+06 8.596E+06 8.596E+06 2.087E+07 38.6773 1.00000
  7.943E+12 7.943E+12 4.064E+00 2.046E+05 3.578E+06 5.994E+06 9.777E+06 9.777E+06 2.097E+07 38.9075 1.00000
  8.913E+12 8.913E+12 4.083E+00 2.295E+05 4.015E+06 6.878E+06 1.112E+07 1.112E+07 2.106E+07 39.1378 1.00000
  1.000E+13 1.000E+13 4.103E+00 2.575E+05 4.504E+06 7.893E+06 1.265E+07 1.265E+07 2.115E+07 39.3681 1.00000
  1.122E+13 1.122E+13 4.123E+00 2.889E+05 5.053E+06 9.058E+06 1.440E+07 1.440E+07 2.124E+07 39.5983 1.00000
  1.259E+13 1.259E+13 4.143E+00 3.242E+05 5.670E+06 1.040E+07 1.639E+07 1.639E+07 2.133E+07 39.8286 1.00000
  1.413E+13 1.413E+13 4.164E+00 3.638E+05 6.361E+06 1.193E+07 1.866E+07 1.866E+07 2.142E+07 40.0588 1.00000
  1.585E+13 1.585E+13 4.184E+00 4.082E+05 7.137E+06 1.369E+07 2.124E+07 2.124E+07 2.151E+07 40.2891 1.00000
  1.778E+13 1.778E+13 4.205E+00 4.580E+05 8.008E+06 1.572E+07 2.418E+07 2.418E+07 2.159E+07 40.5193 1.00000
  1.995E+13 1.995E+13 4.225E+00 5.138E+05 8.984E+06 1.804E+07 2.754E+07 2.754E+07 2.167E+07 40.7496 1.00000
  2.239E+13 2.239E+13 4.246E+00 5.765E+05 1.008E+07 2.071E+07 3.137E+07 3.137E+07 2.176E+07 40.9799 1.00000
  2.512E+13 2.512E+13 4.267E+00 6.469E+05 1.131E+07 2.377E+07 3.573E+07 3.573E+07 2.184E+07 41.2101 1.00000
  2.818E+13 2.818E+13 4.288E+00 7.258E+05 1.269E+07 2.729E+07 4.071E+07 4.071E+07 2.192E+07 41.4404 1.00000
  3.162E+13 3.162E+13 4.309E+00 8.144E+05 1.424E+07 3.133E+07 4.638E+07 4.638E+07 2.200E+07 41.6706 1.00000
  3.548E+13 3.548E+13 4.330E+00 9.137E+05 1.597E+07 3.597E+07 5.286E+07 5.286E+07 2.208E+07 41.9009 1.00000
  3.981E+13 3.981E+13 4.351E+00 1.025E+06 1.792E+07 4.130E+07 6.025E+07 6.025E+07 2.215E+07 42.1312 1.00000
  4.467E+13 4.467E+13 4.372E+00 1.150E+06 2.011E+07 4.743E+07 6.868E+07 6.868E+07 2.223E+07 42.3614 1.00000
  5.012E+13 5.012E+13 4.394E+00 1.291E+06 2.256E+07 5.446E+07 7.831E+07 7.831E+07 2.230E+07 42.5917 1.00000
  5.623E+13 5.623E+13 4.415E+00 1.448E+06 2.531E+07 6.254E+07 8.930E+07 8.930E+07 2.238E+07 42.8219 1.00000
  6.310E+13 6.310E+13 4.437E+00 1.625E+06 2.839E+07 7.182E+07 1.018E+08 1.018E+08 2.245E+07 43.0522 1.00000
  7.079E+13 7.079E+13 4.459E+00 1.823E+06 3.186E+07 8.248E+07 1.162E+08 1.162E+08 2.252E+07 43.2824 1.00000
  7.943E+13 7.943E+13 4.481E+00 2.046E+06 3.574E+07 9.473E+07 1.325E+08 1.325E+08 2.259E+07 43.5127 1.00000
  8.913E+13 8.913E+13 4.503E+00 2.295E+06 4.010E+07 1.088E+08 1.512E+08 1.512E+08 2.266E+07 43.7430 1.00000
