 Incident particle is a Tau with M = 1776.82000 MeV
 Index = 0: TissueEquivalentGasMethaneBased
      Absorber with <Z/A> = 0.54985
 Sternheimer coef:  a     k=m_s   x_0    x_1    I[eV]   Cbar  delta0
                 0.0995  3.4708  1.6442  4.1399   61.2  9.9500 0.00

 *** Table generated with PUMAS v1.00 ***

      T         p     Ionization  brems     pair     photonuc  Radloss    dE/dx   CSDA Range  delta   beta
    [MeV]    [MeV/c]  -----------------------[MeV cm^2/g]------------------------  [g/cm^2]
  1.000E+05 1.018E+05 2.838E+00 1.285E-04 2.000E-03 8.408E-03 1.054E-02 2.848E+00 1.756E+04  0.1690 0.99985
  1.122E+05 1.140E+05 2.869E+00 1.484E-04 2.417E-03 9.500E-03 1.206E-02 2.881E+00 2.181E+04  0.2542 0.99988
  1.259E+05 1.277E+05 2.900E+00 1.713E-04 2.909E-03 1.068E-02 1.376E-02 2.914E+00 2.654E+04  0.3467 0.99990
  1.413E+05 1.430E+05 2.931E+00 1.977E-04 3.490E-03 1.200E-02 1.569E-02 2.947E+00 3.178E+04  0.4463 0.99992
  1.585E+05 1.603E+05 2.961E+00 2.280E-04 4.173E-03 1.349E-02 1.789E-02 2.979E+00 3.760E+04  0.5529 0.99994
  1.778E+05 1.796E+05 2.991E+00 2.629E-04 4.975E-03 1.515E-02 2.039E-02 3.011E+00 4.406E+04  0.6662 0.99995
  1.995E+05 2.013E+05 3.020E+00 3.030E-04 5.915E-03 1.704E-02 2.326E-02 3.043E+00 5.123E+04  0.7860 0.99996
  2.239E+05 2.256E+05 3.048E+00 3.490E-04 7.014E-03 1.911E-02 2.648E-02 3.075E+00 5.919E+04  0.9121 0.99997
  2.512E+05 2.530E+05 3.076E+00 4.018E-04 8.297E-03 2.144E-02 3.013E-02 3.106E+00 6.802E+04  1.0443 0.99998
  2.818E+05 2.836E+05 3.104E+00 4.625E-04 9.791E-03 2.405E-02 3.431E-02 3.138E+00 7.784E+04  1.1824 0.99998
  3.162E+05 3.180E+05 3.131E+00 5.321E-04 1.153E-02 2.701E-02 3.907E-02 3.170E+00 8.874E+04  1.3262 0.99998
  3.548E+05 3.566E+05 3.158E+00 6.119E-04 1.355E-02 3.034E-02 4.450E-02 3.202E+00 1.009E+05  1.4754 0.99999
  3.981E+05 3.999E+05 3.184E+00 7.034E-04 1.589E-02 3.405E-02 5.064E-02 3.235E+00 1.143E+05  1.6298 0.99999
  4.467E+05 4.485E+05 3.210E+00 8.083E-04 1.859E-02 3.822E-02 5.762E-02 3.268E+00 1.292E+05  1.7894 0.99999
  5.012E+05 5.030E+05 3.235E+00 9.285E-04 2.172E-02 4.291E-02 6.556E-02 3.301E+00 1.458E+05  1.9537 0.99999
  5.623E+05 5.641E+05 3.260E+00 1.066E-03 2.534E-02 4.800E-02 7.440E-02 3.335E+00 1.643E+05  2.1227 1.00000
  6.310E+05 6.327E+05 3.285E+00 1.224E-03 2.950E-02 5.373E-02 8.446E-02 3.369E+00 1.847E+05  2.2962 1.00000
  7.079E+05 7.097E+05 3.309E+00 1.405E-03 3.430E-02 6.021E-02 9.591E-02 3.405E+00 2.075E+05  2.4739 1.00000
  7.943E+05 7.961E+05 3.333E+00 1.611E-03 3.982E-02 6.752E-02 1.090E-01 3.442E+00 2.327E+05  2.6556 1.00000
  8.913E+05 8.930E+05 3.356E+00 1.848E-03 4.616E-02 7.579E-02 1.238E-01 3.480E+00 2.607E+05  2.8412 1.00000
  1.000E+06 1.002E+06 3.379E+00 2.119E-03 5.344E-02 8.515E-02 1.407E-01 3.520E+00 2.918E+05  3.0305 1.00000
  1.122E+06 1.124E+06 3.402E+00 2.428E-03 6.178E-02 9.574E-02 1.599E-01 3.562E+00 3.263E+05  3.2232 1.00000
  1.259E+06 1.261E+06 3.424E+00 2.782E-03 7.133E-02 1.077E-01 1.818E-01 3.606E+00 3.645E+05  3.4193 1.00000
  1.413E+06 1.414E+06 3.446E+00 3.187E-03 8.225E-02 1.213E-01 2.068E-01 3.652E+00 4.068E+05  3.6185 1.00000
  1.585E+06 1.587E+06 3.467E+00 3.650E-03 9.473E-02 1.368E-01 2.351E-01 3.702E+00 4.537E+05  3.8206 1.00000
  1.778E+06 1.780E+06 3.488E+00 4.180E-03 1.090E-01 1.543E-01 2.674E-01 3.755E+00 5.055E+05  4.0255 1.00000
  1.995E+06 1.997E+06 3.509E+00 4.784E-03 1.252E-01 1.741E-01 3.042E-01 3.813E+00 5.629E+05  4.2330 1.00000
  2.239E+06 2.240E+06 3.529E+00 5.475E-03 1.437E-01 1.967E-01 3.459E-01 3.875E+00 6.262E+05  4.4430 1.00000
  2.512E+06 2.514E+06 3.549E+00 6.264E-03 1.648E-01 2.224E-01 3.934E-01 3.942E+00 6.961E+05  4.6552 1.00000
  2.818E+06 2.820E+06 3.569E+00 7.165E-03 1.888E-01 2.515E-01 4.475E-01 4.016E+00 7.731E+05  4.8695 1.00000
  3.162E+06 3.164E+06 3.588E+00 8.193E-03 2.160E-01 2.847E-01 5.089E-01 4.097E+00 8.579E+05  5.0858 1.00000
  3.548E+06 3.550E+06 3.607E+00 9.367E-03 2.469E-01 3.224E-01 5.787E-01 4.186E+00 9.511E+05  5.3039 1.00000
  3.981E+06 3.983E+06 3.626E+00 1.071E-02 2.820E-01 3.653E-01 6.581E-01 4.284E+00 1.053E+06  5.5236 1.00000
  4.467E+06 4.469E+06 3.644E+00 1.223E-02 3.218E-01 4.142E-01 7.482E-01 4.392E+00 1.165E+06  5.7449 1.00000
  5.012E+06 5.014E+06 3.662E+00 1.398E-02 3.669E-01 4.698E-01 8.507E-01 4.513E+00 1.288E+06  5.9676 1.00000
  5.623E+06 5.625E+06 3.680E+00 1.596E-02 4.180E-01 5.331E-01 9.671E-01 4.647E+00 1.421E+06  6.1914 1.00000
  6.310E+06 6.311E+06 3.698E+00 1.823E-02 4.757E-01 6.053E-01 1.099E+00 4.797E+00 1.567E+06  6.4164 1.00000
  7.079E+06 7.081E+06 3.715E+00 2.081E-02 5.411E-01 6.874E-01 1.249E+00 4.964E+00 1.724E+06  6.6424 1.00000
  7.943E+06 7.945E+06 3.732E+00 2.375E-02 6.149E-01 7.811E-01 1.420E+00 5.152E+00 1.895E+06  6.8693 1.00000
  8.913E+06 8.914E+06 3.749E+00 2.710E-02 6.984E-01 8.878E-01 1.613E+00 5.362E+00 2.080E+06  7.0969 1.00000
  1.000E+07 1.000E+07 3.765E+00 3.091E-02 7.926E-01 1.009E+00 1.833E+00 5.598E+00 2.278E+06  7.3252 1.00000
  1.122E+07 1.122E+07 3.782E+00 3.525E-02 8.989E-01 1.148E+00 2.082E+00 5.864E+00 2.491E+06  7.5539 1.00000
  1.259E+07 1.259E+07 3.798E+00 4.019E-02 1.019E+00 1.306E+00 2.365E+00 6.163E+00 2.719E+06  7.7832 1.00000
  1.413E+07 1.413E+07 3.814E+00 4.581E-02 1.154E+00 1.486E+00 2.686E+00 6.501E+00 2.962E+06  8.0128 1.00000
  1.585E+07 1.585E+07 3.830E+00 5.220E-02 1.307E+00 1.692E+00 3.051E+00 6.881E+00 3.220E+06  8.2426 1.00000
  1.778E+07 1.778E+07 3.846E+00 5.946E-02 1.478E+00 1.927E+00 3.465E+00 7.310E+00 3.492E+06  8.4726 1.00000
  1.995E+07 1.995E+07 3.862E+00 6.772E-02 1.672E+00 2.194E+00 3.934E+00 7.795E+00 3.780E+06  8.7028 1.00000
  2.239E+07 2.239E+07 3.877E+00 7.710E-02 1.890E+00 2.499E+00 4.466E+00 8.344E+00 4.082E+06  8.9330 1.00000
  2.512E+07 2.512E+07 3.893E+00 8.775E-02 2.135E+00 2.848E+00 5.071E+00 8.963E+00 4.398E+06  9.1632 1.00000
  2.818E+07 2.819E+07 3.908E+00 9.986E-02 2.411E+00 3.245E+00 5.756E+00 9.664E+00 4.728E+06  9.3935 1.00000
  3.162E+07 3.162E+07 3.924E+00 1.136E-01 2.722E+00 3.698E+00 6.534E+00 1.046E+01 5.070E+06  9.6237 1.00000
  3.548E+07 3.548E+07 3.939E+00 1.292E-01 3.071E+00 4.216E+00 7.417E+00 1.136E+01 5.424E+06  9.8540 1.00000
  3.981E+07 3.981E+07 3.954E+00 1.469E-01 3.464E+00 4.807E+00 8.418E+00 1.237E+01 5.790E+06 10.0842 1.00000
  4.467E+07 4.467E+07 3.969E+00 1.669E-01 3.906E+00 5.481E+00 9.554E+00 1.352E+01 6.166E+06 10.3145 1.00000
  5.012E+07 5.012E+07 3.985E+00 1.897E-01 4.403E+00 6.250E+00 1.084E+01 1.483E+01 6.551E+06 10.5447 1.00000
  5.623E+07 5.624E+07 4.000E+00 2.154E-01 4.961E+00 7.129E+00 1.231E+01 1.631E+01 6.945E+06 10.7750 1.00000
  6.310E+07 6.310E+07 4.015E+00 2.447E-01 5.588E+00 8.132E+00 1.396E+01 1.798E+01 7.346E+06 11.0052 1.00000
  7.079E+07 7.080E+07 4.031E+00 2.778E-01 6.293E+00 9.277E+00 1.585E+01 1.988E+01 7.754E+06 11.2355 1.00000
  7.943E+07 7.943E+07 4.046E+00 3.153E-01 7.085E+00 1.059E+01 1.798E+01 2.203E+01 8.167E+06 11.4657 1.00000
  8.913E+07 8.913E+07 4.061E+00 3.577E-01 7.974E+00 1.208E+01 2.041E+01 2.447E+01 8.585E+06 11.6960 1.00000
  1.000E+08 1.000E+08 4.077E+00 4.057E-01 8.973E+00 1.378E+01 2.316E+01 2.724E+01 9.007E+06 11.9262 1.00000
  1.122E+08 1.122E+08 4.092E+00 4.601E-01 1.009E+01 1.573E+01 2.629E+01 3.038E+01 9.432E+06 12.1565 1.00000
  1.259E+08 1.259E+08 4.107E+00 5.215E-01 1.135E+01 1.796E+01 2.983E+01 3.394E+01 9.859E+06 12.3867 1.00000
  1.413E+08 1.413E+08 4.123E+00 5.910E-01 1.277E+01 2.050E+01 3.386E+01 3.798E+01 1.029E+07 12.6170 1.00000
  1.585E+08 1.585E+08 4.138E+00 6.696E-01 1.436E+01 2.340E+01 3.842E+01 4.256E+01 1.072E+07 12.8473 1.00000
  1.778E+08 1.778E+08 4.154E+00 7.585E-01 1.614E+01 2.671E+01 4.361E+01 4.776E+01 1.115E+07 13.0775 1.00000
  1.995E+08 1.995E+08 4.169E+00 8.588E-01 1.814E+01 3.050E+01 4.950E+01 5.367E+01 1.158E+07 13.3078 1.00000
  2.239E+08 2.239E+08 4.185E+00 9.722E-01 2.039E+01 3.482E+01 5.619E+01 6.037E+01 1.200E+07 13.5380 1.00000
  2.512E+08 2.512E+08 4.201E+00 1.100E+00 2.291E+01 3.977E+01 6.378E+01 6.798E+01 1.243E+07 13.7683 1.00000
  2.818E+08 2.818E+08 4.217E+00 1.245E+00 2.574E+01 4.541E+01 7.240E+01 7.662E+01 1.286E+07 13.9985 1.00000
  3.162E+08 3.162E+08 4.233E+00 1.408E+00 2.892E+01 5.186E+01 8.219E+01 8.643E+01 1.328E+07 14.2288 1.00000
  3.548E+08 3.548E+08 4.249E+00 1.592E+00 3.249E+01 5.924E+01 9.332E+01 9.757E+01 1.370E+07 14.4591 1.00000
  3.981E+08 3.981E+08 4.265E+00 1.799E+00 3.649E+01 6.766E+01 1.060E+02 1.102E+02 1.412E+07 14.6893 1.00000
  4.467E+08 4.467E+08 4.281E+00 2.034E+00 4.099E+01 7.729E+01 1.203E+02 1.246E+02 1.453E+07 14.9196 1.00000
  5.012E+08 5.012E+08 4.297E+00 2.298E+00 4.603E+01 8.829E+01 1.366E+02 1.409E+02 1.495E+07 15.1498 1.00000
  5.623E+08 5.623E+08 4.313E+00 2.595E+00 5.169E+01 1.009E+02 1.552E+02 1.595E+02 1.536E+07 15.3801 1.00000
  6.310E+08 6.310E+08 4.329E+00 2.930E+00 5.804E+01 1.152E+02 1.762E+02 1.805E+02 1.576E+07 15.6103 1.00000
  7.079E+08 7.079E+08 4.346E+00 3.308E+00 6.516E+01 1.317E+02 2.001E+02 2.045E+02 1.616E+07 15.8406 1.00000
  7.943E+08 7.943E+08 4.362E+00 3.734E+00 7.316E+01 1.505E+02 2.273E+02 2.317E+02 1.656E+07 16.0709 1.00000
  8.913E+08 8.913E+08 4.379E+00 4.214E+00 8.214E+01 1.719E+02 2.583E+02 2.626E+02 1.695E+07 16.3011 1.00000
  1.000E+09 1.000E+09 4.396E+00 4.753E+00 9.221E+01 1.965E+02 2.934E+02 2.978E+02 1.734E+07 16.5314 1.00000
  1.122E+09 1.122E+09 4.412E+00 5.361E+00 1.035E+02 2.245E+02 3.334E+02 3.378E+02 1.773E+07 16.7616 1.00000
  1.259E+09 1.259E+09 4.429E+00 6.046E+00 1.162E+02 2.566E+02 3.788E+02 3.833E+02 1.811E+07 16.9919 1.00000
  1.413E+09 1.413E+09 4.446E+00 6.816E+00 1.304E+02 2.933E+02 4.305E+02 4.350E+02 1.849E+07 17.2221 1.00000
  1.585E+09 1.585E+09 4.463E+00 7.682E+00 1.464E+02 3.352E+02 4.893E+02 4.938E+02 1.886E+07 17.4524 1.00000
  1.778E+09 1.778E+09 4.480E+00 8.657E+00 1.643E+02 3.832E+02 5.562E+02 5.606E+02 1.923E+07 17.6827 1.00000
  1.995E+09 1.995E+09 4.497E+00 9.753E+00 1.844E+02 4.381E+02 6.322E+02 6.367E+02 1.959E+07 17.9129 1.00000
  2.239E+09 2.239E+09 4.515E+00 1.099E+01 2.070E+02 5.008E+02 7.187E+02 7.232E+02 1.995E+07 18.1432 1.00000
  2.512E+09 2.512E+09 4.532E+00 1.237E+01 2.323E+02 5.725E+02 8.172E+02 8.217E+02 2.031E+07 18.3734 1.00000
  2.818E+09 2.818E+09 4.550E+00 1.393E+01 2.607E+02 6.546E+02 9.292E+02 9.337E+02 2.066E+07 18.6037 1.00000
  3.162E+09 3.162E+09 4.567E+00 1.568E+01 2.925E+02 7.484E+02 1.057E+03 1.061E+03 2.100E+07 18.8340 1.00000
  3.548E+09 3.548E+09 4.585E+00 1.766E+01 3.283E+02 8.558E+02 1.202E+03 1.206E+03 2.134E+07 19.0642 1.00000
  3.981E+09 3.981E+09 4.603E+00 1.987E+01 3.684E+02 9.786E+02 1.367E+03 1.371E+03 2.168E+07 19.2945 1.00000
  4.467E+09 4.467E+09 4.621E+00 2.236E+01 4.134E+02 1.119E+03 1.555E+03 1.560E+03 2.201E+07 19.5247 1.00000
  5.012E+09 5.012E+09 4.639E+00 2.515E+01 4.639E+02 1.280E+03 1.769E+03 1.774E+03 2.234E+07 19.7550 1.00000
  5.623E+09 5.623E+09 4.657E+00 2.829E+01 5.206E+02 1.464E+03 2.013E+03 2.017E+03 2.267E+07 19.9852 1.00000
  6.310E+09 6.310E+09 4.675E+00 3.182E+01 5.842E+02 1.674E+03 2.290E+03 2.295E+03 2.299E+07 20.2155 1.00000
  7.079E+09 7.079E+09 4.693E+00 3.579E+01 6.555E+02 1.915E+03 2.606E+03 2.611E+03 2.330E+07 20.4458 1.00000
  7.943E+09 7.943E+09 4.712E+00 4.024E+01 7.355E+02 2.190E+03 2.966E+03 2.971E+03 2.361E+07 20.6760 1.00000
  8.913E+09 8.913E+09 4.730E+00 4.524E+01 8.254E+02 2.506E+03 3.376E+03 3.381E+03 2.392E+07 20.9063 1.00000
  1.000E+10 1.000E+10 4.749E+00 5.086E+01 9.261E+02 2.866E+03 3.843E+03 3.848E+03 2.422E+07 21.1365 1.00000
  1.122E+10 1.122E+10 4.768E+00 5.717E+01 1.039E+03 3.279E+03 4.376E+03 4.381E+03 2.452E+07 21.3668 1.00000
  1.259E+10 1.259E+10 4.786E+00 6.425E+01 1.166E+03 3.752E+03 4.982E+03 4.987E+03 2.481E+07 21.5971 1.00000
  1.413E+10 1.413E+10 4.805E+00 7.220E+01 1.308E+03 4.293E+03 5.673E+03 5.678E+03 2.510E+07 21.8273 1.00000
  1.585E+10 1.585E+10 4.824E+00 8.113E+01 1.468E+03 4.912E+03 6.461E+03 6.466E+03 2.539E+07 22.0576 1.00000
  1.778E+10 1.778E+10 4.843E+00 9.115E+01 1.647E+03 5.621E+03 7.359E+03 7.364E+03 2.567E+07 22.2878 1.00000
  1.995E+10 1.995E+10 4.863E+00 1.024E+02 1.848E+03 6.432E+03 8.383E+03 8.388E+03 2.594E+07 22.5181 1.00000
  2.239E+10 2.239E+10 4.882E+00 1.150E+02 2.074E+03 7.361E+03 9.550E+03 9.555E+03 2.622E+07 22.7484 1.00000
  2.512E+10 2.512E+10 4.902E+00 1.292E+02 2.327E+03 8.424E+03 1.088E+04 1.089E+04 2.649E+07 22.9786 1.00000
  2.818E+10 2.818E+10 4.921E+00 1.451E+02 2.611E+03 9.642E+03 1.240E+04 1.240E+04 2.675E+07 23.2089 1.00000
  3.162E+10 3.162E+10 4.941E+00 1.630E+02 2.930E+03 1.104E+04 1.413E+04 1.413E+04 2.701E+07 23.4391 1.00000
  3.548E+10 3.548E+10 4.961E+00 1.831E+02 3.287E+03 1.263E+04 1.610E+04 1.611E+04 2.727E+07 23.6694 1.00000
  3.981E+10 3.981E+10 4.981E+00 2.056E+02 3.688E+03 1.446E+04 1.835E+04 1.836E+04 2.752E+07 23.8996 1.00000
  4.467E+10 4.467E+10 5.001E+00 2.308E+02 4.138E+03 1.655E+04 2.092E+04 2.093E+04 2.777E+07 24.1299 1.00000
  5.012E+10 5.012E+10 5.021E+00 2.592E+02 4.643E+03 1.895E+04 2.385E+04 2.386E+04 2.801E+07 24.3602 1.00000
  5.623E+10 5.623E+10 5.041E+00 2.910E+02 5.210E+03 2.170E+04 2.720E+04 2.720E+04 2.825E+07 24.5904 1.00000
  6.310E+10 6.310E+10 5.061E+00 3.267E+02 5.845E+03 2.484E+04 3.101E+04 3.102E+04 2.849E+07 24.8207 1.00000
  7.079E+10 7.079E+10 5.082E+00 3.668E+02 6.558E+03 2.844E+04 3.537E+04 3.537E+04 2.872E+07 25.0509 1.00000
  7.943E+10 7.943E+10 5.102E+00 4.117E+02 7.358E+03 3.257E+04 4.034E+04 4.035E+04 2.895E+07 25.2812 1.00000
  8.913E+10 8.913E+10 5.123E+00 4.622E+02 8.256E+03 3.730E+04 4.602E+04 4.602E+04 2.918E+07 25.5115 1.00000
  1.000E+11 1.000E+11 5.144E+00 5.188E+02 9.263E+03 4.271E+04 5.249E+04 5.250E+04 2.940E+07 25.7417 1.00000
  1.122E+11 1.122E+11 5.165E+00 5.824E+02 1.039E+04 4.892E+04 5.989E+04 5.990E+04 2.962E+07 25.9720 1.00000
  1.259E+11 1.259E+11 5.186E+00 6.537E+02 1.166E+04 5.602E+04 6.834E+04 6.834E+04 2.983E+07 26.2022 1.00000
  1.413E+11 1.413E+11 5.207E+00 7.337E+02 1.308E+04 6.417E+04 7.799E+04 7.799E+04 3.004E+07 26.4325 1.00000
  1.585E+11 1.585E+11 5.228E+00 8.235E+02 1.468E+04 7.350E+04 8.900E+04 8.901E+04 3.025E+07 26.6627 1.00000
  1.778E+11 1.778E+11 5.250E+00 9.243E+02 1.647E+04 8.419E+04 1.016E+05 1.016E+05 3.045E+07 26.8930 1.00000
  1.995E+11 1.995E+11 5.271E+00 1.037E+03 1.848E+04 9.645E+04 1.160E+05 1.160E+05 3.065E+07 27.1233 1.00000
  2.239E+11 2.239E+11 5.293E+00 1.164E+03 2.073E+04 1.105E+05 1.324E+05 1.324E+05 3.085E+07 27.3535 1.00000
  2.512E+11 2.512E+11 5.315E+00 1.307E+03 2.326E+04 1.266E+05 1.512E+05 1.512E+05 3.104E+07 27.5838 1.00000
  2.818E+11 2.818E+11 5.337E+00 1.466E+03 2.610E+04 1.450E+05 1.726E+05 1.726E+05 3.123E+07 27.8140 1.00000
  3.162E+11 3.162E+11 5.359E+00 1.646E+03 2.929E+04 1.662E+05 1.971E+05 1.971E+05 3.142E+07 28.0443 1.00000
  3.548E+11 3.548E+11 5.381E+00 1.847E+03 3.286E+04 1.904E+05 2.251E+05 2.251E+05 3.160E+07 28.2746 1.00000
  3.981E+11 3.981E+11 5.403E+00 2.072E+03 3.687E+04 2.182E+05 2.571E+05 2.571E+05 3.178E+07 28.5048 1.00000
  4.467E+11 4.467E+11 5.426E+00 2.326E+03 4.136E+04 2.500E+05 2.937E+05 2.937E+05 3.196E+07 28.7351 1.00000
  5.012E+11 5.012E+11 5.448E+00 2.610E+03 4.641E+04 2.865E+05 3.356E+05 3.356E+05 3.214E+07 28.9653 1.00000
  5.623E+11 5.623E+11 5.471E+00 2.928E+03 5.207E+04 3.284E+05 3.834E+05 3.834E+05 3.231E+07 29.1956 1.00000
  6.310E+11 6.310E+11 5.494E+00 3.286E+03 5.842E+04 3.764E+05 4.381E+05 4.381E+05 3.247E+07 29.4258 1.00000
  7.079E+11 7.079E+11 5.517E+00 3.688E+03 6.555E+04 4.314E+05 5.006E+05 5.006E+05 3.264E+07 29.6561 1.00000
  7.943E+11 7.943E+11 5.540E+00 4.138E+03 7.355E+04 4.945E+05 5.722E+05 5.722E+05 3.280E+07 29.8864 1.00000
  8.913E+11 8.913E+11 5.563E+00 4.643E+03 8.252E+04 5.669E+05 6.540E+05 6.540E+05 3.296E+07 30.1166 1.00000
  1.000E+12 1.000E+12 5.586E+00 5.210E+03 9.258E+04 6.498E+05 7.476E+05 7.476E+05 3.312E+07 30.3469 1.00000
  1.122E+12 1.122E+12 5.610E+00 5.846E+03 1.039E+05 7.450E+05 8.547E+05 8.547E+05 3.327E+07 30.5771 1.00000
  1.259E+12 1.259E+12 5.633E+00 6.560E+03 1.165E+05 8.541E+05 9.772E+05 9.772E+05 3.342E+07 30.8074 1.00000
  1.413E+12 1.413E+12 5.657E+00 7.361E+03 1.308E+05 9.793E+05 1.117E+06 1.117E+06 3.357E+07 31.0377 1.00000
  1.585E+12 1.585E+12 5.681E+00 8.259E+03 1.467E+05 1.123E+06 1.278E+06 1.278E+06 3.371E+07 31.2679 1.00000
  1.778E+12 1.778E+12 5.705E+00 9.268E+03 1.646E+05 1.288E+06 1.461E+06 1.461E+06 3.385E+07 31.4982 1.00000
  1.995E+12 1.995E+12 5.729E+00 1.040E+04 1.847E+05 1.476E+06 1.671E+06 1.671E+06 3.399E+07 31.7284 1.00000
  2.239E+12 2.239E+12 5.753E+00 1.167E+04 2.072E+05 1.693E+06 1.912E+06 1.912E+06 3.413E+07 31.9587 1.00000
  2.512E+12 2.512E+12 5.777E+00 1.309E+04 2.325E+05 1.942E+06 2.187E+06 2.187E+06 3.426E+07 32.1889 1.00000
  2.818E+12 2.818E+12 5.802E+00 1.469E+04 2.608E+05 2.227E+06 2.502E+06 2.502E+06 3.439E+07 32.4192 1.00000
  3.162E+12 3.162E+12 5.826E+00 1.648E+04 2.927E+05 2.554E+06 2.863E+06 2.863E+06 3.452E+07 32.6495 1.00000
  3.548E+12 3.548E+12 5.851E+00 1.849E+04 3.283E+05 2.930E+06 3.277E+06 3.277E+06 3.465E+07 32.8797 1.00000
  3.981E+12 3.981E+12 5.876E+00 2.075E+04 3.684E+05 3.361E+06 3.750E+06 3.750E+06 3.477E+07 33.1100 1.00000
  4.467E+12 4.467E+12 5.901E+00 2.328E+04 4.133E+05 3.855E+06 4.292E+06 4.292E+06 3.489E+07 33.3402 1.00000
  5.012E+12 5.012E+12 5.926E+00 2.613E+04 4.637E+05 4.422E+06 4.912E+06 4.912E+06 3.501E+07 33.5705 1.00000
  5.623E+12 5.623E+12 5.951E+00 2.931E+04 5.203E+05 5.073E+06 5.623E+06 5.623E+06 3.513E+07 33.8008 1.00000
  6.310E+12 6.310E+12 5.977E+00 3.289E+04 5.838E+05 5.821E+06 6.437E+06 6.437E+06 3.524E+07 34.0310 1.00000
  7.079E+12 7.079E+12 6.003E+00 3.691E+04 6.550E+05 6.678E+06 7.370E+06 7.370E+06 3.536E+07 34.2613 1.00000
  7.943E+12 7.943E+12 6.028E+00 4.141E+04 7.348E+05 7.663E+06 8.439E+06 8.439E+06 3.546E+07 34.4915 1.00000
  8.913E+12 8.913E+12 6.054E+00 4.646E+04 8.245E+05 8.793E+06 9.664E+06 9.664E+06 3.557E+07 34.7218 1.00000
  1.000E+13 1.000E+13 6.080E+00 5.213E+04 9.250E+05 1.009E+07 1.107E+07 1.107E+07 3.568E+07 34.9521 1.00000
  1.122E+13 1.122E+13 6.106E+00 5.849E+04 1.038E+06 1.158E+07 1.268E+07 1.268E+07 3.578E+07 35.1823 1.00000
  1.259E+13 1.259E+13 6.133E+00 6.563E+04 1.164E+06 1.329E+07 1.452E+07 1.452E+07 3.588E+07 35.4126 1.00000
  1.413E+13 1.413E+13 6.159E+00 7.364E+04 1.306E+06 1.525E+07 1.663E+07 1.663E+07 3.598E+07 35.6428 1.00000
  1.585E+13 1.585E+13 6.186E+00 8.263E+04 1.466E+06 1.750E+07 1.905E+07 1.905E+07 3.608E+07 35.8731 1.00000
  1.778E+13 1.778E+13 6.212E+00 9.271E+04 1.645E+06 2.009E+07 2.183E+07 2.183E+07 3.617E+07 36.1033 1.00000
  1.995E+13 1.995E+13 6.239E+00 1.040E+05 1.845E+06 2.306E+07 2.501E+07 2.501E+07 3.627E+07 36.3336 1.00000
  2.239E+13 2.239E+13 6.266E+00 1.167E+05 2.070E+06 2.647E+07 2.866E+07 2.866E+07 3.636E+07 36.5639 1.00000
  2.512E+13 2.512E+13 6.293E+00 1.310E+05 2.323E+06 3.039E+07 3.284E+07 3.284E+07 3.645E+07 36.7941 1.00000
  2.818E+13 2.818E+13 6.321E+00 1.469E+05 2.606E+06 3.489E+07 3.764E+07 3.764E+07 3.653E+07 37.0244 1.00000
  3.162E+13 3.162E+13 6.348E+00 1.649E+05 2.924E+06 4.005E+07 4.314E+07 4.314E+07 3.662E+07 37.2546 1.00000
  3.548E+13 3.548E+13 6.376E+00 1.850E+05 3.280E+06 4.599E+07 4.945E+07 4.945E+07 3.670E+07 37.4849 1.00000
  3.981E+13 3.981E+13 6.403E+00 2.076E+05 3.680E+06 5.280E+07 5.669E+07 5.669E+07 3.679E+07 37.7152 1.00000
  4.467E+13 4.467E+13 6.431E+00 2.329E+05 4.129E+06 6.063E+07 6.499E+07 6.499E+07 3.687E+07 37.9454 1.00000
  5.012E+13 5.012E+13 6.459E+00 2.613E+05 4.633E+06 6.962E+07 7.451E+07 7.451E+07 3.694E+07 38.1757 1.00000
  5.623E+13 5.623E+13 6.487E+00 2.932E+05 5.198E+06 7.994E+07 8.544E+07 8.544E+07 3.702E+07 38.4059 1.00000
  6.310E+13 6.310E+13 6.516E+00 3.290E+05 5.831E+06 9.181E+07 9.797E+07 9.797E+07 3.710E+07 38.6362 1.00000
  7.079E+13 7.079E+13 6.544E+00 3.691E+05 6.543E+06 1.054E+08 1.123E+08 1.123E+08 3.717E+07 38.8664 1.00000
  7.943E+13 7.943E+13 6.573E+00 4.141E+05 7.341E+06 1.211E+08 1.288E+08 1.288E+08 3.724E+07 39.0967 1.00000
  8.913E+13 8.913E+13 6.602E+00 4.647E+05 8.236E+06 1.391E+08 1.478E+08 1.478E+08 3.731E+07 39.3270 1.00000
