 Incident particle is a Tau with M = 1776.82000 MeV
 Index = 0: TitaniumDioxide
      Absorber with <Z/A> = 0.47580
 Sternheimer coef:  a     k=m_s   x_0    x_1    I[eV]   Cbar  delta0
                 0.0857  3.3267  0.0119  3.1647  179.5  3.9522 0.00

 *** Table generated with PUMAS v1.00 ***

      T         p     Ionization  brems     pair     photonuc  Radloss    dE/dx   CSDA Range  delta   beta
    [MeV]    [MeV/c]  -----------------------[MeV cm^2/g]------------------------  [g/cm^2]
  1.000E+05 1.018E+05 1.988E+00 2.820E-04 4.546E-03 8.076E-03 1.290E-02 2.001E+00 2.499E+04  4.4101 0.99985
  1.122E+05 1.140E+05 2.007E+00 3.261E-04 5.461E-03 9.103E-03 1.489E-02 2.022E+00 3.105E+04  4.6069 0.99988
  1.259E+05 1.277E+05 2.027E+00 3.770E-04 6.539E-03 1.021E-02 1.712E-02 2.044E+00 3.779E+04  4.8064 0.99990
  1.413E+05 1.430E+05 2.046E+00 4.356E-04 7.808E-03 1.144E-02 1.969E-02 2.065E+00 4.526E+04  5.0085 0.99992
  1.585E+05 1.603E+05 2.064E+00 5.031E-04 9.296E-03 1.283E-02 2.263E-02 2.087E+00 5.356E+04  5.2131 0.99994
  1.778E+05 1.796E+05 2.083E+00 5.807E-04 1.104E-02 1.437E-02 2.599E-02 2.109E+00 6.278E+04  5.4200 0.99995
  1.995E+05 2.013E+05 2.102E+00 6.700E-04 1.308E-02 1.613E-02 2.988E-02 2.132E+00 7.301E+04  5.6292 0.99996
  2.239E+05 2.256E+05 2.120E+00 7.725E-04 1.546E-02 1.804E-02 3.427E-02 2.155E+00 8.437E+04  5.8404 0.99997
  2.512E+05 2.530E+05 2.139E+00 8.904E-04 1.823E-02 2.019E-02 3.930E-02 2.178E+00 9.698E+04  6.0536 0.99998
  2.818E+05 2.836E+05 2.157E+00 1.026E-03 2.145E-02 2.260E-02 4.507E-02 2.202E+00 1.110E+05  6.2686 0.99998
  3.162E+05 3.180E+05 2.175E+00 1.181E-03 2.518E-02 2.532E-02 5.168E-02 2.227E+00 1.265E+05  6.4853 0.99998
  3.548E+05 3.566E+05 2.193E+00 1.359E-03 2.951E-02 2.837E-02 5.924E-02 2.253E+00 1.437E+05  6.7036 0.99999
  3.981E+05 3.999E+05 2.211E+00 1.563E-03 3.452E-02 3.177E-02 6.786E-02 2.279E+00 1.628E+05  6.9234 0.99999
  4.467E+05 4.485E+05 2.229E+00 1.798E-03 4.031E-02 3.558E-02 7.768E-02 2.307E+00 1.840E+05  7.1446 0.99999
  5.012E+05 5.030E+05 2.247E+00 2.066E-03 4.698E-02 3.986E-02 8.891E-02 2.336E+00 2.075E+05  7.3670 0.99999
  5.623E+05 5.641E+05 2.265E+00 2.374E-03 5.467E-02 4.449E-02 1.015E-01 2.366E+00 2.335E+05  7.5905 1.00000
  6.310E+05 6.327E+05 2.282E+00 2.726E-03 6.351E-02 4.971E-02 1.159E-01 2.398E+00 2.623E+05  7.8151 1.00000
  7.079E+05 7.097E+05 2.300E+00 3.128E-03 7.368E-02 5.558E-02 1.324E-01 2.432E+00 2.942E+05  8.0406 1.00000
  7.943E+05 7.961E+05 2.317E+00 3.589E-03 8.534E-02 6.222E-02 1.511E-01 2.468E+00 3.295E+05  8.2669 1.00000
  8.913E+05 8.930E+05 2.334E+00 4.117E-03 9.872E-02 6.971E-02 1.725E-01 2.507E+00 3.684E+05  8.4940 1.00000
  1.000E+06 1.002E+06 2.351E+00 4.720E-03 1.140E-01 7.817E-02 1.969E-01 2.548E+00 4.115E+05  8.7218 1.00000
  1.122E+06 1.124E+06 2.368E+00 5.409E-03 1.315E-01 8.774E-02 2.247E-01 2.593E+00 4.589E+05  8.9500 1.00000
  1.259E+06 1.261E+06 2.385E+00 6.197E-03 1.515E-01 9.858E-02 2.563E-01 2.641E+00 5.113E+05  9.1788 1.00000
  1.413E+06 1.414E+06 2.401E+00 7.097E-03 1.744E-01 1.109E-01 2.923E-01 2.694E+00 5.689E+05  9.4080 1.00000
  1.585E+06 1.587E+06 2.418E+00 8.124E-03 2.004E-01 1.248E-01 3.333E-01 2.751E+00 6.322E+05  9.6374 1.00000
  1.778E+06 1.780E+06 2.434E+00 9.298E-03 2.301E-01 1.405E-01 3.799E-01 2.814E+00 7.017E+05  9.8672 1.00000
  1.995E+06 1.997E+06 2.451E+00 1.064E-02 2.638E-01 1.584E-01 4.329E-01 2.883E+00 7.779E+05 10.0971 1.00000
  2.239E+06 2.240E+06 2.467E+00 1.217E-02 3.022E-01 1.788E-01 4.931E-01 2.960E+00 8.612E+05 10.3271 1.00000
  2.512E+06 2.514E+06 2.483E+00 1.391E-02 3.458E-01 2.019E-01 5.615E-01 3.044E+00 9.522E+05 10.5571 1.00000
  2.818E+06 2.820E+06 2.499E+00 1.590E-02 3.952E-01 2.281E-01 6.392E-01 3.138E+00 1.051E+06 10.7872 1.00000
  3.162E+06 3.164E+06 2.514E+00 1.816E-02 4.514E-01 2.579E-01 7.274E-01 3.242E+00 1.159E+06 11.0174 1.00000
  3.548E+06 3.550E+06 2.530E+00 2.075E-02 5.150E-01 2.918E-01 8.275E-01 3.357E+00 1.276E+06 11.2475 1.00000
  3.981E+06 3.983E+06 2.545E+00 2.369E-02 5.870E-01 3.304E-01 9.410E-01 3.486E+00 1.403E+06 11.4777 1.00000
  4.467E+06 4.469E+06 2.561E+00 2.704E-02 6.685E-01 3.742E-01 1.070E+00 3.630E+00 1.539E+06 11.7078 1.00000
  5.012E+06 5.014E+06 2.576E+00 3.086E-02 7.607E-01 4.242E-01 1.216E+00 3.791E+00 1.686E+06 11.9380 1.00000
  5.623E+06 5.625E+06 2.591E+00 3.521E-02 8.650E-01 4.811E-01 1.381E+00 3.972E+00 1.844E+06 12.1682 1.00000
  6.310E+06 6.311E+06 2.605E+00 4.015E-02 9.828E-01 5.458E-01 1.569E+00 4.174E+00 2.013E+06 12.3984 1.00000
  7.079E+06 7.081E+06 2.620E+00 4.578E-02 1.116E+00 6.196E-01 1.781E+00 4.401E+00 2.192E+06 12.6286 1.00000
  7.943E+06 7.945E+06 2.635E+00 5.218E-02 1.266E+00 7.036E-01 2.022E+00 4.656E+00 2.383E+06 12.8588 1.00000
  8.913E+06 8.914E+06 2.649E+00 5.946E-02 1.435E+00 7.994E-01 2.294E+00 4.943E+00 2.585E+06 13.0890 1.00000
  1.000E+07 1.000E+07 2.663E+00 6.773E-02 1.626E+00 9.085E-01 2.602E+00 5.266E+00 2.798E+06 13.3192 1.00000
  1.122E+07 1.122E+07 2.677E+00 7.714E-02 1.841E+00 1.033E+00 2.951E+00 5.629E+00 3.023E+06 13.5494 1.00000
  1.259E+07 1.259E+07 2.691E+00 8.782E-02 2.084E+00 1.175E+00 3.346E+00 6.038E+00 3.258E+06 13.7796 1.00000
  1.413E+07 1.413E+07 2.705E+00 9.995E-02 2.357E+00 1.336E+00 3.793E+00 6.499E+00 3.503E+06 14.0099 1.00000
  1.585E+07 1.585E+07 2.719E+00 1.137E-01 2.665E+00 1.521E+00 4.299E+00 7.018E+00 3.759E+06 14.2401 1.00000
  1.778E+07 1.778E+07 2.733E+00 1.294E-01 3.011E+00 1.731E+00 4.871E+00 7.604E+00 4.023E+06 14.4703 1.00000
  1.995E+07 1.995E+07 2.746E+00 1.471E-01 3.400E+00 1.971E+00 5.519E+00 8.265E+00 4.297E+06 14.7006 1.00000
  2.239E+07 2.239E+07 2.760E+00 1.672E-01 3.839E+00 2.245E+00 6.251E+00 9.010E+00 4.580E+06 14.9308 1.00000
  2.512E+07 2.512E+07 2.773E+00 1.901E-01 4.332E+00 2.557E+00 7.079E+00 9.852E+00 4.870E+06 15.1610 1.00000
  2.818E+07 2.819E+07 2.786E+00 2.159E-01 4.886E+00 2.913E+00 8.016E+00 1.080E+01 5.167E+06 15.3913 1.00000
  3.162E+07 3.162E+07 2.800E+00 2.453E-01 5.510E+00 3.320E+00 9.075E+00 1.187E+01 5.471E+06 15.6215 1.00000
  3.548E+07 3.548E+07 2.813E+00 2.785E-01 6.210E+00 3.784E+00 1.027E+01 1.309E+01 5.781E+06 15.8518 1.00000
  3.981E+07 3.981E+07 2.826E+00 3.162E-01 6.998E+00 4.314E+00 1.163E+01 1.445E+01 6.097E+06 16.0820 1.00000
  4.467E+07 4.467E+07 2.840E+00 3.588E-01 7.883E+00 4.918E+00 1.316E+01 1.600E+01 6.416E+06 16.3123 1.00000
  5.012E+07 5.012E+07 2.853E+00 4.070E-01 8.877E+00 5.608E+00 1.489E+01 1.775E+01 6.740E+06 16.5425 1.00000
  5.623E+07 5.624E+07 2.866E+00 4.616E-01 9.994E+00 6.396E+00 1.685E+01 1.972E+01 7.068E+06 16.7728 1.00000
  6.310E+07 6.310E+07 2.879E+00 5.234E-01 1.125E+01 7.295E+00 1.907E+01 2.195E+01 7.398E+06 17.0030 1.00000
  7.079E+07 7.080E+07 2.892E+00 5.933E-01 1.266E+01 8.322E+00 2.157E+01 2.447E+01 7.731E+06 17.2333 1.00000
  7.943E+07 7.943E+07 2.906E+00 6.723E-01 1.424E+01 9.494E+00 2.441E+01 2.731E+01 8.065E+06 17.4635 1.00000
  8.913E+07 8.913E+07 2.919E+00 7.616E-01 1.602E+01 1.083E+01 2.761E+01 3.053E+01 8.402E+06 17.6938 1.00000
  1.000E+08 1.000E+08 2.932E+00 8.626E-01 1.802E+01 1.236E+01 3.124E+01 3.417E+01 8.739E+06 17.9240 1.00000
  1.122E+08 1.122E+08 2.945E+00 9.766E-01 2.026E+01 1.411E+01 3.534E+01 3.829E+01 9.077E+06 18.1543 1.00000
  1.259E+08 1.259E+08 2.959E+00 1.105E+00 2.277E+01 1.610E+01 3.998E+01 4.294E+01 9.415E+06 18.3845 1.00000
  1.413E+08 1.413E+08 2.972E+00 1.251E+00 2.560E+01 1.838E+01 4.523E+01 4.820E+01 9.753E+06 18.6148 1.00000
  1.585E+08 1.585E+08 2.986E+00 1.415E+00 2.877E+01 2.098E+01 5.116E+01 5.415E+01 1.009E+07 18.8451 1.00000
  1.778E+08 1.778E+08 2.999E+00 1.600E+00 3.233E+01 2.395E+01 5.788E+01 6.088E+01 1.043E+07 19.0753 1.00000
  1.995E+08 1.995E+08 3.013E+00 1.809E+00 3.632E+01 2.734E+01 6.548E+01 6.849E+01 1.077E+07 19.3056 1.00000
  2.239E+08 2.239E+08 3.026E+00 2.045E+00 4.081E+01 3.122E+01 7.408E+01 7.710E+01 1.110E+07 19.5358 1.00000
  2.512E+08 2.512E+08 3.040E+00 2.311E+00 4.584E+01 3.565E+01 8.381E+01 8.685E+01 1.144E+07 19.7661 1.00000
  2.818E+08 2.818E+08 3.053E+00 2.610E+00 5.149E+01 4.071E+01 9.482E+01 9.787E+01 1.177E+07 19.9963 1.00000
  3.162E+08 3.162E+08 3.067E+00 2.948E+00 5.783E+01 4.650E+01 1.073E+02 1.103E+02 1.210E+07 20.2266 1.00000
  3.548E+08 3.548E+08 3.081E+00 3.329E+00 6.495E+01 5.311E+01 1.214E+02 1.245E+02 1.243E+07 20.4569 1.00000
  3.981E+08 3.981E+08 3.095E+00 3.757E+00 7.294E+01 6.066E+01 1.374E+02 1.404E+02 1.276E+07 20.6871 1.00000
  4.467E+08 4.467E+08 3.109E+00 4.240E+00 8.190E+01 6.929E+01 1.554E+02 1.585E+02 1.308E+07 20.9174 1.00000
  5.012E+08 5.012E+08 3.123E+00 4.784E+00 9.196E+01 7.915E+01 1.759E+02 1.790E+02 1.341E+07 21.1476 1.00000
  5.623E+08 5.623E+08 3.137E+00 5.396E+00 1.032E+02 9.043E+01 1.991E+02 2.022E+02 1.373E+07 21.3779 1.00000
  6.310E+08 6.310E+08 3.151E+00 6.085E+00 1.159E+02 1.033E+02 2.253E+02 2.285E+02 1.405E+07 21.6081 1.00000
  7.079E+08 7.079E+08 3.165E+00 6.860E+00 1.301E+02 1.180E+02 2.550E+02 2.582E+02 1.437E+07 21.8384 1.00000
  7.943E+08 7.943E+08 3.179E+00 7.733E+00 1.461E+02 1.349E+02 2.887E+02 2.919E+02 1.468E+07 22.0687 1.00000
  8.913E+08 8.913E+08 3.194E+00 8.715E+00 1.640E+02 1.541E+02 3.268E+02 3.300E+02 1.500E+07 22.2989 1.00000
  1.000E+09 1.000E+09 3.208E+00 9.819E+00 1.840E+02 1.761E+02 3.700E+02 3.732E+02 1.531E+07 22.5292 1.00000
  1.122E+09 1.122E+09 3.223E+00 1.106E+01 2.066E+02 2.013E+02 4.189E+02 4.221E+02 1.561E+07 22.7594 1.00000
  1.259E+09 1.259E+09 3.237E+00 1.246E+01 2.319E+02 2.300E+02 4.744E+02 4.776E+02 1.592E+07 22.9897 1.00000
  1.413E+09 1.413E+09 3.252E+00 1.403E+01 2.602E+02 2.629E+02 5.372E+02 5.404E+02 1.622E+07 23.2199 1.00000
  1.585E+09 1.585E+09 3.267E+00 1.579E+01 2.921E+02 3.005E+02 6.084E+02 6.116E+02 1.652E+07 23.4502 1.00000
  1.778E+09 1.778E+09 3.281E+00 1.778E+01 3.278E+02 3.435E+02 6.891E+02 6.924E+02 1.682E+07 23.6805 1.00000
  1.995E+09 1.995E+09 3.296E+00 2.001E+01 3.679E+02 3.927E+02 7.806E+02 7.839E+02 1.712E+07 23.9107 1.00000
  2.239E+09 2.239E+09 3.311E+00 2.251E+01 4.129E+02 4.489E+02 8.843E+02 8.876E+02 1.741E+07 24.1410 1.00000
  2.512E+09 2.512E+09 3.326E+00 2.533E+01 4.633E+02 5.132E+02 1.002E+03 1.005E+03 1.770E+07 24.3712 1.00000
  2.818E+09 2.818E+09 3.342E+00 2.849E+01 5.199E+02 5.868E+02 1.135E+03 1.139E+03 1.798E+07 24.6015 1.00000
  3.162E+09 3.162E+09 3.357E+00 3.204E+01 5.835E+02 6.709E+02 1.286E+03 1.290E+03 1.827E+07 24.8318 1.00000
  3.548E+09 3.548E+09 3.372E+00 3.603E+01 6.547E+02 7.672E+02 1.458E+03 1.461E+03 1.855E+07 25.0620 1.00000
  3.981E+09 3.981E+09 3.388E+00 4.052E+01 7.347E+02 8.772E+02 1.652E+03 1.656E+03 1.883E+07 25.2923 1.00000
  4.467E+09 4.467E+09 3.403E+00 4.555E+01 8.245E+02 1.003E+03 1.873E+03 1.877E+03 1.911E+07 25.5225 1.00000
  5.012E+09 5.012E+09 3.419E+00 5.121E+01 9.252E+02 1.147E+03 2.124E+03 2.127E+03 1.938E+07 25.7528 1.00000
  5.623E+09 5.623E+09 3.434E+00 5.756E+01 1.038E+03 1.312E+03 2.408E+03 2.411E+03 1.965E+07 25.9830 1.00000
  6.310E+09 6.310E+09 3.450E+00 6.469E+01 1.165E+03 1.501E+03 2.730E+03 2.734E+03 1.992E+07 26.2133 1.00000
  7.079E+09 7.079E+09 3.466E+00 7.269E+01 1.307E+03 1.717E+03 3.096E+03 3.100E+03 2.018E+07 26.4436 1.00000
  7.943E+09 7.943E+09 3.482E+00 8.168E+01 1.467E+03 1.963E+03 3.512E+03 3.515E+03 2.044E+07 26.6738 1.00000
  8.913E+09 8.913E+09 3.498E+00 9.177E+01 1.646E+03 2.246E+03 3.984E+03 3.987E+03 2.070E+07 26.9041 1.00000
  1.000E+10 1.000E+10 3.514E+00 1.031E+02 1.847E+03 2.570E+03 4.519E+03 4.523E+03 2.096E+07 27.1343 1.00000
  1.122E+10 1.122E+10 3.530E+00 1.158E+02 2.072E+03 2.940E+03 5.128E+03 5.131E+03 2.121E+07 27.3646 1.00000
  1.259E+10 1.259E+10 3.546E+00 1.301E+02 2.325E+03 3.363E+03 5.818E+03 5.822E+03 2.147E+07 27.5949 1.00000
  1.413E+10 1.413E+10 3.563E+00 1.461E+02 2.609E+03 3.848E+03 6.603E+03 6.607E+03 2.171E+07 27.8251 1.00000
  1.585E+10 1.585E+10 3.579E+00 1.641E+02 2.927E+03 4.403E+03 7.494E+03 7.498E+03 2.196E+07 28.0554 1.00000
  1.778E+10 1.778E+10 3.596E+00 1.843E+02 3.284E+03 5.038E+03 8.507E+03 8.511E+03 2.220E+07 28.2856 1.00000
  1.995E+10 1.995E+10 3.612E+00 2.069E+02 3.685E+03 5.766E+03 9.658E+03 9.661E+03 2.244E+07 28.5159 1.00000
  2.239E+10 2.239E+10 3.629E+00 2.324E+02 4.135E+03 6.598E+03 1.097E+04 1.097E+04 2.268E+07 28.7462 1.00000
  2.512E+10 2.512E+10 3.646E+00 2.609E+02 4.639E+03 7.552E+03 1.245E+04 1.246E+04 2.291E+07 28.9764 1.00000
  2.818E+10 2.818E+10 3.663E+00 2.929E+02 5.206E+03 8.643E+03 1.414E+04 1.415E+04 2.314E+07 29.2067 1.00000
  3.162E+10 3.162E+10 3.680E+00 3.289E+02 5.841E+03 9.893E+03 1.606E+04 1.607E+04 2.337E+07 29.4369 1.00000
  3.548E+10 3.548E+10 3.697E+00 3.692E+02 6.553E+03 1.132E+04 1.825E+04 1.825E+04 2.360E+07 29.6672 1.00000
  3.981E+10 3.981E+10 3.714E+00 4.145E+02 7.353E+03 1.296E+04 2.073E+04 2.073E+04 2.382E+07 29.8974 1.00000
  4.467E+10 4.467E+10 3.732E+00 4.653E+02 8.250E+03 1.484E+04 2.355E+04 2.356E+04 2.404E+07 30.1277 1.00000
  5.012E+10 5.012E+10 3.749E+00 5.223E+02 9.257E+03 1.699E+04 2.677E+04 2.677E+04 2.426E+07 30.3580 1.00000
  5.623E+10 5.623E+10 3.767E+00 5.862E+02 1.039E+04 1.945E+04 3.042E+04 3.043E+04 2.447E+07 30.5882 1.00000
  6.310E+10 6.310E+10 3.784E+00 6.580E+02 1.165E+04 2.227E+04 3.458E+04 3.458E+04 2.469E+07 30.8185 1.00000
  7.079E+10 7.079E+10 3.802E+00 7.385E+02 1.308E+04 2.550E+04 3.931E+04 3.931E+04 2.489E+07 31.0487 1.00000
  7.943E+10 7.943E+10 3.820E+00 8.289E+02 1.467E+04 2.920E+04 4.470E+04 4.470E+04 2.510E+07 31.2790 1.00000
  8.913E+10 8.913E+10 3.838E+00 9.303E+02 1.646E+04 3.343E+04 5.082E+04 5.083E+04 2.531E+07 31.5093 1.00000
  1.000E+11 1.000E+11 3.856E+00 1.044E+03 1.847E+04 3.829E+04 5.780E+04 5.780E+04 2.551E+07 31.7395 1.00000
  1.122E+11 1.122E+11 3.874E+00 1.172E+03 2.072E+04 4.385E+04 6.574E+04 6.574E+04 2.570E+07 31.9698 1.00000
  1.259E+11 1.259E+11 3.892E+00 1.315E+03 2.325E+04 5.022E+04 7.478E+04 7.479E+04 2.590E+07 32.2000 1.00000
  1.413E+11 1.413E+11 3.911E+00 1.476E+03 2.609E+04 5.752E+04 8.508E+04 8.508E+04 2.609E+07 32.4303 1.00000
  1.585E+11 1.585E+11 3.929E+00 1.656E+03 2.927E+04 6.588E+04 9.681E+04 9.681E+04 2.628E+07 32.6605 1.00000
  1.778E+11 1.778E+11 3.947E+00 1.859E+03 3.284E+04 7.547E+04 1.102E+05 1.102E+05 2.647E+07 32.8908 1.00000
  1.995E+11 1.995E+11 3.966E+00 2.086E+03 3.684E+04 8.645E+04 1.254E+05 1.254E+05 2.666E+07 33.1211 1.00000
  2.239E+11 2.239E+11 3.985E+00 2.341E+03 4.134E+04 9.904E+04 1.427E+05 1.427E+05 2.684E+07 33.3513 1.00000
  2.512E+11 2.512E+11 4.004E+00 2.627E+03 4.638E+04 1.135E+05 1.625E+05 1.625E+05 2.702E+07 33.5816 1.00000
  2.818E+11 2.818E+11 4.023E+00 2.947E+03 5.204E+04 1.300E+05 1.850E+05 1.850E+05 2.720E+07 33.8118 1.00000
  3.162E+11 3.162E+11 4.042E+00 3.307E+03 5.839E+04 1.490E+05 2.106E+05 2.107E+05 2.737E+07 34.0421 1.00000
  3.548E+11 3.548E+11 4.061E+00 3.711E+03 6.551E+04 1.707E+05 2.399E+05 2.399E+05 2.754E+07 34.2724 1.00000
  3.981E+11 3.981E+11 4.080E+00 4.165E+03 7.350E+04 1.956E+05 2.732E+05 2.732E+05 2.771E+07 34.5026 1.00000
  4.467E+11 4.467E+11 4.100E+00 4.673E+03 8.247E+04 2.241E+05 3.113E+05 3.113E+05 2.788E+07 34.7329 1.00000
  5.012E+11 5.012E+11 4.119E+00 5.244E+03 9.252E+04 2.568E+05 3.546E+05 3.546E+05 2.804E+07 34.9631 1.00000
  5.623E+11 5.623E+11 4.139E+00 5.884E+03 1.038E+05 2.944E+05 4.041E+05 4.041E+05 2.820E+07 35.1934 1.00000
  6.310E+11 6.310E+11 4.158E+00 6.602E+03 1.165E+05 3.374E+05 4.605E+05 4.605E+05 2.836E+07 35.4236 1.00000
  7.079E+11 7.079E+11 4.178E+00 7.408E+03 1.307E+05 3.867E+05 5.248E+05 5.248E+05 2.852E+07 35.6539 1.00000
  7.943E+11 7.943E+11 4.198E+00 8.313E+03 1.466E+05 4.433E+05 5.982E+05 5.982E+05 2.868E+07 35.8842 1.00000
  8.913E+11 8.913E+11 4.218E+00 9.328E+03 1.645E+05 5.081E+05 6.820E+05 6.820E+05 2.883E+07 36.1144 1.00000
  1.000E+12 1.000E+12 4.238E+00 1.047E+04 1.846E+05 5.825E+05 7.775E+05 7.775E+05 2.898E+07 36.3447 1.00000
  1.122E+12 1.122E+12 4.259E+00 1.174E+04 2.071E+05 6.678E+05 8.866E+05 8.866E+05 2.912E+07 36.5749 1.00000
  1.259E+12 1.259E+12 4.279E+00 1.318E+04 2.323E+05 7.656E+05 1.011E+06 1.011E+06 2.927E+07 36.8052 1.00000
  1.413E+12 1.413E+12 4.300E+00 1.479E+04 2.607E+05 8.778E+05 1.153E+06 1.153E+06 2.941E+07 37.0355 1.00000
  1.585E+12 1.585E+12 4.320E+00 1.659E+04 2.925E+05 1.006E+06 1.316E+06 1.316E+06 2.955E+07 37.2657 1.00000
  1.778E+12 1.778E+12 4.341E+00 1.861E+04 3.282E+05 1.154E+06 1.501E+06 1.501E+06 2.969E+07 37.4960 1.00000
  1.995E+12 1.995E+12 4.362E+00 2.089E+04 3.682E+05 1.323E+06 1.713E+06 1.713E+06 2.983E+07 37.7262 1.00000
  2.239E+12 2.239E+12 4.383E+00 2.344E+04 4.131E+05 1.518E+06 1.954E+06 1.954E+06 2.996E+07 37.9565 1.00000
  2.512E+12 2.512E+12 4.404E+00 2.630E+04 4.635E+05 1.741E+06 2.230E+06 2.230E+06 3.009E+07 38.1867 1.00000
  2.818E+12 2.818E+12 4.425E+00 2.950E+04 5.200E+05 1.996E+06 2.546E+06 2.546E+06 3.022E+07 38.4170 1.00000
  3.162E+12 3.162E+12 4.446E+00 3.310E+04 5.834E+05 2.290E+06 2.906E+06 2.906E+06 3.035E+07 38.6473 1.00000
  3.548E+12 3.548E+12 4.468E+00 3.714E+04 6.546E+05 2.626E+06 3.318E+06 3.318E+06 3.047E+07 38.8775 1.00000
  3.981E+12 3.981E+12 4.489E+00 4.168E+04 7.344E+05 3.012E+06 3.788E+06 3.788E+06 3.059E+07 39.1078 1.00000
  4.467E+12 4.467E+12 4.511E+00 4.676E+04 8.240E+05 3.456E+06 4.326E+06 4.326E+06 3.071E+07 39.3380 1.00000
  5.012E+12 5.012E+12 4.533E+00 5.247E+04 9.245E+05 3.964E+06 4.941E+06 4.941E+06 3.083E+07 39.5683 1.00000
  5.623E+12 5.623E+12 4.555E+00 5.887E+04 1.037E+06 4.548E+06 5.644E+06 5.644E+06 3.095E+07 39.7986 1.00000
  6.310E+12 6.310E+12 4.577E+00 6.606E+04 1.164E+06 5.218E+06 6.447E+06 6.447E+06 3.106E+07 40.0288 1.00000
  7.079E+12 7.079E+12 4.599E+00 7.412E+04 1.306E+06 5.986E+06 7.366E+06 7.366E+06 3.117E+07 40.2591 1.00000
  7.943E+12 7.943E+12 4.621E+00 8.316E+04 1.465E+06 6.869E+06 8.417E+06 8.417E+06 3.128E+07 40.4893 1.00000
  8.913E+12 8.913E+12 4.643E+00 9.331E+04 1.644E+06 7.882E+06 9.619E+06 9.619E+06 3.139E+07 40.7196 1.00000
  1.000E+13 1.000E+13 4.666E+00 1.047E+05 1.844E+06 9.044E+06 1.099E+07 1.099E+07 3.150E+07 40.9499 1.00000
  1.122E+13 1.122E+13 4.688E+00 1.175E+05 2.069E+06 1.038E+07 1.257E+07 1.257E+07 3.160E+07 41.1801 1.00000
  1.259E+13 1.259E+13 4.711E+00 1.318E+05 2.321E+06 1.191E+07 1.436E+07 1.436E+07 3.170E+07 41.4104 1.00000
  1.413E+13 1.413E+13 4.734E+00 1.479E+05 2.605E+06 1.367E+07 1.642E+07 1.642E+07 3.180E+07 41.6406 1.00000
  1.585E+13 1.585E+13 4.757E+00 1.659E+05 2.922E+06 1.569E+07 1.878E+07 1.878E+07 3.190E+07 41.8709 1.00000
  1.778E+13 1.778E+13 4.780E+00 1.862E+05 3.279E+06 1.801E+07 2.147E+07 2.147E+07 3.200E+07 42.1011 1.00000
  1.995E+13 1.995E+13 4.803E+00 2.089E+05 3.678E+06 2.067E+07 2.456E+07 2.456E+07 3.209E+07 42.3314 1.00000
  2.239E+13 2.239E+13 4.827E+00 2.344E+05 4.127E+06 2.373E+07 2.809E+07 2.809E+07 3.219E+07 42.5617 1.00000
  2.512E+13 2.512E+13 4.850E+00 2.630E+05 4.630E+06 2.724E+07 3.213E+07 3.213E+07 3.228E+07 42.7919 1.00000
  2.818E+13 2.818E+13 4.874E+00 2.951E+05 5.195E+06 3.127E+07 3.676E+07 3.676E+07 3.237E+07 43.0222 1.00000
  3.162E+13 3.162E+13 4.898E+00 3.311E+05 5.829E+06 3.590E+07 4.206E+07 4.206E+07 3.245E+07 43.2524 1.00000
  3.548E+13 3.548E+13 4.922E+00 3.715E+05 6.539E+06 4.122E+07 4.813E+07 4.813E+07 3.254E+07 43.4827 1.00000
  3.981E+13 3.981E+13 4.946E+00 4.168E+05 7.337E+06 4.733E+07 5.508E+07 5.508E+07 3.262E+07 43.7130 1.00000
  4.467E+13 4.467E+13 4.970E+00 4.677E+05 8.232E+06 5.435E+07 6.305E+07 6.305E+07 3.271E+07 43.9432 1.00000
  5.012E+13 5.012E+13 4.994E+00 5.247E+05 9.236E+06 6.240E+07 7.217E+07 7.217E+07 3.279E+07 44.1735 1.00000
  5.623E+13 5.623E+13 5.018E+00 5.888E+05 1.036E+07 7.166E+07 8.261E+07 8.261E+07 3.287E+07 44.4037 1.00000
  6.310E+13 6.310E+13 5.043E+00 6.606E+05 1.163E+07 8.230E+07 9.458E+07 9.458E+07 3.295E+07 44.6340 1.00000
  7.079E+13 7.079E+13 5.068E+00 7.412E+05 1.304E+07 9.451E+07 1.083E+08 1.083E+08 3.302E+07 44.8642 1.00000
  7.943E+13 7.943E+13 5.092E+00 8.317E+05 1.463E+07 1.085E+08 1.240E+08 1.240E+08 3.310E+07 45.0945 1.00000
  8.913E+13 8.913E+13 5.117E+00 9.331E+05 1.642E+07 1.247E+08 1.420E+08 1.420E+08 3.317E+07 45.3248 1.00000
