 Incident particle is a Tau with M = 1776.82000 MeV
 Index = 0: Trichloroethylene
      Absorber with <Z/A> = 0.48710
 Sternheimer coef:  a     k=m_s   x_0    x_1    I[eV]   Cbar  delta0
                 0.1827  3.0137  0.1803  2.9140  148.1  4.6148 0.00

 *** Table generated with PUMAS v1.00 ***

      T         p     Ionization  brems     pair     photonuc  Radloss    dE/dx   CSDA Range  delta   beta
    [MeV]    [MeV/c]  -----------------------[MeV cm^2/g]------------------------  [g/cm^2]
  1.000E+05 1.018E+05 2.113E+00 2.664E-04 4.258E-03 8.102E-03 1.263E-02 2.125E+00 2.353E+04  3.7637 0.99985
  1.122E+05 1.140E+05 2.133E+00 3.080E-04 5.117E-03 9.133E-03 1.456E-02 2.147E+00 2.924E+04  3.9554 0.99988
  1.259E+05 1.277E+05 2.153E+00 3.560E-04 6.130E-03 1.024E-02 1.673E-02 2.169E+00 3.558E+04  4.1505 0.99990
  1.413E+05 1.430E+05 2.172E+00 4.113E-04 7.321E-03 1.149E-02 1.922E-02 2.191E+00 4.263E+04  4.3488 0.99992
  1.585E+05 1.603E+05 2.192E+00 4.749E-04 8.719E-03 1.288E-02 2.207E-02 2.214E+00 5.045E+04  4.5501 0.99994
  1.778E+05 1.796E+05 2.211E+00 5.480E-04 1.036E-02 1.443E-02 2.533E-02 2.237E+00 5.914E+04  4.7542 0.99995
  1.995E+05 2.013E+05 2.231E+00 6.321E-04 1.227E-02 1.620E-02 2.910E-02 2.260E+00 6.880E+04  4.9610 0.99996
  2.239E+05 2.256E+05 2.250E+00 7.288E-04 1.451E-02 1.812E-02 3.336E-02 2.283E+00 7.951E+04  5.1703 0.99997
  2.512E+05 2.530E+05 2.269E+00 8.398E-04 1.711E-02 2.028E-02 3.823E-02 2.307E+00 9.142E+04  5.3821 0.99998
  2.818E+05 2.836E+05 2.287E+00 9.673E-04 2.014E-02 2.271E-02 4.382E-02 2.331E+00 1.046E+05  5.5961 0.99998
  3.162E+05 3.180E+05 2.306E+00 1.114E-03 2.365E-02 2.545E-02 5.022E-02 2.356E+00 1.193E+05  5.8122 0.99998
  3.548E+05 3.566E+05 2.325E+00 1.281E-03 2.773E-02 2.852E-02 5.753E-02 2.382E+00 1.356E+05  6.0302 0.99999
  3.981E+05 3.999E+05 2.343E+00 1.474E-03 3.244E-02 3.195E-02 6.586E-02 2.409E+00 1.537E+05  6.2500 0.99999
  4.467E+05 4.485E+05 2.361E+00 1.694E-03 3.788E-02 3.578E-02 7.536E-02 2.437E+00 1.737E+05  6.4715 0.99999
  5.012E+05 5.030E+05 2.379E+00 1.947E-03 4.417E-02 4.009E-02 8.621E-02 2.466E+00 1.960E+05  6.6944 0.99999
  5.623E+05 5.641E+05 2.397E+00 2.236E-03 5.141E-02 4.476E-02 9.840E-02 2.496E+00 2.206E+05  6.9187 1.00000
  6.310E+05 6.327E+05 2.415E+00 2.568E-03 5.974E-02 5.001E-02 1.123E-01 2.528E+00 2.479E+05  7.1442 1.00000
  7.079E+05 7.097E+05 2.433E+00 2.947E-03 6.931E-02 5.593E-02 1.282E-01 2.561E+00 2.782E+05  7.3708 1.00000
  7.943E+05 7.961E+05 2.451E+00 3.381E-03 8.030E-02 6.261E-02 1.463E-01 2.597E+00 3.117E+05  7.5983 1.00000
  8.913E+05 8.930E+05 2.468E+00 3.877E-03 9.290E-02 7.016E-02 1.669E-01 2.635E+00 3.487E+05  7.8265 1.00000
  1.000E+06 1.002E+06 2.485E+00 4.445E-03 1.073E-01 7.869E-02 1.905E-01 2.676E+00 3.897E+05  8.0554 1.00000
  1.122E+06 1.124E+06 2.503E+00 5.094E-03 1.238E-01 8.834E-02 2.173E-01 2.720E+00 4.349E+05  8.2847 1.00000
  1.259E+06 1.261E+06 2.520E+00 5.835E-03 1.427E-01 9.927E-02 2.478E-01 2.768E+00 4.848E+05  8.5144 1.00000
  1.413E+06 1.414E+06 2.537E+00 6.682E-03 1.643E-01 1.116E-01 2.826E-01 2.819E+00 5.398E+05  8.7443 1.00000
  1.585E+06 1.587E+06 2.554E+00 7.649E-03 1.888E-01 1.257E-01 3.221E-01 2.876E+00 6.003E+05  8.9743 1.00000
  1.778E+06 1.780E+06 2.570E+00 8.753E-03 2.168E-01 1.416E-01 3.671E-01 2.938E+00 6.669E+05  9.2043 1.00000
  1.995E+06 1.997E+06 2.587E+00 1.001E-02 2.487E-01 1.596E-01 4.183E-01 3.005E+00 7.399E+05  9.4344 1.00000
  2.239E+06 2.240E+06 2.604E+00 1.145E-02 2.849E-01 1.801E-01 4.764E-01 3.080E+00 8.199E+05  9.6645 1.00000
  2.512E+06 2.514E+06 2.620E+00 1.309E-02 3.260E-01 2.034E-01 5.425E-01 3.162E+00 9.075E+05  9.8945 1.00000
  2.818E+06 2.820E+06 2.636E+00 1.496E-02 3.728E-01 2.298E-01 6.176E-01 3.254E+00 1.003E+06 10.1246 1.00000
  3.162E+06 3.164E+06 2.652E+00 1.710E-02 4.258E-01 2.599E-01 7.028E-01 3.355E+00 1.107E+06 10.3548 1.00000
  3.548E+06 3.550E+06 2.668E+00 1.953E-02 4.859E-01 2.941E-01 7.995E-01 3.468E+00 1.220E+06 10.5849 1.00000
  3.981E+06 3.983E+06 2.684E+00 2.230E-02 5.540E-01 3.330E-01 9.092E-01 3.593E+00 1.343E+06 10.8151 1.00000
  4.467E+06 4.469E+06 2.700E+00 2.546E-02 6.310E-01 3.772E-01 1.034E+00 3.733E+00 1.476E+06 11.0452 1.00000
  5.012E+06 5.014E+06 2.715E+00 2.905E-02 7.182E-01 4.276E-01 1.175E+00 3.890E+00 1.619E+06 11.2754 1.00000
  5.623E+06 5.625E+06 2.730E+00 3.314E-02 8.168E-01 4.849E-01 1.335E+00 4.065E+00 1.772E+06 11.5056 1.00000
  6.310E+06 6.311E+06 2.746E+00 3.780E-02 9.281E-01 5.502E-01 1.516E+00 4.262E+00 1.937E+06 11.7358 1.00000
  7.079E+06 7.081E+06 2.761E+00 4.310E-02 1.054E+00 6.246E-01 1.722E+00 4.482E+00 2.114E+06 11.9660 1.00000
  7.943E+06 7.945E+06 2.775E+00 4.913E-02 1.196E+00 7.094E-01 1.954E+00 4.730E+00 2.301E+06 12.1962 1.00000
  8.913E+06 8.914E+06 2.790E+00 5.598E-02 1.356E+00 8.060E-01 2.218E+00 5.008E+00 2.500E+06 12.4264 1.00000
  1.000E+07 1.000E+07 2.805E+00 6.378E-02 1.537E+00 9.160E-01 2.517E+00 5.321E+00 2.711E+06 12.6566 1.00000
  1.122E+07 1.122E+07 2.819E+00 7.263E-02 1.740E+00 1.041E+00 2.855E+00 5.674E+00 2.933E+06 12.8868 1.00000
  1.259E+07 1.259E+07 2.833E+00 8.270E-02 1.970E+00 1.185E+00 3.237E+00 6.071E+00 3.167E+06 13.1170 1.00000
  1.413E+07 1.413E+07 2.848E+00 9.413E-02 2.228E+00 1.348E+00 3.670E+00 6.518E+00 3.411E+06 13.3473 1.00000
  1.585E+07 1.585E+07 2.862E+00 1.071E-01 2.520E+00 1.534E+00 4.160E+00 7.022E+00 3.666E+06 13.5775 1.00000
  1.778E+07 1.778E+07 2.876E+00 1.218E-01 2.847E+00 1.746E+00 4.715E+00 7.591E+00 3.931E+06 13.8077 1.00000
  1.995E+07 1.995E+07 2.890E+00 1.386E-01 3.216E+00 1.988E+00 5.342E+00 8.232E+00 4.206E+06 14.0380 1.00000
  2.239E+07 2.239E+07 2.903E+00 1.575E-01 3.631E+00 2.264E+00 6.052E+00 8.956E+00 4.490E+06 14.2682 1.00000
  2.512E+07 2.512E+07 2.917E+00 1.791E-01 4.098E+00 2.579E+00 6.856E+00 9.773E+00 4.782E+06 14.4984 1.00000
  2.818E+07 2.819E+07 2.931E+00 2.035E-01 4.623E+00 2.938E+00 7.764E+00 1.070E+01 5.082E+06 14.7287 1.00000
  3.162E+07 3.162E+07 2.945E+00 2.311E-01 5.213E+00 3.348E+00 8.792E+00 1.174E+01 5.389E+06 14.9589 1.00000
  3.548E+07 3.548E+07 2.958E+00 2.624E-01 5.877E+00 3.816E+00 9.955E+00 1.291E+01 5.703E+06 15.1892 1.00000
  3.981E+07 3.981E+07 2.972E+00 2.979E-01 6.622E+00 4.350E+00 1.127E+01 1.424E+01 6.023E+06 15.4194 1.00000
  4.467E+07 4.467E+07 2.985E+00 3.382E-01 7.460E+00 4.960E+00 1.276E+01 1.574E+01 6.348E+06 15.6497 1.00000
  5.012E+07 5.012E+07 2.999E+00 3.837E-01 8.402E+00 5.656E+00 1.444E+01 1.744E+01 6.677E+06 15.8799 1.00000
  5.623E+07 5.624E+07 3.012E+00 4.352E-01 9.460E+00 6.450E+00 1.635E+01 1.936E+01 7.010E+06 16.1102 1.00000
  6.310E+07 6.310E+07 3.026E+00 4.935E-01 1.065E+01 7.357E+00 1.850E+01 2.153E+01 7.347E+06 16.3404 1.00000
  7.079E+07 7.080E+07 3.039E+00 5.594E-01 1.198E+01 8.393E+00 2.094E+01 2.398E+01 7.686E+06 16.5707 1.00000
  7.943E+07 7.943E+07 3.053E+00 6.340E-01 1.348E+01 9.575E+00 2.369E+01 2.674E+01 8.028E+06 16.8009 1.00000
  8.913E+07 8.913E+07 3.067E+00 7.183E-01 1.517E+01 1.093E+01 2.681E+01 2.988E+01 8.371E+06 17.0312 1.00000
  1.000E+08 1.000E+08 3.080E+00 8.135E-01 1.706E+01 1.247E+01 3.034E+01 3.342E+01 8.716E+06 17.2614 1.00000
  1.122E+08 1.122E+08 3.094E+00 9.212E-01 1.918E+01 1.423E+01 3.433E+01 3.742E+01 9.062E+06 17.4917 1.00000
  1.259E+08 1.259E+08 3.107E+00 1.043E+00 2.156E+01 1.624E+01 3.884E+01 4.195E+01 9.408E+06 17.7219 1.00000
  1.413E+08 1.413E+08 3.121E+00 1.180E+00 2.424E+01 1.854E+01 4.395E+01 4.708E+01 9.754E+06 17.9522 1.00000
  1.585E+08 1.585E+08 3.135E+00 1.335E+00 2.724E+01 2.116E+01 4.974E+01 5.287E+01 1.010E+07 18.1825 1.00000
  1.778E+08 1.778E+08 3.149E+00 1.510E+00 3.061E+01 2.416E+01 5.628E+01 5.943E+01 1.045E+07 18.4127 1.00000
  1.995E+08 1.995E+08 3.162E+00 1.707E+00 3.440E+01 2.758E+01 6.369E+01 6.685E+01 1.079E+07 18.6430 1.00000
  2.239E+08 2.239E+08 3.176E+00 1.930E+00 3.865E+01 3.149E+01 7.207E+01 7.524E+01 1.113E+07 18.8732 1.00000
  2.512E+08 2.512E+08 3.190E+00 2.181E+00 4.342E+01 3.596E+01 8.156E+01 8.475E+01 1.148E+07 19.1035 1.00000
  2.818E+08 2.818E+08 3.204E+00 2.464E+00 4.877E+01 4.106E+01 9.230E+01 9.550E+01 1.182E+07 19.3337 1.00000
  3.162E+08 3.162E+08 3.218E+00 2.783E+00 5.477E+01 4.690E+01 1.045E+02 1.077E+02 1.216E+07 19.5640 1.00000
  3.548E+08 3.548E+08 3.232E+00 3.143E+00 6.152E+01 5.356E+01 1.182E+02 1.215E+02 1.250E+07 19.7943 1.00000
  3.981E+08 3.981E+08 3.247E+00 3.548E+00 6.908E+01 6.118E+01 1.338E+02 1.371E+02 1.283E+07 20.0245 1.00000
  4.467E+08 4.467E+08 3.261E+00 4.004E+00 7.757E+01 6.988E+01 1.515E+02 1.547E+02 1.317E+07 20.2548 1.00000
  5.012E+08 5.012E+08 3.275E+00 4.518E+00 8.710E+01 7.983E+01 1.715E+02 1.747E+02 1.350E+07 20.4850 1.00000
  5.623E+08 5.623E+08 3.290E+00 5.097E+00 9.779E+01 9.120E+01 1.941E+02 1.974E+02 1.383E+07 20.7153 1.00000
  6.310E+08 6.310E+08 3.304E+00 5.749E+00 1.098E+02 1.042E+02 2.197E+02 2.230E+02 1.416E+07 20.9455 1.00000
  7.079E+08 7.079E+08 3.319E+00 6.482E+00 1.233E+02 1.191E+02 2.488E+02 2.521E+02 1.448E+07 21.1758 1.00000
  7.943E+08 7.943E+08 3.333E+00 7.307E+00 1.384E+02 1.360E+02 2.817E+02 2.850E+02 1.480E+07 21.4061 1.00000
  8.913E+08 8.913E+08 3.348E+00 8.235E+00 1.553E+02 1.554E+02 3.190E+02 3.223E+02 1.512E+07 21.6363 1.00000
  1.000E+09 1.000E+09 3.363E+00 9.280E+00 1.743E+02 1.776E+02 3.613E+02 3.646E+02 1.544E+07 21.8666 1.00000
  1.122E+09 1.122E+09 3.378E+00 1.045E+01 1.957E+02 2.030E+02 4.091E+02 4.125E+02 1.576E+07 22.0968 1.00000
  1.259E+09 1.259E+09 3.392E+00 1.178E+01 2.196E+02 2.320E+02 4.634E+02 4.668E+02 1.607E+07 22.3271 1.00000
  1.413E+09 1.413E+09 3.407E+00 1.326E+01 2.465E+02 2.652E+02 5.250E+02 5.284E+02 1.638E+07 22.5573 1.00000
  1.585E+09 1.585E+09 3.423E+00 1.493E+01 2.767E+02 3.031E+02 5.947E+02 5.981E+02 1.669E+07 22.7876 1.00000
  1.778E+09 1.778E+09 3.438E+00 1.681E+01 3.105E+02 3.465E+02 6.738E+02 6.772E+02 1.699E+07 23.0179 1.00000
  1.995E+09 1.995E+09 3.453E+00 1.892E+01 3.485E+02 3.961E+02 7.635E+02 7.669E+02 1.729E+07 23.2481 1.00000
  2.239E+09 2.239E+09 3.468E+00 2.129E+01 3.911E+02 4.528E+02 8.652E+02 8.686E+02 1.759E+07 23.4784 1.00000
  2.512E+09 2.512E+09 3.484E+00 2.395E+01 4.389E+02 5.176E+02 9.805E+02 9.840E+02 1.789E+07 23.7086 1.00000
  2.818E+09 2.818E+09 3.499E+00 2.695E+01 4.925E+02 5.918E+02 1.111E+03 1.115E+03 1.818E+07 23.9389 1.00000
  3.162E+09 3.162E+09 3.515E+00 3.031E+01 5.527E+02 6.767E+02 1.260E+03 1.263E+03 1.847E+07 24.1692 1.00000
  3.548E+09 3.548E+09 3.531E+00 3.409E+01 6.203E+02 7.737E+02 1.428E+03 1.432E+03 1.876E+07 24.3994 1.00000
  3.981E+09 3.981E+09 3.546E+00 3.833E+01 6.960E+02 8.848E+02 1.619E+03 1.623E+03 1.904E+07 24.6297 1.00000
  4.467E+09 4.467E+09 3.562E+00 4.309E+01 7.810E+02 1.012E+03 1.836E+03 1.840E+03 1.933E+07 24.8599 1.00000
  5.012E+09 5.012E+09 3.578E+00 4.845E+01 8.764E+02 1.157E+03 2.082E+03 2.086E+03 1.960E+07 25.0902 1.00000
  5.623E+09 5.623E+09 3.594E+00 5.446E+01 9.835E+02 1.323E+03 2.361E+03 2.365E+03 1.988E+07 25.3204 1.00000
  6.310E+09 6.310E+09 3.610E+00 6.121E+01 1.104E+03 1.514E+03 2.678E+03 2.682E+03 2.015E+07 25.5507 1.00000
  7.079E+09 7.079E+09 3.626E+00 6.878E+01 1.238E+03 1.731E+03 3.038E+03 3.042E+03 2.042E+07 25.7810 1.00000
  7.943E+09 7.943E+09 3.643E+00 7.729E+01 1.389E+03 1.980E+03 3.447E+03 3.451E+03 2.069E+07 26.0112 1.00000
  8.913E+09 8.913E+09 3.659E+00 8.684E+01 1.559E+03 2.265E+03 3.911E+03 3.915E+03 2.095E+07 26.2415 1.00000
  1.000E+10 1.000E+10 3.676E+00 9.757E+01 1.749E+03 2.592E+03 4.439E+03 4.442E+03 2.122E+07 26.4717 1.00000
  1.122E+10 1.122E+10 3.692E+00 1.096E+02 1.963E+03 2.965E+03 5.038E+03 5.041E+03 2.147E+07 26.7020 1.00000
  1.259E+10 1.259E+10 3.709E+00 1.231E+02 2.203E+03 3.392E+03 5.718E+03 5.722E+03 2.173E+07 26.9323 1.00000
  1.413E+10 1.413E+10 3.726E+00 1.383E+02 2.471E+03 3.881E+03 6.491E+03 6.495E+03 2.198E+07 27.1625 1.00000
  1.585E+10 1.585E+10 3.743E+00 1.553E+02 2.773E+03 4.441E+03 7.369E+03 7.373E+03 2.223E+07 27.3928 1.00000
  1.778E+10 1.778E+10 3.760E+00 1.744E+02 3.111E+03 5.082E+03 8.368E+03 8.371E+03 2.248E+07 27.6230 1.00000
  1.995E+10 1.995E+10 3.777E+00 1.959E+02 3.491E+03 5.815E+03 9.502E+03 9.506E+03 2.272E+07 27.8533 1.00000
  2.239E+10 2.239E+10 3.794E+00 2.200E+02 3.917E+03 6.655E+03 1.079E+04 1.080E+04 2.296E+07 28.0836 1.00000
  2.512E+10 2.512E+10 3.811E+00 2.470E+02 4.395E+03 7.617E+03 1.226E+04 1.226E+04 2.320E+07 28.3138 1.00000
  2.818E+10 2.818E+10 3.828E+00 2.773E+02 4.932E+03 8.717E+03 1.393E+04 1.393E+04 2.344E+07 28.5441 1.00000
  3.162E+10 3.162E+10 3.846E+00 3.113E+02 5.533E+03 9.978E+03 1.582E+04 1.583E+04 2.367E+07 28.7743 1.00000
  3.548E+10 3.548E+10 3.863E+00 3.495E+02 6.208E+03 1.142E+04 1.798E+04 1.798E+04 2.390E+07 29.0046 1.00000
  3.981E+10 3.981E+10 3.881E+00 3.924E+02 6.966E+03 1.307E+04 2.043E+04 2.044E+04 2.412E+07 29.2348 1.00000
  4.467E+10 4.467E+10 3.899E+00 4.405E+02 7.816E+03 1.497E+04 2.322E+04 2.323E+04 2.435E+07 29.4651 1.00000
  5.012E+10 5.012E+10 3.917E+00 4.944E+02 8.769E+03 1.713E+04 2.640E+04 2.640E+04 2.457E+07 29.6954 1.00000
  5.623E+10 5.623E+10 3.934E+00 5.550E+02 9.839E+03 1.962E+04 3.001E+04 3.001E+04 2.479E+07 29.9256 1.00000
  6.310E+10 6.310E+10 3.953E+00 6.230E+02 1.104E+04 2.246E+04 3.412E+04 3.413E+04 2.500E+07 30.1559 1.00000
  7.079E+10 7.079E+10 3.971E+00 6.992E+02 1.239E+04 2.572E+04 3.880E+04 3.881E+04 2.521E+07 30.3861 1.00000
  7.943E+10 7.943E+10 3.989E+00 7.848E+02 1.390E+04 2.945E+04 4.413E+04 4.413E+04 2.542E+07 30.6164 1.00000
  8.913E+10 8.913E+10 4.007E+00 8.809E+02 1.559E+04 3.372E+04 5.019E+04 5.020E+04 2.563E+07 30.8467 1.00000
  1.000E+11 1.000E+11 4.026E+00 9.886E+02 1.750E+04 3.862E+04 5.710E+04 5.710E+04 2.583E+07 31.0769 1.00000
  1.122E+11 1.122E+11 4.044E+00 1.110E+03 1.963E+04 4.422E+04 6.496E+04 6.497E+04 2.603E+07 31.3072 1.00000
  1.259E+11 1.259E+11 4.063E+00 1.245E+03 2.203E+04 5.065E+04 7.392E+04 7.393E+04 2.623E+07 31.5374 1.00000
  1.413E+11 1.413E+11 4.082E+00 1.397E+03 2.471E+04 5.801E+04 8.412E+04 8.413E+04 2.642E+07 31.7677 1.00000
  1.585E+11 1.585E+11 4.101E+00 1.568E+03 2.773E+04 6.645E+04 9.575E+04 9.575E+04 2.662E+07 31.9979 1.00000
  1.778E+11 1.778E+11 4.120E+00 1.760E+03 3.111E+04 7.612E+04 1.090E+05 1.090E+05 2.681E+07 32.2282 1.00000
  1.995E+11 1.995E+11 4.139E+00 1.975E+03 3.490E+04 8.720E+04 1.241E+05 1.241E+05 2.699E+07 32.4585 1.00000
  2.239E+11 2.239E+11 4.158E+00 2.216E+03 3.916E+04 9.989E+04 1.413E+05 1.413E+05 2.718E+07 32.6887 1.00000
  2.512E+11 2.512E+11 4.177E+00 2.487E+03 4.394E+04 1.144E+05 1.609E+05 1.609E+05 2.736E+07 32.9190 1.00000
  2.818E+11 2.818E+11 4.197E+00 2.791E+03 4.930E+04 1.311E+05 1.832E+05 1.832E+05 2.754E+07 33.1492 1.00000
  3.162E+11 3.162E+11 4.216E+00 3.132E+03 5.531E+04 1.502E+05 2.087E+05 2.087E+05 2.772E+07 33.3795 1.00000
  3.548E+11 3.548E+11 4.236E+00 3.514E+03 6.206E+04 1.721E+05 2.377E+05 2.377E+05 2.789E+07 33.6098 1.00000
  3.981E+11 3.981E+11 4.255E+00 3.944E+03 6.963E+04 1.973E+05 2.708E+05 2.708E+05 2.806E+07 33.8400 1.00000
  4.467E+11 4.467E+11 4.275E+00 4.425E+03 7.812E+04 2.261E+05 3.086E+05 3.086E+05 2.823E+07 34.0703 1.00000
  5.012E+11 5.012E+11 4.295E+00 4.965E+03 8.765E+04 2.591E+05 3.517E+05 3.517E+05 2.839E+07 34.3005 1.00000
  5.623E+11 5.623E+11 4.315E+00 5.572E+03 9.835E+04 2.969E+05 4.008E+05 4.008E+05 2.856E+07 34.5308 1.00000
  6.310E+11 6.310E+11 4.336E+00 6.252E+03 1.103E+05 3.403E+05 4.569E+05 4.569E+05 2.872E+07 34.7610 1.00000
  7.079E+11 7.079E+11 4.356E+00 7.015E+03 1.238E+05 3.900E+05 5.209E+05 5.209E+05 2.888E+07 34.9913 1.00000
  7.943E+11 7.943E+11 4.376E+00 7.872E+03 1.389E+05 4.471E+05 5.939E+05 5.939E+05 2.903E+07 35.2216 1.00000
  8.913E+11 8.913E+11 4.397E+00 8.833E+03 1.558E+05 5.125E+05 6.772E+05 6.772E+05 2.918E+07 35.4518 1.00000
  1.000E+12 1.000E+12 4.417E+00 9.911E+03 1.749E+05 5.875E+05 7.723E+05 7.723E+05 2.934E+07 35.6821 1.00000
  1.122E+12 1.122E+12 4.438E+00 1.112E+04 1.962E+05 6.735E+05 8.808E+05 8.808E+05 2.948E+07 35.9123 1.00000
  1.259E+12 1.259E+12 4.459E+00 1.248E+04 2.201E+05 7.722E+05 1.005E+06 1.005E+06 2.963E+07 36.1426 1.00000
  1.413E+12 1.413E+12 4.480E+00 1.400E+04 2.470E+05 8.854E+05 1.146E+06 1.146E+06 2.977E+07 36.3729 1.00000
  1.585E+12 1.585E+12 4.501E+00 1.571E+04 2.771E+05 1.015E+06 1.308E+06 1.308E+06 2.991E+07 36.6031 1.00000
  1.778E+12 1.778E+12 4.522E+00 1.763E+04 3.109E+05 1.164E+06 1.493E+06 1.493E+06 3.005E+07 36.8334 1.00000
  1.995E+12 1.995E+12 4.544E+00 1.978E+04 3.488E+05 1.335E+06 1.703E+06 1.703E+06 3.019E+07 37.0636 1.00000
  2.239E+12 2.239E+12 4.565E+00 2.219E+04 3.913E+05 1.531E+06 1.944E+06 1.944E+06 3.032E+07 37.2939 1.00000
  2.512E+12 2.512E+12 4.587E+00 2.490E+04 4.391E+05 1.756E+06 2.219E+06 2.219E+06 3.045E+07 37.5241 1.00000
  2.818E+12 2.818E+12 4.608E+00 2.794E+04 4.926E+05 2.013E+06 2.534E+06 2.534E+06 3.058E+07 37.7544 1.00000
  3.162E+12 3.162E+12 4.630E+00 3.135E+04 5.527E+05 2.309E+06 2.893E+06 2.893E+06 3.071E+07 37.9847 1.00000
  3.548E+12 3.548E+12 4.652E+00 3.517E+04 6.201E+05 2.649E+06 3.304E+06 3.304E+06 3.084E+07 38.2149 1.00000
  3.981E+12 3.981E+12 4.674E+00 3.947E+04 6.958E+05 3.038E+06 3.773E+06 3.774E+06 3.096E+07 38.4452 1.00000
  4.467E+12 4.467E+12 4.696E+00 4.428E+04 7.806E+05 3.485E+06 4.310E+06 4.310E+06 3.108E+07 38.6754 1.00000
  5.012E+12 5.012E+12 4.719E+00 4.969E+04 8.758E+05 3.998E+06 4.924E+06 4.924E+06 3.120E+07 38.9057 1.00000
  5.623E+12 5.623E+12 4.741E+00 5.575E+04 9.827E+05 4.587E+06 5.625E+06 5.625E+06 3.132E+07 39.1360 1.00000
  6.310E+12 6.310E+12 4.764E+00 6.255E+04 1.103E+06 5.263E+06 6.428E+06 6.428E+06 3.143E+07 39.3662 1.00000
  7.079E+12 7.079E+12 4.786E+00 7.019E+04 1.237E+06 6.038E+06 7.345E+06 7.345E+06 3.154E+07 39.5965 1.00000
  7.943E+12 7.943E+12 4.809E+00 7.875E+04 1.388E+06 6.928E+06 8.395E+06 8.395E+06 3.165E+07 39.8267 1.00000
  8.913E+12 8.913E+12 4.832E+00 8.836E+04 1.557E+06 7.950E+06 9.595E+06 9.595E+06 3.176E+07 40.0570 1.00000
  1.000E+13 1.000E+13 4.855E+00 9.914E+04 1.747E+06 9.122E+06 1.097E+07 1.097E+07 3.187E+07 40.2873 1.00000
  1.122E+13 1.122E+13 4.878E+00 1.112E+05 1.960E+06 1.047E+07 1.254E+07 1.254E+07 3.197E+07 40.5175 1.00000
  1.259E+13 1.259E+13 4.901E+00 1.248E+05 2.199E+06 1.201E+07 1.434E+07 1.434E+07 3.207E+07 40.7478 1.00000
  1.413E+13 1.413E+13 4.925E+00 1.400E+05 2.467E+06 1.379E+07 1.640E+07 1.640E+07 3.217E+07 40.9780 1.00000
  1.585E+13 1.585E+13 4.948E+00 1.571E+05 2.768E+06 1.583E+07 1.875E+07 1.875E+07 3.227E+07 41.2083 1.00000
  1.778E+13 1.778E+13 4.972E+00 1.763E+05 3.106E+06 1.816E+07 2.145E+07 2.145E+07 3.237E+07 41.4385 1.00000
  1.995E+13 1.995E+13 4.996E+00 1.978E+05 3.485E+06 2.085E+07 2.453E+07 2.453E+07 3.246E+07 41.6688 1.00000
  2.239E+13 2.239E+13 5.020E+00 2.220E+05 3.910E+06 2.393E+07 2.807E+07 2.807E+07 3.256E+07 41.8991 1.00000
  2.512E+13 2.512E+13 5.044E+00 2.490E+05 4.387E+06 2.748E+07 3.211E+07 3.211E+07 3.265E+07 42.1293 1.00000
  2.818E+13 2.818E+13 5.068E+00 2.794E+05 4.922E+06 3.154E+07 3.674E+07 3.674E+07 3.274E+07 42.3596 1.00000
  3.162E+13 3.162E+13 5.092E+00 3.135E+05 5.522E+06 3.621E+07 4.205E+07 4.205E+07 3.283E+07 42.5898 1.00000
  3.548E+13 3.548E+13 5.117E+00 3.518E+05 6.195E+06 4.158E+07 4.812E+07 4.812E+07 3.291E+07 42.8201 1.00000
  3.981E+13 3.981E+13 5.141E+00 3.947E+05 6.951E+06 4.774E+07 5.508E+07 5.508E+07 3.300E+07 43.0504 1.00000
  4.467E+13 4.467E+13 5.166E+00 4.429E+05 7.798E+06 5.481E+07 6.305E+07 6.305E+07 3.308E+07 43.2806 1.00000
  5.012E+13 5.012E+13 5.191E+00 4.969E+05 8.750E+06 6.294E+07 7.219E+07 7.219E+07 3.316E+07 43.5109 1.00000
  5.623E+13 5.623E+13 5.216E+00 5.575E+05 9.817E+06 7.228E+07 8.265E+07 8.265E+07 3.324E+07 43.7411 1.00000
  6.310E+13 6.310E+13 5.241E+00 6.256E+05 1.101E+07 8.300E+07 9.464E+07 9.464E+07 3.332E+07 43.9714 1.00000
  7.079E+13 7.079E+13 5.266E+00 7.019E+05 1.236E+07 9.533E+07 1.084E+08 1.084E+08 3.339E+07 44.2016 1.00000
  7.943E+13 7.943E+13 5.292E+00 7.875E+05 1.386E+07 1.095E+08 1.241E+08 1.241E+08 3.347E+07 44.4319 1.00000
  8.913E+13 8.913E+13 5.317E+00 8.836E+05 1.555E+07 1.257E+08 1.422E+08 1.422E+08 3.354E+07 44.6622 1.00000
