 Incident particle is a Tau with M = 1776.82000 MeV
 Index = 0: TriethylPhosphate
      Absorber with <Z/A> = 0.53794
 Sternheimer coef:  a     k=m_s   x_0    x_1    I[eV]   Cbar  delta0
                 0.0692  3.6302  0.2054  2.9428   81.2  3.6242 0.00

 *** Table generated with PUMAS v1.00 ***

      T         p     Ionization  brems     pair     photonuc  Radloss    dE/dx   CSDA Range  delta   beta
    [MeV]    [MeV/c]  -----------------------[MeV cm^2/g]------------------------  [g/cm^2]
  1.000E+05 1.018E+05 2.363E+00 1.529E-04 2.396E-03 8.350E-03 1.090E-02 2.374E+00 2.106E+04  4.5995 0.99985
  1.122E+05 1.140E+05 2.384E+00 1.766E-04 2.890E-03 9.430E-03 1.250E-02 2.397E+00 2.617E+04  4.8078 0.99988
  1.259E+05 1.277E+05 2.405E+00 2.040E-04 3.474E-03 1.059E-02 1.427E-02 2.419E+00 3.186E+04  5.0183 0.99990
  1.413E+05 1.430E+05 2.425E+00 2.354E-04 4.162E-03 1.191E-02 1.630E-02 2.442E+00 3.818E+04  5.2311 0.99992
  1.585E+05 1.603E+05 2.446E+00 2.716E-04 4.971E-03 1.337E-02 1.861E-02 2.465E+00 4.521E+04  5.4458 0.99994
  1.778E+05 1.796E+05 2.466E+00 3.133E-04 5.919E-03 1.501E-02 2.124E-02 2.488E+00 5.302E+04  5.6625 0.99995
  1.995E+05 2.013E+05 2.487E+00 3.611E-04 7.030E-03 1.688E-02 2.427E-02 2.511E+00 6.170E+04  5.8808 0.99996
  2.239E+05 2.256E+05 2.507E+00 4.161E-04 8.329E-03 1.892E-02 2.767E-02 2.535E+00 7.135E+04  6.1006 0.99997
  2.512E+05 2.530E+05 2.527E+00 4.792E-04 9.843E-03 2.122E-02 3.154E-02 2.559E+00 8.208E+04  6.3219 0.99998
  2.818E+05 2.836E+05 2.547E+00 5.516E-04 1.161E-02 2.380E-02 3.596E-02 2.583E+00 9.400E+04  6.5445 0.99998
  3.162E+05 3.180E+05 2.567E+00 6.347E-04 1.366E-02 2.672E-02 4.101E-02 2.608E+00 1.072E+05  6.7682 0.99998
  3.548E+05 3.566E+05 2.587E+00 7.300E-04 1.603E-02 2.999E-02 4.676E-02 2.634E+00 1.220E+05  6.9930 0.99999
  3.981E+05 3.999E+05 2.607E+00 8.393E-04 1.879E-02 3.365E-02 5.328E-02 2.660E+00 1.383E+05  7.2187 0.99999
  4.467E+05 4.485E+05 2.627E+00 9.646E-04 2.198E-02 3.776E-02 6.070E-02 2.687E+00 1.565E+05  7.4452 0.99999
  5.012E+05 5.030E+05 2.646E+00 1.108E-03 2.566E-02 4.237E-02 6.914E-02 2.715E+00 1.767E+05  7.6724 0.99999
  5.623E+05 5.641E+05 2.666E+00 1.273E-03 2.991E-02 4.738E-02 7.856E-02 2.744E+00 1.991E+05  7.9002 1.00000
  6.310E+05 6.327E+05 2.685E+00 1.461E-03 3.481E-02 5.302E-02 8.930E-02 2.775E+00 2.239E+05  8.1285 1.00000
  7.079E+05 7.097E+05 2.705E+00 1.677E-03 4.045E-02 5.939E-02 1.015E-01 2.806E+00 2.515E+05  8.3573 1.00000
  7.943E+05 7.961E+05 2.724E+00 1.923E-03 4.693E-02 6.659E-02 1.154E-01 2.840E+00 2.821E+05  8.5864 1.00000
  8.913E+05 8.930E+05 2.743E+00 2.206E-03 5.437E-02 7.472E-02 1.313E-01 2.875E+00 3.161E+05  8.8158 1.00000
  1.000E+06 1.002E+06 2.762E+00 2.529E-03 6.290E-02 8.392E-02 1.493E-01 2.912E+00 3.536E+05  9.0454 1.00000
  1.122E+06 1.124E+06 2.781E+00 2.898E-03 7.268E-02 9.433E-02 1.699E-01 2.951E+00 3.953E+05  9.2751 1.00000
  1.259E+06 1.261E+06 2.800E+00 3.321E-03 8.386E-02 1.061E-01 1.933E-01 2.994E+00 4.413E+05  9.5050 1.00000
  1.413E+06 1.414E+06 2.819E+00 3.803E-03 9.665E-02 1.195E-01 2.199E-01 3.039E+00 4.923E+05  9.7349 1.00000
  1.585E+06 1.587E+06 2.838E+00 4.355E-03 1.113E-01 1.347E-01 2.503E-01 3.088E+00 5.485E+05  9.9649 1.00000
  1.778E+06 1.780E+06 2.856E+00 4.986E-03 1.279E-01 1.519E-01 2.848E-01 3.141E+00 6.106E+05 10.1949 1.00000
  1.995E+06 1.997E+06 2.875E+00 5.706E-03 1.469E-01 1.714E-01 3.240E-01 3.199E+00 6.791E+05 10.4250 1.00000
  2.239E+06 2.240E+06 2.893E+00 6.528E-03 1.685E-01 1.936E-01 3.686E-01 3.261E+00 7.545E+05 10.6551 1.00000
  2.512E+06 2.514E+06 2.911E+00 7.467E-03 1.931E-01 2.188E-01 4.194E-01 3.330E+00 8.374E+05 10.8851 1.00000
  2.818E+06 2.820E+06 2.929E+00 8.539E-03 2.211E-01 2.474E-01 4.771E-01 3.406E+00 9.284E+05 11.1152 1.00000
  3.162E+06 3.164E+06 2.947E+00 9.762E-03 2.529E-01 2.800E-01 5.426E-01 3.489E+00 1.028E+06 11.3454 1.00000
  3.548E+06 3.550E+06 2.964E+00 1.116E-02 2.889E-01 3.170E-01 6.171E-01 3.581E+00 1.137E+06 11.5755 1.00000
  3.981E+06 3.983E+06 2.982E+00 1.275E-02 3.298E-01 3.592E-01 7.018E-01 3.683E+00 1.257E+06 11.8057 1.00000
  4.467E+06 4.469E+06 2.999E+00 1.456E-02 3.762E-01 4.071E-01 7.979E-01 3.797E+00 1.386E+06 12.0358 1.00000
  5.012E+06 5.014E+06 3.016E+00 1.663E-02 4.287E-01 4.618E-01 9.071E-01 3.923E+00 1.528E+06 12.2660 1.00000
  5.623E+06 5.625E+06 3.033E+00 1.899E-02 4.881E-01 5.240E-01 1.031E+00 4.064E+00 1.681E+06 12.4962 1.00000
  6.310E+06 6.311E+06 3.050E+00 2.168E-02 5.553E-01 5.948E-01 1.172E+00 4.221E+00 1.847E+06 12.7264 1.00000
  7.079E+06 7.081E+06 3.066E+00 2.473E-02 6.313E-01 6.755E-01 1.331E+00 4.398E+00 2.025E+06 12.9566 1.00000
  7.943E+06 7.945E+06 3.083E+00 2.822E-02 7.171E-01 7.674E-01 1.513E+00 4.595E+00 2.217E+06 13.1868 1.00000
  8.913E+06 8.914E+06 3.099E+00 3.218E-02 8.141E-01 8.722E-01 1.718E+00 4.817E+00 2.424E+06 13.4170 1.00000
  1.000E+07 1.000E+07 3.115E+00 3.670E-02 9.235E-01 9.916E-01 1.952E+00 5.067E+00 2.644E+06 13.6472 1.00000
  1.122E+07 1.122E+07 3.131E+00 4.183E-02 1.047E+00 1.128E+00 2.217E+00 5.347E+00 2.878E+06 13.8774 1.00000
  1.259E+07 1.259E+07 3.147E+00 4.767E-02 1.186E+00 1.283E+00 2.517E+00 5.664E+00 3.127E+06 14.1076 1.00000
  1.413E+07 1.413E+07 3.162E+00 5.431E-02 1.343E+00 1.460E+00 2.858E+00 6.020E+00 3.390E+06 14.3379 1.00000
  1.585E+07 1.585E+07 3.178E+00 6.186E-02 1.520E+00 1.662E+00 3.244E+00 6.422E+00 3.668E+06 14.5681 1.00000
  1.778E+07 1.778E+07 3.193E+00 7.044E-02 1.719E+00 1.892E+00 3.682E+00 6.875E+00 3.959E+06 14.7983 1.00000
  1.995E+07 1.995E+07 3.209E+00 8.019E-02 1.944E+00 2.155E+00 4.179E+00 7.387E+00 4.264E+06 15.0286 1.00000
  2.239E+07 2.239E+07 3.224E+00 9.125E-02 2.196E+00 2.455E+00 4.742E+00 7.966E+00 4.581E+06 15.2588 1.00000
  2.512E+07 2.512E+07 3.239E+00 1.038E-01 2.481E+00 2.796E+00 5.381E+00 8.620E+00 4.911E+06 15.4890 1.00000
  2.818E+07 2.819E+07 3.254E+00 1.181E-01 2.801E+00 3.187E+00 6.105E+00 9.359E+00 5.253E+06 15.7193 1.00000
  3.162E+07 3.162E+07 3.269E+00 1.343E-01 3.160E+00 3.632E+00 6.926E+00 1.020E+01 5.605E+06 15.9495 1.00000
  3.548E+07 3.548E+07 3.284E+00 1.526E-01 3.565E+00 4.140E+00 7.857E+00 1.114E+01 5.967E+06 16.1798 1.00000
  3.981E+07 3.981E+07 3.299E+00 1.735E-01 4.020E+00 4.720E+00 8.913E+00 1.221E+01 6.339E+06 16.4100 1.00000
  4.467E+07 4.467E+07 3.314E+00 1.971E-01 4.532E+00 5.382E+00 1.011E+01 1.342E+01 6.719E+06 16.6403 1.00000
  5.012E+07 5.012E+07 3.329E+00 2.238E-01 5.107E+00 6.137E+00 1.147E+01 1.480E+01 7.106E+06 16.8705 1.00000
  5.623E+07 5.624E+07 3.344E+00 2.541E-01 5.753E+00 7.000E+00 1.301E+01 1.635E+01 7.499E+06 17.1008 1.00000
  6.310E+07 6.310E+07 3.359E+00 2.884E-01 6.479E+00 7.985E+00 1.475E+01 1.811E+01 7.899E+06 17.3310 1.00000
  7.079E+07 7.080E+07 3.374E+00 3.273E-01 7.294E+00 9.109E+00 1.673E+01 2.010E+01 8.303E+06 17.5613 1.00000
  7.943E+07 7.943E+07 3.389E+00 3.713E-01 8.211E+00 1.039E+01 1.897E+01 2.236E+01 8.711E+06 17.7915 1.00000
  8.913E+07 8.913E+07 3.404E+00 4.211E-01 9.240E+00 1.186E+01 2.152E+01 2.492E+01 9.122E+06 18.0218 1.00000
  1.000E+08 1.000E+08 3.419E+00 4.775E-01 1.040E+01 1.353E+01 2.441E+01 2.783E+01 9.535E+06 18.2520 1.00000
  1.122E+08 1.122E+08 3.434E+00 5.412E-01 1.169E+01 1.544E+01 2.768E+01 3.111E+01 9.951E+06 18.4823 1.00000
  1.259E+08 1.259E+08 3.449E+00 6.132E-01 1.315E+01 1.763E+01 3.139E+01 3.484E+01 1.037E+07 18.7125 1.00000
  1.413E+08 1.413E+08 3.464E+00 6.947E-01 1.479E+01 2.012E+01 3.560E+01 3.907E+01 1.078E+07 18.9428 1.00000
  1.585E+08 1.585E+08 3.479E+00 7.867E-01 1.663E+01 2.297E+01 4.038E+01 4.386E+01 1.120E+07 19.1731 1.00000
  1.778E+08 1.778E+08 3.495E+00 8.907E-01 1.869E+01 2.622E+01 4.580E+01 4.930E+01 1.162E+07 19.4033 1.00000
  1.995E+08 1.995E+08 3.510E+00 1.008E+00 2.100E+01 2.994E+01 5.195E+01 5.546E+01 1.203E+07 19.6336 1.00000
  2.239E+08 2.239E+08 3.525E+00 1.141E+00 2.360E+01 3.419E+01 5.893E+01 6.246E+01 1.245E+07 19.8638 1.00000
  2.512E+08 2.512E+08 3.541E+00 1.290E+00 2.652E+01 3.904E+01 6.685E+01 7.039E+01 1.286E+07 20.0941 1.00000
  2.818E+08 2.818E+08 3.556E+00 1.459E+00 2.980E+01 4.458E+01 7.584E+01 7.940E+01 1.327E+07 20.3243 1.00000
  3.162E+08 3.162E+08 3.572E+00 1.650E+00 3.347E+01 5.092E+01 8.604E+01 8.961E+01 1.368E+07 20.5546 1.00000
  3.548E+08 3.548E+08 3.587E+00 1.865E+00 3.760E+01 5.816E+01 9.762E+01 1.012E+02 1.409E+07 20.7849 1.00000
  3.981E+08 3.981E+08 3.603E+00 2.107E+00 4.223E+01 6.643E+01 1.108E+02 1.144E+02 1.449E+07 21.0151 1.00000
  4.467E+08 4.467E+08 3.619E+00 2.380E+00 4.742E+01 7.588E+01 1.257E+02 1.293E+02 1.489E+07 21.2454 1.00000
  5.012E+08 5.012E+08 3.635E+00 2.688E+00 5.326E+01 8.668E+01 1.426E+02 1.463E+02 1.529E+07 21.4756 1.00000
  5.623E+08 5.623E+08 3.650E+00 3.035E+00 5.980E+01 9.903E+01 1.619E+02 1.655E+02 1.568E+07 21.7059 1.00000
  6.310E+08 6.310E+08 3.666E+00 3.426E+00 6.715E+01 1.131E+02 1.837E+02 1.874E+02 1.607E+07 21.9361 1.00000
  7.079E+08 7.079E+08 3.682E+00 3.867E+00 7.539E+01 1.293E+02 2.085E+02 2.122E+02 1.646E+07 22.1664 1.00000
  7.943E+08 7.943E+08 3.699E+00 4.363E+00 8.464E+01 1.477E+02 2.367E+02 2.404E+02 1.684E+07 22.3967 1.00000
  8.913E+08 8.913E+08 3.715E+00 4.921E+00 9.502E+01 1.688E+02 2.687E+02 2.724E+02 1.722E+07 22.6269 1.00000
  1.000E+09 1.000E+09 3.731E+00 5.550E+00 1.067E+02 1.929E+02 3.051E+02 3.088E+02 1.760E+07 22.8572 1.00000
  1.122E+09 1.122E+09 3.748E+00 6.258E+00 1.197E+02 2.204E+02 3.464E+02 3.502E+02 1.797E+07 23.0874 1.00000
  1.259E+09 1.259E+09 3.764E+00 7.054E+00 1.344E+02 2.519E+02 3.934E+02 3.971E+02 1.834E+07 23.3177 1.00000
  1.413E+09 1.413E+09 3.781E+00 7.950E+00 1.509E+02 2.879E+02 4.467E+02 4.505E+02 1.870E+07 23.5479 1.00000
  1.585E+09 1.585E+09 3.797E+00 8.958E+00 1.693E+02 3.291E+02 5.074E+02 5.112E+02 1.906E+07 23.7782 1.00000
  1.778E+09 1.778E+09 3.814E+00 1.009E+01 1.900E+02 3.762E+02 5.763E+02 5.801E+02 1.941E+07 24.0085 1.00000
  1.995E+09 1.995E+09 3.831E+00 1.137E+01 2.133E+02 4.301E+02 6.547E+02 6.585E+02 1.977E+07 24.2387 1.00000
  2.239E+09 2.239E+09 3.848E+00 1.280E+01 2.394E+02 4.916E+02 7.438E+02 7.477E+02 2.011E+07 24.4690 1.00000
  2.512E+09 2.512E+09 3.865E+00 1.441E+01 2.686E+02 5.621E+02 8.451E+02 8.490E+02 2.046E+07 24.6992 1.00000
  2.818E+09 2.818E+09 3.882E+00 1.622E+01 3.015E+02 6.426E+02 9.603E+02 9.642E+02 2.080E+07 24.9295 1.00000
  3.162E+09 3.162E+09 3.899E+00 1.826E+01 3.383E+02 7.348E+02 1.091E+03 1.095E+03 2.113E+07 25.1598 1.00000
  3.548E+09 3.548E+09 3.917E+00 2.055E+01 3.797E+02 8.402E+02 1.240E+03 1.244E+03 2.146E+07 25.3900 1.00000
  3.981E+09 3.981E+09 3.934E+00 2.312E+01 4.261E+02 9.607E+02 1.410E+03 1.414E+03 2.179E+07 25.6203 1.00000
  4.467E+09 4.467E+09 3.951E+00 2.601E+01 4.781E+02 1.099E+03 1.603E+03 1.607E+03 2.211E+07 25.8505 1.00000
  5.012E+09 5.012E+09 3.969E+00 2.925E+01 5.365E+02 1.256E+03 1.822E+03 1.826E+03 2.243E+07 26.0808 1.00000
  5.623E+09 5.623E+09 3.987E+00 3.290E+01 6.021E+02 1.437E+03 2.072E+03 2.076E+03 2.275E+07 26.3110 1.00000
  6.310E+09 6.310E+09 4.005E+00 3.700E+01 6.756E+02 1.644E+03 2.356E+03 2.360E+03 2.306E+07 26.5413 1.00000
  7.079E+09 7.079E+09 4.022E+00 4.160E+01 7.581E+02 1.880E+03 2.680E+03 2.684E+03 2.336E+07 26.7716 1.00000
  7.943E+09 7.943E+09 4.040E+00 4.676E+01 8.507E+02 2.150E+03 3.048E+03 3.052E+03 2.367E+07 27.0018 1.00000
  8.913E+09 8.913E+09 4.059E+00 5.256E+01 9.545E+02 2.460E+03 3.467E+03 3.471E+03 2.397E+07 27.2321 1.00000
  1.000E+10 1.000E+10 4.077E+00 5.908E+01 1.071E+03 2.814E+03 3.944E+03 3.948E+03 2.426E+07 27.4623 1.00000
  1.122E+10 1.122E+10 4.095E+00 6.639E+01 1.202E+03 3.219E+03 4.488E+03 4.492E+03 2.455E+07 27.6926 1.00000
  1.259E+10 1.259E+10 4.113E+00 7.461E+01 1.348E+03 3.683E+03 5.107E+03 5.111E+03 2.484E+07 27.9229 1.00000
  1.413E+10 1.413E+10 4.132E+00 8.383E+01 1.513E+03 4.214E+03 5.811E+03 5.816E+03 2.512E+07 28.1531 1.00000
  1.585E+10 1.585E+10 4.151E+00 9.418E+01 1.698E+03 4.822E+03 6.614E+03 6.618E+03 2.540E+07 28.3834 1.00000
  1.778E+10 1.778E+10 4.169E+00 1.058E+02 1.905E+03 5.518E+03 7.529E+03 7.533E+03 2.567E+07 28.6136 1.00000
  1.995E+10 1.995E+10 4.188E+00 1.189E+02 2.137E+03 6.315E+03 8.571E+03 8.575E+03 2.594E+07 28.8439 1.00000
  2.239E+10 2.239E+10 4.207E+00 1.335E+02 2.398E+03 7.227E+03 9.758E+03 9.763E+03 2.621E+07 29.0742 1.00000
  2.512E+10 2.512E+10 4.226E+00 1.499E+02 2.691E+03 8.271E+03 1.111E+04 1.112E+04 2.647E+07 29.3044 1.00000
  2.818E+10 2.818E+10 4.245E+00 1.684E+02 3.019E+03 9.466E+03 1.265E+04 1.266E+04 2.673E+07 29.5347 1.00000
  3.162E+10 3.162E+10 4.265E+00 1.891E+02 3.388E+03 1.083E+04 1.441E+04 1.442E+04 2.699E+07 29.7649 1.00000
  3.548E+10 3.548E+10 4.284E+00 2.124E+02 3.801E+03 1.240E+04 1.642E+04 1.642E+04 2.724E+07 29.9952 1.00000
  3.981E+10 3.981E+10 4.303E+00 2.384E+02 4.265E+03 1.420E+04 1.870E+04 1.870E+04 2.748E+07 30.2254 1.00000
  4.467E+10 4.467E+10 4.323E+00 2.677E+02 4.785E+03 1.625E+04 2.130E+04 2.131E+04 2.773E+07 30.4557 1.00000
  5.012E+10 5.012E+10 4.343E+00 3.006E+02 5.369E+03 1.861E+04 2.428E+04 2.428E+04 2.797E+07 30.6860 1.00000
  5.623E+10 5.623E+10 4.363E+00 3.375E+02 6.024E+03 2.130E+04 2.766E+04 2.767E+04 2.820E+07 30.9162 1.00000
  6.310E+10 6.310E+10 4.383E+00 3.788E+02 6.759E+03 2.439E+04 3.153E+04 3.153E+04 2.844E+07 31.1465 1.00000
  7.079E+10 7.079E+10 4.403E+00 4.253E+02 7.584E+03 2.792E+04 3.593E+04 3.594E+04 2.867E+07 31.3767 1.00000
  7.943E+10 7.943E+10 4.423E+00 4.774E+02 8.509E+03 3.198E+04 4.096E+04 4.097E+04 2.889E+07 31.6070 1.00000
  8.913E+10 8.913E+10 4.443E+00 5.359E+02 9.548E+03 3.662E+04 4.670E+04 4.670E+04 2.911E+07 31.8373 1.00000
  1.000E+11 1.000E+11 4.463E+00 6.015E+02 1.071E+04 4.193E+04 5.325E+04 5.325E+04 2.933E+07 32.0675 1.00000
  1.122E+11 1.122E+11 4.484E+00 6.752E+02 1.202E+04 4.802E+04 6.072E+04 6.072E+04 2.955E+07 32.2978 1.00000
  1.259E+11 1.259E+11 4.504E+00 7.578E+02 1.349E+04 5.500E+04 6.924E+04 6.925E+04 2.976E+07 32.5280 1.00000
  1.413E+11 1.413E+11 4.525E+00 8.506E+02 1.513E+04 6.300E+04 7.898E+04 7.898E+04 2.997E+07 32.7583 1.00000
  1.585E+11 1.585E+11 4.546E+00 9.546E+02 1.698E+04 7.216E+04 9.009E+04 9.009E+04 3.017E+07 32.9885 1.00000
  1.778E+11 1.778E+11 4.567E+00 1.071E+03 1.905E+04 8.265E+04 1.028E+05 1.028E+05 3.037E+07 33.2188 1.00000
  1.995E+11 1.995E+11 4.588E+00 1.202E+03 2.137E+04 9.468E+04 1.173E+05 1.173E+05 3.057E+07 33.4491 1.00000
  2.239E+11 2.239E+11 4.609E+00 1.349E+03 2.398E+04 1.085E+05 1.338E+05 1.338E+05 3.077E+07 33.6793 1.00000
  2.512E+11 2.512E+11 4.631E+00 1.514E+03 2.690E+04 1.243E+05 1.527E+05 1.527E+05 3.096E+07 33.9096 1.00000
  2.818E+11 2.818E+11 4.652E+00 1.699E+03 3.019E+04 1.424E+05 1.743E+05 1.743E+05 3.115E+07 34.1398 1.00000
  3.162E+11 3.162E+11 4.674E+00 1.907E+03 3.387E+04 1.631E+05 1.989E+05 1.989E+05 3.133E+07 34.3701 1.00000
  3.548E+11 3.548E+11 4.695E+00 2.140E+03 3.800E+04 1.869E+05 2.271E+05 2.271E+05 3.151E+07 34.6004 1.00000
  3.981E+11 3.981E+11 4.717E+00 2.402E+03 4.263E+04 2.142E+05 2.592E+05 2.592E+05 3.169E+07 34.8306 1.00000
  4.467E+11 4.467E+11 4.739E+00 2.695E+03 4.783E+04 2.455E+05 2.960E+05 2.960E+05 3.187E+07 35.0609 1.00000
  5.012E+11 5.012E+11 4.761E+00 3.024E+03 5.367E+04 2.813E+05 3.380E+05 3.380E+05 3.204E+07 35.2911 1.00000
  5.623E+11 5.623E+11 4.783E+00 3.394E+03 6.022E+04 3.224E+05 3.860E+05 3.860E+05 3.221E+07 35.5214 1.00000
  6.310E+11 6.310E+11 4.806E+00 3.808E+03 6.756E+04 3.695E+05 4.409E+05 4.409E+05 3.238E+07 35.7516 1.00000
  7.079E+11 7.079E+11 4.828E+00 4.273E+03 7.580E+04 4.235E+05 5.036E+05 5.036E+05 3.254E+07 35.9819 1.00000
  7.943E+11 7.943E+11 4.850E+00 4.795E+03 8.505E+04 4.855E+05 5.753E+05 5.753E+05 3.270E+07 36.2122 1.00000
  8.913E+11 8.913E+11 4.873E+00 5.380E+03 9.542E+04 5.565E+05 6.573E+05 6.573E+05 3.286E+07 36.4424 1.00000
  1.000E+12 1.000E+12 4.896E+00 6.037E+03 1.071E+05 6.380E+05 7.511E+05 7.511E+05 3.302E+07 36.6727 1.00000
  1.122E+12 1.122E+12 4.919E+00 6.774E+03 1.201E+05 7.314E+05 8.583E+05 8.583E+05 3.317E+07 36.9029 1.00000
  1.259E+12 1.259E+12 4.942E+00 7.601E+03 1.348E+05 8.385E+05 9.809E+05 9.809E+05 3.332E+07 37.1332 1.00000
  1.413E+12 1.413E+12 4.965E+00 8.529E+03 1.512E+05 9.614E+05 1.121E+06 1.121E+06 3.346E+07 37.3635 1.00000
  1.585E+12 1.585E+12 4.988E+00 9.571E+03 1.697E+05 1.102E+06 1.282E+06 1.282E+06 3.361E+07 37.5937 1.00000
  1.778E+12 1.778E+12 5.012E+00 1.074E+04 1.904E+05 1.264E+06 1.465E+06 1.465E+06 3.375E+07 37.8240 1.00000
  1.995E+12 1.995E+12 5.035E+00 1.205E+04 2.136E+05 1.449E+06 1.675E+06 1.675E+06 3.389E+07 38.0542 1.00000
  2.239E+12 2.239E+12 5.059E+00 1.352E+04 2.396E+05 1.662E+06 1.915E+06 1.915E+06 3.402E+07 38.2845 1.00000
  2.512E+12 2.512E+12 5.083E+00 1.517E+04 2.688E+05 1.906E+06 2.190E+06 2.190E+06 3.416E+07 38.5147 1.00000
  2.818E+12 2.818E+12 5.107E+00 1.702E+04 3.016E+05 2.186E+06 2.505E+06 2.505E+06 3.429E+07 38.7450 1.00000
  3.162E+12 3.162E+12 5.131E+00 1.910E+04 3.384E+05 2.508E+06 2.865E+06 2.865E+06 3.442E+07 38.9753 1.00000
  3.548E+12 3.548E+12 5.155E+00 2.143E+04 3.797E+05 2.876E+06 3.277E+06 3.277E+06 3.454E+07 39.2055 1.00000
  3.981E+12 3.981E+12 5.180E+00 2.405E+04 4.260E+05 3.299E+06 3.749E+06 3.749E+06 3.467E+07 39.4358 1.00000
  4.467E+12 4.467E+12 5.204E+00 2.698E+04 4.780E+05 3.785E+06 4.289E+06 4.289E+06 3.479E+07 39.6660 1.00000
  5.012E+12 5.012E+12 5.229E+00 3.027E+04 5.363E+05 4.342E+06 4.908E+06 4.908E+06 3.491E+07 39.8963 1.00000
  5.623E+12 5.623E+12 5.253E+00 3.397E+04 6.017E+05 4.981E+06 5.616E+06 5.616E+06 3.503E+07 40.1266 1.00000
  6.310E+12 6.310E+12 5.278E+00 3.811E+04 6.751E+05 5.714E+06 6.428E+06 6.428E+06 3.514E+07 40.3568 1.00000
  7.079E+12 7.079E+12 5.303E+00 4.276E+04 7.574E+05 6.556E+06 7.357E+06 7.357E+06 3.525E+07 40.5871 1.00000
  7.943E+12 7.943E+12 5.328E+00 4.798E+04 8.498E+05 7.523E+06 8.421E+06 8.421E+06 3.536E+07 40.8173 1.00000
  8.913E+12 8.913E+12 5.354E+00 5.384E+04 9.534E+05 8.632E+06 9.639E+06 9.639E+06 3.547E+07 41.0476 1.00000
  1.000E+13 1.000E+13 5.379E+00 6.041E+04 1.070E+06 9.906E+06 1.104E+07 1.104E+07 3.558E+07 41.2779 1.00000
  1.122E+13 1.122E+13 5.405E+00 6.778E+04 1.200E+06 1.137E+07 1.264E+07 1.264E+07 3.568E+07 41.5081 1.00000
  1.259E+13 1.259E+13 5.431E+00 7.605E+04 1.347E+06 1.305E+07 1.447E+07 1.447E+07 3.578E+07 41.7384 1.00000
  1.413E+13 1.413E+13 5.456E+00 8.533E+04 1.511E+06 1.497E+07 1.657E+07 1.657E+07 3.588E+07 41.9686 1.00000
  1.585E+13 1.585E+13 5.482E+00 9.574E+04 1.695E+06 1.718E+07 1.897E+07 1.897E+07 3.598E+07 42.1989 1.00000
  1.778E+13 1.778E+13 5.508E+00 1.074E+05 1.902E+06 1.972E+07 2.173E+07 2.173E+07 3.607E+07 42.4291 1.00000
  1.995E+13 1.995E+13 5.535E+00 1.205E+05 2.134E+06 2.264E+07 2.489E+07 2.489E+07 3.617E+07 42.6594 1.00000
  2.239E+13 2.239E+13 5.561E+00 1.352E+05 2.394E+06 2.599E+07 2.852E+07 2.852E+07 3.626E+07 42.8897 1.00000
  2.512E+13 2.512E+13 5.588E+00 1.517E+05 2.686E+06 2.983E+07 3.267E+07 3.267E+07 3.635E+07 43.1199 1.00000
  2.818E+13 2.818E+13 5.614E+00 1.703E+05 3.013E+06 3.425E+07 3.743E+07 3.743E+07 3.644E+07 43.3502 1.00000
  3.162E+13 3.162E+13 5.641E+00 1.910E+05 3.381E+06 3.932E+07 4.289E+07 4.289E+07 3.652E+07 43.5804 1.00000
  3.548E+13 3.548E+13 5.668E+00 2.143E+05 3.793E+06 4.515E+07 4.915E+07 4.915E+07 3.661E+07 43.8107 1.00000
  3.981E+13 3.981E+13 5.695E+00 2.405E+05 4.256E+06 5.184E+07 5.633E+07 5.633E+07 3.669E+07 44.0410 1.00000
  4.467E+13 4.467E+13 5.723E+00 2.698E+05 4.775E+06 5.952E+07 6.456E+07 6.456E+07 3.677E+07 44.2712 1.00000
  5.012E+13 5.012E+13 5.750E+00 3.028E+05 5.357E+06 6.835E+07 7.401E+07 7.401E+07 3.685E+07 44.5015 1.00000
  5.623E+13 5.623E+13 5.778E+00 3.397E+05 6.011E+06 7.848E+07 8.483E+07 8.483E+07 3.693E+07 44.7317 1.00000
  6.310E+13 6.310E+13 5.805E+00 3.812E+05 6.744E+06 9.013E+07 9.726E+07 9.726E+07 3.700E+07 44.9620 1.00000
  7.079E+13 7.079E+13 5.833E+00 4.277E+05 7.566E+06 1.035E+08 1.115E+08 1.115E+08 3.707E+07 45.1922 1.00000
  7.943E+13 7.943E+13 5.861E+00 4.799E+05 8.489E+06 1.189E+08 1.279E+08 1.279E+08 3.715E+07 45.4225 1.00000
  8.913E+13 8.913E+13 5.890E+00 5.384E+05 9.524E+06 1.365E+08 1.466E+08 1.466E+08 3.722E+07 45.6528 1.00000
