 Incident particle is a Tau with M = 1776.82000 MeV
 Index = 0: Tungsten
      Absorber with <Z/A> = 0.40252
 Sternheimer coef:  a     k=m_s   x_0    x_1    I[eV]   Cbar  delta0
                 0.1551  2.8447  0.2167  3.4960  727.0  5.4059 0.14

 *** Table generated with PUMAS v1.00 ***

      T         p     Ionization  brems     pair     photonuc  Radloss    dE/dx   CSDA Range  delta   beta
    [MeV]    [MeV/c]  -----------------------[MeV cm^2/g]------------------------  [g/cm^2]
  1.000E+05 1.018E+05 1.569E+00 9.672E-04 1.710E-02 7.578E-03 2.565E-02 1.595E+00 3.135E+04  3.4371 0.99985
  1.122E+05 1.140E+05 1.587E+00 1.121E-03 2.047E-02 8.507E-03 3.010E-02 1.617E+00 3.895E+04  3.6050 0.99988
  1.259E+05 1.277E+05 1.605E+00 1.300E-03 2.444E-02 9.499E-03 3.524E-02 1.640E+00 4.735E+04  3.7762 0.99990
  1.413E+05 1.430E+05 1.623E+00 1.505E-03 2.910E-02 1.061E-02 4.121E-02 1.664E+00 5.665E+04  3.9508 0.99992
  1.585E+05 1.603E+05 1.641E+00 1.742E-03 3.455E-02 1.185E-02 4.814E-02 1.689E+00 6.693E+04  4.1285 0.99994
  1.778E+05 1.796E+05 1.658E+00 2.016E-03 4.092E-02 1.322E-02 5.616E-02 1.714E+00 7.830E+04  4.3094 0.99995
  1.995E+05 2.013E+05 1.675E+00 2.330E-03 4.836E-02 1.477E-02 6.546E-02 1.741E+00 9.086E+04  4.4932 0.99996
  2.239E+05 2.256E+05 1.693E+00 2.693E-03 5.702E-02 1.646E-02 7.617E-02 1.769E+00 1.047E+05  4.6799 0.99997
  2.512E+05 2.530E+05 1.710E+00 3.110E-03 6.708E-02 1.835E-02 8.854E-02 1.798E+00 1.200E+05  4.8695 0.99998
  2.818E+05 2.836E+05 1.727E+00 3.589E-03 7.875E-02 2.046E-02 1.028E-01 1.829E+00 1.369E+05  5.0618 0.99998
  3.162E+05 3.180E+05 1.743E+00 4.140E-03 9.226E-02 2.283E-02 1.192E-01 1.863E+00 1.556E+05  5.2567 0.99998
  3.548E+05 3.566E+05 1.760E+00 4.773E-03 1.079E-01 2.549E-02 1.381E-01 1.898E+00 1.761E+05  5.4541 0.99999
  3.981E+05 3.999E+05 1.776E+00 5.500E-03 1.259E-01 2.843E-02 1.598E-01 1.936E+00 1.987E+05  5.6540 0.99999
  4.467E+05 4.485E+05 1.793E+00 6.334E-03 1.467E-01 3.172E-02 1.847E-01 1.977E+00 2.235E+05  5.8563 0.99999
  5.012E+05 5.030E+05 1.809E+00 7.290E-03 1.705E-01 3.541E-02 2.132E-01 2.022E+00 2.508E+05  6.0608 0.99999
  5.623E+05 5.641E+05 1.825E+00 8.387E-03 1.980E-01 3.939E-02 2.458E-01 2.071E+00 2.807E+05  6.2676 1.00000
  6.310E+05 6.327E+05 1.841E+00 9.643E-03 2.295E-01 4.385E-02 2.830E-01 2.124E+00 3.134E+05  6.4764 1.00000
  7.079E+05 7.097E+05 1.856E+00 1.108E-02 2.656E-01 4.887E-02 3.255E-01 2.182E+00 3.492E+05  6.6872 1.00000
  7.943E+05 7.961E+05 1.872E+00 1.273E-02 3.069E-01 5.452E-02 3.742E-01 2.246E+00 3.882E+05  6.8999 1.00000
  8.913E+05 8.930E+05 1.887E+00 1.462E-02 3.542E-01 6.089E-02 4.297E-01 2.317E+00 4.307E+05  7.1144 1.00000
  1.000E+06 1.002E+06 1.902E+00 1.677E-02 4.081E-01 6.807E-02 4.930E-01 2.395E+00 4.769E+05  7.3306 1.00000
  1.122E+06 1.124E+06 1.917E+00 1.924E-02 4.696E-01 7.619E-02 5.651E-01 2.482E+00 5.269E+05  7.5485 1.00000
  1.259E+06 1.261E+06 1.932E+00 2.206E-02 5.398E-01 8.536E-02 6.472E-01 2.579E+00 5.810E+05  7.7679 1.00000
  1.413E+06 1.414E+06 1.946E+00 2.528E-02 6.196E-01 9.573E-02 7.406E-01 2.687E+00 6.394E+05  7.9887 1.00000
  1.585E+06 1.587E+06 1.961E+00 2.897E-02 7.104E-01 1.075E-01 8.468E-01 2.808E+00 7.022E+05  8.2108 1.00000
  1.778E+06 1.780E+06 1.975E+00 3.317E-02 8.135E-01 1.208E-01 9.674E-01 2.943E+00 7.695E+05  8.4343 1.00000
  1.995E+06 1.997E+06 1.989E+00 3.796E-02 9.306E-01 1.359E-01 1.104E+00 3.094E+00 8.414E+05  8.6588 1.00000
  2.239E+06 2.240E+06 2.003E+00 4.344E-02 1.063E+00 1.530E-01 1.260E+00 3.263E+00 9.181E+05  8.8844 1.00000
  2.512E+06 2.514E+06 2.017E+00 4.968E-02 1.214E+00 1.724E-01 1.436E+00 3.453E+00 9.995E+05  9.1110 1.00000
  2.818E+06 2.820E+06 2.030E+00 5.680E-02 1.384E+00 1.944E-01 1.636E+00 3.666E+00 1.086E+06  9.3384 1.00000
  3.162E+06 3.164E+06 2.044E+00 6.491E-02 1.577E+00 2.195E-01 1.862E+00 3.906E+00 1.177E+06  9.5665 1.00000
  3.548E+06 3.550E+06 2.057E+00 7.415E-02 1.796E+00 2.479E-01 2.118E+00 4.175E+00 1.272E+06  9.7953 1.00000
  3.981E+06 3.983E+06 2.070E+00 8.467E-02 2.042E+00 2.803E-01 2.407E+00 4.477E+00 1.372E+06 10.0246 1.00000
  4.467E+06 4.469E+06 2.083E+00 9.666E-02 2.321E+00 3.170E-01 2.735E+00 4.818E+00 1.477E+06 10.2543 1.00000
  5.012E+06 5.014E+06 2.096E+00 1.103E-01 2.635E+00 3.589E-01 3.105E+00 5.201E+00 1.586E+06 10.4843 1.00000
  5.623E+06 5.625E+06 2.109E+00 1.258E-01 2.990E+00 4.065E-01 3.523E+00 5.631E+00 1.699E+06 10.7145 1.00000
  6.310E+06 6.311E+06 2.121E+00 1.435E-01 3.391E+00 4.608E-01 3.995E+00 6.116E+00 1.816E+06 10.9447 1.00000
  7.079E+06 7.081E+06 2.134E+00 1.635E-01 3.843E+00 5.225E-01 4.529E+00 6.662E+00 1.937E+06 11.1749 1.00000
  7.943E+06 7.945E+06 2.146E+00 1.864E-01 4.351E+00 5.929E-01 5.131E+00 7.276E+00 2.061E+06 11.4051 1.00000
  8.913E+06 8.914E+06 2.158E+00 2.123E-01 4.925E+00 6.730E-01 5.810E+00 7.968E+00 2.188E+06 11.6353 1.00000
  1.000E+07 1.000E+07 2.170E+00 2.417E-01 5.570E+00 7.643E-01 6.576E+00 8.746E+00 2.319E+06 11.8655 1.00000
  1.122E+07 1.122E+07 2.182E+00 2.751E-01 6.297E+00 8.684E-01 7.441E+00 9.623E+00 2.452E+06 12.0957 1.00000
  1.259E+07 1.259E+07 2.194E+00 3.131E-01 7.116E+00 9.870E-01 8.416E+00 1.061E+01 2.588E+06 12.3259 1.00000
  1.413E+07 1.413E+07 2.205E+00 3.562E-01 8.036E+00 1.122E+00 9.515E+00 1.172E+01 2.726E+06 12.5562 1.00000
  1.585E+07 1.585E+07 2.217E+00 4.050E-01 9.072E+00 1.276E+00 1.075E+01 1.297E+01 2.866E+06 12.7864 1.00000
  1.778E+07 1.778E+07 2.229E+00 4.604E-01 1.024E+01 1.452E+00 1.215E+01 1.438E+01 3.007E+06 13.0166 1.00000
  1.995E+07 1.995E+07 2.240E+00 5.232E-01 1.155E+01 1.653E+00 1.372E+01 1.596E+01 3.151E+06 13.2469 1.00000
  2.239E+07 2.239E+07 2.252E+00 5.944E-01 1.302E+01 1.882E+00 1.550E+01 1.775E+01 3.296E+06 13.4771 1.00000
  2.512E+07 2.512E+07 2.263E+00 6.750E-01 1.467E+01 2.143E+00 1.749E+01 1.975E+01 3.442E+06 13.7073 1.00000
  2.818E+07 2.819E+07 2.274E+00 7.664E-01 1.653E+01 2.440E+00 1.974E+01 2.202E+01 3.589E+06 13.9376 1.00000
  3.162E+07 3.162E+07 2.286E+00 8.697E-01 1.862E+01 2.780E+00 2.227E+01 2.456E+01 3.737E+06 14.1678 1.00000
  3.548E+07 3.548E+07 2.297E+00 9.868E-01 2.097E+01 3.168E+00 2.513E+01 2.742E+01 3.886E+06 14.3981 1.00000
  3.981E+07 3.981E+07 2.308E+00 1.119E+00 2.361E+01 3.611E+00 2.834E+01 3.065E+01 4.036E+06 14.6283 1.00000
  4.467E+07 4.467E+07 2.319E+00 1.269E+00 2.657E+01 4.116E+00 3.196E+01 3.428E+01 4.186E+06 14.8586 1.00000
  5.012E+07 5.012E+07 2.330E+00 1.438E+00 2.990E+01 4.692E+00 3.603E+01 3.836E+01 4.336E+06 15.0888 1.00000
  5.623E+07 5.624E+07 2.342E+00 1.630E+00 3.364E+01 5.350E+00 4.062E+01 4.296E+01 4.487E+06 15.3191 1.00000
  6.310E+07 6.310E+07 2.353E+00 1.846E+00 3.784E+01 6.102E+00 4.578E+01 4.814E+01 4.638E+06 15.5493 1.00000
  7.079E+07 7.080E+07 2.364E+00 2.090E+00 4.255E+01 6.959E+00 5.160E+01 5.396E+01 4.790E+06 15.7796 1.00000
  7.943E+07 7.943E+07 2.375E+00 2.366E+00 4.784E+01 7.939E+00 5.815E+01 6.052E+01 4.941E+06 16.0098 1.00000
  8.913E+07 8.913E+07 2.386E+00 2.678E+00 5.378E+01 9.057E+00 6.552E+01 6.790E+01 5.092E+06 16.2401 1.00000
  1.000E+08 1.000E+08 2.398E+00 3.030E+00 6.045E+01 1.033E+01 7.381E+01 7.621E+01 5.244E+06 16.4703 1.00000
  1.122E+08 1.122E+08 2.409E+00 3.426E+00 6.794E+01 1.179E+01 8.315E+01 8.556E+01 5.395E+06 16.7006 1.00000
  1.259E+08 1.259E+08 2.420E+00 3.874E+00 7.634E+01 1.346E+01 9.367E+01 9.609E+01 5.546E+06 16.9308 1.00000
  1.413E+08 1.413E+08 2.431E+00 4.379E+00 8.577E+01 1.536E+01 1.055E+02 1.079E+02 5.697E+06 17.1611 1.00000
  1.585E+08 1.585E+08 2.443E+00 4.948E+00 9.636E+01 1.753E+01 1.188E+02 1.213E+02 5.848E+06 17.3914 1.00000
  1.778E+08 1.778E+08 2.454E+00 5.590E+00 1.082E+02 2.002E+01 1.338E+02 1.363E+02 5.999E+06 17.6216 1.00000
  1.995E+08 1.995E+08 2.466E+00 6.312E+00 1.216E+02 2.285E+01 1.507E+02 1.532E+02 6.149E+06 17.8519 1.00000
  2.239E+08 2.239E+08 2.477E+00 7.127E+00 1.365E+02 2.609E+01 1.698E+02 1.722E+02 6.300E+06 18.0821 1.00000
  2.512E+08 2.512E+08 2.489E+00 8.044E+00 1.533E+02 2.979E+01 1.912E+02 1.937E+02 6.449E+06 18.3124 1.00000
  2.818E+08 2.818E+08 2.500E+00 9.077E+00 1.722E+02 3.402E+01 2.153E+02 2.178E+02 6.599E+06 18.5426 1.00000
  3.162E+08 3.162E+08 2.512E+00 1.024E+01 1.934E+02 3.885E+01 2.424E+02 2.450E+02 6.748E+06 18.7729 1.00000
  3.548E+08 3.548E+08 2.523E+00 1.155E+01 2.171E+02 4.437E+01 2.730E+02 2.755E+02 6.897E+06 19.0032 1.00000
  3.981E+08 3.981E+08 2.535E+00 1.302E+01 2.437E+02 5.068E+01 3.074E+02 3.100E+02 7.045E+06 19.2334 1.00000
  4.467E+08 4.467E+08 2.547E+00 1.468E+01 2.736E+02 5.789E+01 3.462E+02 3.488E+02 7.193E+06 19.4637 1.00000
  5.012E+08 5.012E+08 2.559E+00 1.655E+01 3.072E+02 6.613E+01 3.899E+02 3.924E+02 7.341E+06 19.6939 1.00000
  5.623E+08 5.623E+08 2.571E+00 1.864E+01 3.448E+02 7.555E+01 4.390E+02 4.416E+02 7.488E+06 19.9242 1.00000
  6.310E+08 6.310E+08 2.583E+00 2.100E+01 3.871E+02 8.631E+01 4.944E+02 4.970E+02 7.635E+06 20.1544 1.00000
  7.079E+08 7.079E+08 2.595E+00 2.365E+01 4.345E+02 9.861E+01 5.568E+02 5.593E+02 7.781E+06 20.3847 1.00000
  7.943E+08 7.943E+08 2.607E+00 2.664E+01 4.877E+02 1.127E+02 6.270E+02 6.296E+02 7.927E+06 20.6150 1.00000
  8.913E+08 8.913E+08 2.619E+00 2.999E+01 5.474E+02 1.288E+02 7.061E+02 7.087E+02 8.072E+06 20.8452 1.00000
  1.000E+09 1.000E+09 2.631E+00 3.375E+01 6.143E+02 1.471E+02 7.952E+02 7.979E+02 8.217E+06 21.0755 1.00000
  1.122E+09 1.122E+09 2.643E+00 3.799E+01 6.895E+02 1.681E+02 8.956E+02 8.983E+02 8.361E+06 21.3057 1.00000
  1.259E+09 1.259E+09 2.656E+00 4.274E+01 7.738E+02 1.922E+02 1.009E+03 1.011E+03 8.505E+06 21.5360 1.00000
  1.413E+09 1.413E+09 2.668E+00 4.809E+01 8.684E+02 2.196E+02 1.136E+03 1.139E+03 8.649E+06 21.7662 1.00000
  1.585E+09 1.585E+09 2.681E+00 5.409E+01 9.746E+02 2.510E+02 1.280E+03 1.282E+03 8.791E+06 21.9965 1.00000
  1.778E+09 1.778E+09 2.693E+00 6.084E+01 1.094E+03 2.870E+02 1.441E+03 1.444E+03 8.934E+06 22.2268 1.00000
  1.995E+09 1.995E+09 2.706E+00 6.841E+01 1.227E+03 3.280E+02 1.624E+03 1.626E+03 9.076E+06 22.4570 1.00000
  2.239E+09 2.239E+09 2.718E+00 7.692E+01 1.377E+03 3.750E+02 1.829E+03 1.832E+03 9.217E+06 22.6873 1.00000
  2.512E+09 2.512E+09 2.731E+00 8.647E+01 1.546E+03 4.287E+02 2.061E+03 2.064E+03 9.358E+06 22.9175 1.00000
  2.818E+09 2.818E+09 2.744E+00 9.720E+01 1.734E+03 4.902E+02 2.322E+03 2.324E+03 9.498E+06 23.1478 1.00000
  3.162E+09 3.162E+09 2.757E+00 1.092E+02 1.946E+03 5.605E+02 2.616E+03 2.619E+03 9.638E+06 23.3781 1.00000
  3.548E+09 3.548E+09 2.770E+00 1.228E+02 2.184E+03 6.408E+02 2.948E+03 2.950E+03 9.777E+06 23.6083 1.00000
  3.981E+09 3.981E+09 2.783E+00 1.380E+02 2.451E+03 7.328E+02 3.321E+03 3.324E+03 9.915E+06 23.8386 1.00000
  4.467E+09 4.467E+09 2.796E+00 1.550E+02 2.750E+03 8.380E+02 3.743E+03 3.746E+03 1.005E+07 24.0688 1.00000
  5.012E+09 5.012E+09 2.809E+00 1.741E+02 3.086E+03 9.584E+02 4.218E+03 4.221E+03 1.019E+07 24.2991 1.00000
  5.623E+09 5.623E+09 2.822E+00 1.956E+02 3.462E+03 1.096E+03 4.754E+03 4.757E+03 1.033E+07 24.5293 1.00000
  6.310E+09 6.310E+09 2.836E+00 2.197E+02 3.885E+03 1.254E+03 5.358E+03 5.361E+03 1.046E+07 24.7596 1.00000
  7.079E+09 7.079E+09 2.849E+00 2.468E+02 4.359E+03 1.434E+03 6.040E+03 6.043E+03 1.060E+07 24.9899 1.00000
  7.943E+09 7.943E+09 2.863E+00 2.772E+02 4.891E+03 1.640E+03 6.809E+03 6.811E+03 1.073E+07 25.2201 1.00000
  8.913E+09 8.913E+09 2.876E+00 3.113E+02 5.488E+03 1.876E+03 7.676E+03 7.679E+03 1.087E+07 25.4504 1.00000
  1.000E+10 1.000E+10 2.890E+00 3.495E+02 6.158E+03 2.146E+03 8.654E+03 8.657E+03 1.100E+07 25.6806 1.00000
  1.122E+10 1.122E+10 2.903E+00 3.925E+02 6.910E+03 2.456E+03 9.758E+03 9.761E+03 1.113E+07 25.9109 1.00000
  1.259E+10 1.259E+10 2.917E+00 4.407E+02 7.753E+03 2.809E+03 1.100E+04 1.101E+04 1.127E+07 26.1412 1.00000
  1.413E+10 1.413E+10 2.931E+00 4.947E+02 8.699E+03 3.215E+03 1.241E+04 1.241E+04 1.140E+07 26.3714 1.00000
  1.585E+10 1.585E+10 2.945E+00 5.554E+02 9.761E+03 3.678E+03 1.399E+04 1.400E+04 1.153E+07 26.6017 1.00000
  1.778E+10 1.778E+10 2.959E+00 6.236E+02 1.095E+04 4.209E+03 1.578E+04 1.579E+04 1.166E+07 26.8319 1.00000
  1.995E+10 1.995E+10 2.973E+00 7.000E+02 1.229E+04 4.816E+03 1.780E+04 1.781E+04 1.179E+07 27.0622 1.00000
  2.239E+10 2.239E+10 2.987E+00 7.858E+02 1.379E+04 5.512E+03 2.008E+04 2.009E+04 1.192E+07 27.2925 1.00000
  2.512E+10 2.512E+10 3.001E+00 8.820E+02 1.547E+04 6.308E+03 2.266E+04 2.266E+04 1.205E+07 27.5227 1.00000
  2.818E+10 2.818E+10 3.016E+00 9.901E+02 1.736E+04 7.220E+03 2.557E+04 2.557E+04 1.217E+07 27.7530 1.00000
  3.162E+10 3.162E+10 3.030E+00 1.111E+03 1.947E+04 8.264E+03 2.885E+04 2.885E+04 1.230E+07 27.9832 1.00000
  3.548E+10 3.548E+10 3.045E+00 1.247E+03 2.185E+04 9.459E+03 3.256E+04 3.256E+04 1.243E+07 28.2135 1.00000
  3.981E+10 3.981E+10 3.059E+00 1.400E+03 2.452E+04 1.083E+04 3.674E+04 3.675E+04 1.255E+07 28.4437 1.00000
  4.467E+10 4.467E+10 3.074E+00 1.571E+03 2.751E+04 1.240E+04 4.147E+04 4.148E+04 1.268E+07 28.6740 1.00000
  5.012E+10 5.012E+10 3.089E+00 1.763E+03 3.086E+04 1.419E+04 4.682E+04 4.682E+04 1.280E+07 28.9043 1.00000
  5.623E+10 5.623E+10 3.104E+00 1.979E+03 3.463E+04 1.625E+04 5.286E+04 5.286E+04 1.292E+07 29.1345 1.00000
  6.310E+10 6.310E+10 3.118E+00 2.221E+03 3.885E+04 1.860E+04 5.968E+04 5.968E+04 1.305E+07 29.3648 1.00000
  7.079E+10 7.079E+10 3.133E+00 2.492E+03 4.359E+04 2.130E+04 6.739E+04 6.739E+04 1.317E+07 29.5950 1.00000
  7.943E+10 7.943E+10 3.149E+00 2.797E+03 4.891E+04 2.439E+04 7.610E+04 7.610E+04 1.329E+07 29.8253 1.00000
  8.913E+10 8.913E+10 3.164E+00 3.139E+03 5.488E+04 2.793E+04 8.595E+04 8.595E+04 1.341E+07 30.0556 1.00000
  1.000E+11 1.000E+11 3.179E+00 3.522E+03 6.158E+04 3.198E+04 9.708E+04 9.708E+04 1.353E+07 30.2858 1.00000
  1.122E+11 1.122E+11 3.194E+00 3.953E+03 6.909E+04 3.663E+04 1.097E+05 1.097E+05 1.365E+07 30.5161 1.00000
  1.259E+11 1.259E+11 3.210E+00 4.435E+03 7.752E+04 4.195E+04 1.239E+05 1.239E+05 1.376E+07 30.7463 1.00000
  1.413E+11 1.413E+11 3.225E+00 4.977E+03 8.697E+04 4.805E+04 1.400E+05 1.400E+05 1.388E+07 30.9766 1.00000
  1.585E+11 1.585E+11 3.241E+00 5.585E+03 9.758E+04 5.504E+04 1.582E+05 1.582E+05 1.400E+07 31.2068 1.00000
  1.778E+11 1.778E+11 3.257E+00 6.267E+03 1.095E+05 6.304E+04 1.788E+05 1.788E+05 1.411E+07 31.4371 1.00000
  1.995E+11 1.995E+11 3.272E+00 7.032E+03 1.228E+05 7.222E+04 2.021E+05 2.021E+05 1.423E+07 31.6674 1.00000
  2.239E+11 2.239E+11 3.288E+00 7.891E+03 1.378E+05 8.273E+04 2.284E+05 2.285E+05 1.434E+07 31.8976 1.00000
  2.512E+11 2.512E+11 3.304E+00 8.854E+03 1.546E+05 9.478E+04 2.583E+05 2.583E+05 1.445E+07 32.1279 1.00000
  2.818E+11 2.818E+11 3.320E+00 9.935E+03 1.735E+05 1.086E+05 2.920E+05 2.920E+05 1.457E+07 32.3581 1.00000
  3.162E+11 3.162E+11 3.336E+00 1.115E+04 1.947E+05 1.244E+05 3.302E+05 3.302E+05 1.468E+07 32.5884 1.00000
  3.548E+11 3.548E+11 3.352E+00 1.251E+04 2.184E+05 1.426E+05 3.735E+05 3.735E+05 1.479E+07 32.8187 1.00000
  3.981E+11 3.981E+11 3.369E+00 1.404E+04 2.451E+05 1.634E+05 4.225E+05 4.225E+05 1.490E+07 33.0489 1.00000
  4.467E+11 4.467E+11 3.385E+00 1.575E+04 2.749E+05 1.872E+05 4.779E+05 4.779E+05 1.500E+07 33.2792 1.00000
  5.012E+11 5.012E+11 3.402E+00 1.767E+04 3.085E+05 2.146E+05 5.407E+05 5.407E+05 1.511E+07 33.5094 1.00000
  5.623E+11 5.623E+11 3.418E+00 1.983E+04 3.461E+05 2.459E+05 6.118E+05 6.118E+05 1.522E+07 33.7397 1.00000
  6.310E+11 6.310E+11 3.435E+00 2.225E+04 3.883E+05 2.818E+05 6.924E+05 6.924E+05 1.532E+07 33.9699 1.00000
  7.079E+11 7.079E+11 3.452E+00 2.496E+04 4.357E+05 3.230E+05 7.837E+05 7.837E+05 1.543E+07 34.2002 1.00000
  7.943E+11 7.943E+11 3.469E+00 2.801E+04 4.889E+05 3.703E+05 8.871E+05 8.871E+05 1.553E+07 34.4305 1.00000
  8.913E+11 8.913E+11 3.486E+00 3.143E+04 5.485E+05 4.245E+05 1.004E+06 1.004E+06 1.563E+07 34.6607 1.00000
  1.000E+12 1.000E+12 3.503E+00 3.527E+04 6.154E+05 4.866E+05 1.137E+06 1.137E+06 1.574E+07 34.8910 1.00000
  1.122E+12 1.122E+12 3.520E+00 3.957E+04 6.904E+05 5.578E+05 1.288E+06 1.288E+06 1.584E+07 35.1212 1.00000
  1.259E+12 1.259E+12 3.537E+00 4.440E+04 7.747E+05 6.395E+05 1.459E+06 1.459E+06 1.594E+07 35.3515 1.00000
  1.413E+12 1.413E+12 3.554E+00 4.982E+04 8.691E+05 7.333E+05 1.652E+06 1.652E+06 1.604E+07 35.5818 1.00000
  1.585E+12 1.585E+12 3.572E+00 5.590E+04 9.752E+05 8.408E+05 1.872E+06 1.872E+06 1.613E+07 35.8120 1.00000
  1.778E+12 1.778E+12 3.589E+00 6.272E+04 1.094E+06 9.641E+05 2.121E+06 2.121E+06 1.623E+07 36.0423 1.00000
  1.995E+12 1.995E+12 3.607E+00 7.037E+04 1.228E+06 1.106E+06 2.403E+06 2.403E+06 1.633E+07 36.2725 1.00000
  2.239E+12 2.239E+12 3.625E+00 7.896E+04 1.377E+06 1.268E+06 2.724E+06 2.724E+06 1.642E+07 36.5028 1.00000
  2.512E+12 2.512E+12 3.643E+00 8.859E+04 1.545E+06 1.454E+06 3.088E+06 3.088E+06 1.652E+07 36.7330 1.00000
  2.818E+12 2.818E+12 3.660E+00 9.940E+04 1.734E+06 1.668E+06 3.501E+06 3.501E+06 1.661E+07 36.9633 1.00000
  3.162E+12 3.162E+12 3.678E+00 1.115E+05 1.945E+06 1.913E+06 3.969E+06 3.969E+06 1.670E+07 37.1936 1.00000
  3.548E+12 3.548E+12 3.697E+00 1.251E+05 2.182E+06 2.194E+06 4.501E+06 4.501E+06 1.680E+07 37.4238 1.00000
  3.981E+12 3.981E+12 3.715E+00 1.404E+05 2.449E+06 2.516E+06 5.105E+06 5.105E+06 1.689E+07 37.6541 1.00000
  4.467E+12 4.467E+12 3.733E+00 1.575E+05 2.747E+06 2.887E+06 5.791E+06 5.791E+06 1.698E+07 37.8843 1.00000
  5.012E+12 5.012E+12 3.752E+00 1.768E+05 3.082E+06 3.311E+06 6.571E+06 6.571E+06 1.706E+07 38.1146 1.00000
  5.623E+12 5.623E+12 3.770E+00 1.983E+05 3.458E+06 3.799E+06 7.456E+06 7.456E+06 1.715E+07 38.3449 1.00000
  6.310E+12 6.310E+12 3.789E+00 2.225E+05 3.880E+06 4.359E+06 8.461E+06 8.461E+06 1.724E+07 38.5751 1.00000
  7.079E+12 7.079E+12 3.807E+00 2.497E+05 4.353E+06 5.001E+06 9.604E+06 9.604E+06 1.732E+07 38.8054 1.00000
  7.943E+12 7.943E+12 3.826E+00 2.802E+05 4.884E+06 5.738E+06 1.090E+07 1.090E+07 1.741E+07 39.0356 1.00000
  8.913E+12 8.913E+12 3.845E+00 3.144E+05 5.480E+06 6.584E+06 1.238E+07 1.238E+07 1.749E+07 39.2659 1.00000
  1.000E+13 1.000E+13 3.864E+00 3.527E+05 6.149E+06 7.555E+06 1.406E+07 1.406E+07 1.757E+07 39.4962 1.00000
  1.122E+13 1.122E+13 3.883E+00 3.957E+05 6.898E+06 8.670E+06 1.596E+07 1.596E+07 1.766E+07 39.7264 1.00000
  1.259E+13 1.259E+13 3.903E+00 4.440E+05 7.740E+06 9.950E+06 1.813E+07 1.813E+07 1.774E+07 39.9567 1.00000
  1.413E+13 1.413E+13 3.922E+00 4.982E+05 8.684E+06 1.142E+07 2.060E+07 2.060E+07 1.782E+07 40.1869 1.00000
  1.585E+13 1.585E+13 3.941E+00 5.590E+05 9.743E+06 1.311E+07 2.341E+07 2.341E+07 1.789E+07 40.4172 1.00000
  1.778E+13 1.778E+13 3.961E+00 6.272E+05 1.093E+07 1.504E+07 2.660E+07 2.660E+07 1.797E+07 40.6474 1.00000
  1.995E+13 1.995E+13 3.981E+00 7.038E+05 1.226E+07 1.727E+07 3.024E+07 3.024E+07 1.805E+07 40.8777 1.00000
  2.239E+13 2.239E+13 4.000E+00 7.896E+05 1.376E+07 1.982E+07 3.437E+07 3.437E+07 1.812E+07 41.1080 1.00000
  2.512E+13 2.512E+13 4.020E+00 8.860E+05 1.544E+07 2.276E+07 3.908E+07 3.908E+07 1.820E+07 41.3382 1.00000
  2.818E+13 2.818E+13 4.040E+00 9.941E+05 1.732E+07 2.612E+07 4.444E+07 4.444E+07 1.827E+07 41.5685 1.00000
  3.162E+13 3.162E+13 4.060E+00 1.115E+06 1.943E+07 2.999E+07 5.054E+07 5.054E+07 1.835E+07 41.7987 1.00000
  3.548E+13 3.548E+13 4.081E+00 1.251E+06 2.180E+07 3.443E+07 5.749E+07 5.749E+07 1.842E+07 42.0290 1.00000
  3.981E+13 3.981E+13 4.101E+00 1.404E+06 2.446E+07 3.954E+07 6.540E+07 6.540E+07 1.849E+07 42.2593 1.00000
  4.467E+13 4.467E+13 4.121E+00 1.576E+06 2.745E+07 4.540E+07 7.442E+07 7.442E+07 1.856E+07 42.4895 1.00000
  5.012E+13 5.012E+13 4.142E+00 1.768E+06 3.079E+07 5.213E+07 8.469E+07 8.469E+07 1.863E+07 42.7198 1.00000
  5.623E+13 5.623E+13 4.162E+00 1.983E+06 3.455E+07 5.986E+07 9.639E+07 9.639E+07 1.869E+07 42.9500 1.00000
  6.310E+13 6.310E+13 4.183E+00 2.225E+06 3.876E+07 6.875E+07 1.097E+08 1.097E+08 1.876E+07 43.1803 1.00000
  7.079E+13 7.079E+13 4.204E+00 2.497E+06 4.349E+07 7.895E+07 1.249E+08 1.249E+08 1.883E+07 43.4105 1.00000
  7.943E+13 7.943E+13 4.225E+00 2.802E+06 4.879E+07 9.068E+07 1.423E+08 1.423E+08 1.889E+07 43.6408 1.00000
  8.913E+13 8.913E+13 4.246E+00 3.144E+06 5.474E+07 1.041E+08 1.620E+08 1.620E+08 1.896E+07 43.8711 1.00000
