 Incident particle is a Tau with M = 1776.82000 MeV
 Index = 0: TungstenHexafluoride
      Absorber with <Z/A> = 0.42977
 Sternheimer coef:  a     k=m_s   x_0    x_1    I[eV]   Cbar  delta0
                 0.0366  3.5134  0.3020  4.2602  354.4  5.9881 0.00

 *** Table generated with PUMAS v1.00 ***

      T         p     Ionization  brems     pair     photonuc  Radloss    dE/dx   CSDA Range  delta   beta
    [MeV]    [MeV/c]  -----------------------[MeV cm^2/g]------------------------  [g/cm^2]
  1.000E+05 1.018E+05 1.798E+00 6.603E-04 1.155E-02 7.823E-03 2.003E-02 1.818E+00 2.751E+04  3.0258 0.99985
  1.122E+05 1.140E+05 1.817E+00 7.654E-04 1.383E-02 8.800E-03 2.340E-02 1.840E+00 3.418E+04  3.1905 0.99988
  1.259E+05 1.277E+05 1.836E+00 8.867E-04 1.652E-02 9.847E-03 2.725E-02 1.864E+00 4.157E+04  3.3584 0.99990
  1.413E+05 1.430E+05 1.856E+00 1.027E-03 1.967E-02 1.102E-02 3.172E-02 1.887E+00 4.977E+04  3.5297 0.99992
  1.585E+05 1.603E+05 1.875E+00 1.188E-03 2.337E-02 1.233E-02 3.689E-02 1.911E+00 5.884E+04  3.7040 0.99994
  1.778E+05 1.796E+05 1.893E+00 1.374E-03 2.769E-02 1.379E-02 4.285E-02 1.936E+00 6.889E+04  3.8813 0.99995
  1.995E+05 2.013E+05 1.912E+00 1.588E-03 3.274E-02 1.544E-02 4.977E-02 1.962E+00 8.003E+04  4.0616 0.99996
  2.239E+05 2.256E+05 1.931E+00 1.835E-03 3.862E-02 1.724E-02 5.769E-02 1.989E+00 9.235E+04  4.2447 0.99997
  2.512E+05 2.530E+05 1.949E+00 2.118E-03 4.544E-02 1.925E-02 6.682E-02 2.016E+00 1.060E+05  4.4305 0.99998
  2.818E+05 2.836E+05 1.968E+00 2.444E-03 5.337E-02 2.151E-02 7.733E-02 2.045E+00 1.211E+05  4.6189 0.99998
  3.162E+05 3.180E+05 1.986E+00 2.818E-03 6.254E-02 2.406E-02 8.942E-02 2.075E+00 1.378E+05  4.8098 0.99998
  3.548E+05 3.566E+05 2.004E+00 3.249E-03 7.315E-02 2.691E-02 1.033E-01 2.107E+00 1.562E+05  5.0031 0.99999
  3.981E+05 3.999E+05 2.022E+00 3.742E-03 8.540E-02 3.008E-02 1.192E-01 2.141E+00 1.766E+05  5.1987 0.99999
  4.467E+05 4.485E+05 2.039E+00 4.309E-03 9.952E-02 3.363E-02 1.375E-01 2.177E+00 1.991E+05  5.3966 0.99999
  5.012E+05 5.030E+05 2.057E+00 4.959E-03 1.158E-01 3.761E-02 1.583E-01 2.215E+00 2.240E+05  5.5966 0.99999
  5.623E+05 5.641E+05 2.074E+00 5.704E-03 1.344E-01 4.191E-02 1.821E-01 2.256E+00 2.513E+05  5.7987 1.00000
  6.310E+05 6.327E+05 2.091E+00 6.558E-03 1.559E-01 4.674E-02 2.092E-01 2.300E+00 2.814E+05  6.0027 1.00000
  7.079E+05 7.097E+05 2.108E+00 7.535E-03 1.805E-01 5.218E-02 2.402E-01 2.348E+00 3.146E+05  6.2086 1.00000
  7.943E+05 7.961E+05 2.125E+00 8.655E-03 2.086E-01 5.832E-02 2.756E-01 2.401E+00 3.509E+05  6.4163 1.00000
  8.913E+05 8.930E+05 2.142E+00 9.936E-03 2.408E-01 6.524E-02 3.160E-01 2.458E+00 3.908E+05  6.6257 1.00000
  1.000E+06 1.002E+06 2.158E+00 1.140E-02 2.776E-01 7.306E-02 3.621E-01 2.520E+00 4.345E+05  6.8367 1.00000
  1.122E+06 1.124E+06 2.175E+00 1.308E-02 3.196E-01 8.190E-02 4.145E-01 2.589E+00 4.823E+05  7.0492 1.00000
  1.259E+06 1.261E+06 2.191E+00 1.499E-02 3.674E-01 9.189E-02 4.743E-01 2.665E+00 5.344E+05  7.2633 1.00000
  1.413E+06 1.414E+06 2.207E+00 1.718E-02 4.219E-01 1.032E-01 5.423E-01 2.749E+00 5.912E+05  7.4787 1.00000
  1.585E+06 1.587E+06 2.222E+00 1.968E-02 4.838E-01 1.160E-01 6.195E-01 2.842E+00 6.529E+05  7.6954 1.00000
  1.778E+06 1.780E+06 2.238E+00 2.254E-02 5.543E-01 1.305E-01 7.074E-01 2.945E+00 7.197E+05  7.9134 1.00000
  1.995E+06 1.997E+06 2.253E+00 2.579E-02 6.343E-01 1.470E-01 8.071E-01 3.060E+00 7.920E+05  8.1325 1.00000
  2.239E+06 2.240E+06 2.269E+00 2.951E-02 7.250E-01 1.657E-01 9.203E-01 3.189E+00 8.700E+05  8.3527 1.00000
  2.512E+06 2.514E+06 2.284E+00 3.375E-02 8.280E-01 1.869E-01 1.049E+00 3.332E+00 9.538E+05  8.5740 1.00000
  2.818E+06 2.820E+06 2.298E+00 3.859E-02 9.445E-01 2.111E-01 1.194E+00 3.493E+00 1.044E+06  8.7962 1.00000
  3.162E+06 3.164E+06 2.313E+00 4.410E-02 1.077E+00 2.385E-01 1.359E+00 3.672E+00 1.140E+06  9.0193 1.00000
  3.548E+06 3.550E+06 2.328E+00 5.038E-02 1.226E+00 2.696E-01 1.546E+00 3.873E+00 1.242E+06  9.2433 1.00000
  3.981E+06 3.983E+06 2.342E+00 5.753E-02 1.395E+00 3.050E-01 1.757E+00 4.099E+00 1.351E+06  9.4680 1.00000
  4.467E+06 4.469E+06 2.356E+00 6.567E-02 1.586E+00 3.453E-01 1.997E+00 4.353E+00 1.466E+06  9.6934 1.00000
  5.012E+06 5.014E+06 2.370E+00 7.494E-02 1.801E+00 3.912E-01 2.267E+00 4.637E+00 1.587E+06  9.9195 1.00000
  5.623E+06 5.625E+06 2.384E+00 8.549E-02 2.044E+00 4.434E-01 2.573E+00 4.957E+00 1.715E+06 10.1462 1.00000
  6.310E+06 6.311E+06 2.397E+00 9.749E-02 2.319E+00 5.028E-01 2.919E+00 5.316E+00 1.849E+06 10.3734 1.00000
  7.079E+06 7.081E+06 2.411E+00 1.111E-01 2.628E+00 5.705E-01 3.310E+00 5.721E+00 1.988E+06 10.6011 1.00000
  7.943E+06 7.945E+06 2.424E+00 1.267E-01 2.977E+00 6.476E-01 3.751E+00 6.175E+00 2.134E+06 10.8293 1.00000
  8.913E+06 8.914E+06 2.437E+00 1.443E-01 3.370E+00 7.355E-01 4.250E+00 6.687E+00 2.285E+06 11.0578 1.00000
  1.000E+07 1.000E+07 2.450E+00 1.643E-01 3.813E+00 8.356E-01 4.813E+00 7.263E+00 2.441E+06 11.2867 1.00000
  1.122E+07 1.122E+07 2.463E+00 1.871E-01 4.312E+00 9.497E-01 5.449E+00 7.911E+00 2.602E+06 11.5159 1.00000
  1.259E+07 1.259E+07 2.475E+00 2.129E-01 4.873E+00 1.080E+00 6.166E+00 8.642E+00 2.768E+06 11.7453 1.00000
  1.413E+07 1.413E+07 2.488E+00 2.422E-01 5.505E+00 1.228E+00 6.976E+00 9.464E+00 2.938E+06 11.9750 1.00000
  1.585E+07 1.585E+07 2.500E+00 2.754E-01 6.216E+00 1.397E+00 7.889E+00 1.039E+01 3.112E+06 12.2048 1.00000
  1.778E+07 1.778E+07 2.513E+00 3.131E-01 7.016E+00 1.590E+00 8.919E+00 1.143E+01 3.289E+06 12.4347 1.00000
  1.995E+07 1.995E+07 2.525E+00 3.559E-01 7.915E+00 1.810E+00 1.008E+01 1.261E+01 3.470E+06 12.6648 1.00000
  2.239E+07 2.239E+07 2.537E+00 4.044E-01 8.926E+00 2.061E+00 1.139E+01 1.393E+01 3.654E+06 12.8950 1.00000
  2.512E+07 2.512E+07 2.549E+00 4.593E-01 1.006E+01 2.348E+00 1.287E+01 1.542E+01 3.841E+06 13.1252 1.00000
  2.818E+07 2.819E+07 2.561E+00 5.215E-01 1.134E+01 2.674E+00 1.454E+01 1.710E+01 4.030E+06 13.3554 1.00000
  3.162E+07 3.162E+07 2.573E+00 5.919E-01 1.278E+01 3.047E+00 1.642E+01 1.899E+01 4.221E+06 13.5856 1.00000
  3.548E+07 3.548E+07 2.585E+00 6.717E-01 1.439E+01 3.473E+00 1.853E+01 2.112E+01 4.414E+06 13.8159 1.00000
  3.981E+07 3.981E+07 2.597E+00 7.619E-01 1.620E+01 3.958E+00 2.092E+01 2.352E+01 4.609E+06 14.0461 1.00000
  4.467E+07 4.467E+07 2.609E+00 8.640E-01 1.824E+01 4.513E+00 2.361E+01 2.622E+01 4.804E+06 14.2764 1.00000
  5.012E+07 5.012E+07 2.621E+00 9.795E-01 2.052E+01 5.145E+00 2.665E+01 2.927E+01 5.001E+06 14.5066 1.00000
  5.623E+07 5.624E+07 2.633E+00 1.110E+00 2.309E+01 5.867E+00 3.007E+01 3.270E+01 5.199E+06 14.7369 1.00000
  6.310E+07 6.310E+07 2.645E+00 1.258E+00 2.598E+01 6.692E+00 3.393E+01 3.657E+01 5.398E+06 14.9671 1.00000
  7.079E+07 7.080E+07 2.657E+00 1.424E+00 2.921E+01 7.633E+00 3.827E+01 4.093E+01 5.597E+06 15.1974 1.00000
  7.943E+07 7.943E+07 2.669E+00 1.613E+00 3.285E+01 8.708E+00 4.317E+01 4.584E+01 5.797E+06 15.4276 1.00000
  8.913E+07 8.913E+07 2.681E+00 1.825E+00 3.693E+01 9.935E+00 4.869E+01 5.138E+01 5.997E+06 15.6579 1.00000
  1.000E+08 1.000E+08 2.693E+00 2.065E+00 4.152E+01 1.134E+01 5.492E+01 5.761E+01 6.197E+06 15.8881 1.00000
  1.122E+08 1.122E+08 2.705E+00 2.336E+00 4.666E+01 1.294E+01 6.194E+01 6.464E+01 6.398E+06 16.1184 1.00000
  1.259E+08 1.259E+08 2.717E+00 2.642E+00 5.244E+01 1.477E+01 6.985E+01 7.256E+01 6.598E+06 16.3486 1.00000
  1.413E+08 1.413E+08 2.729E+00 2.987E+00 5.892E+01 1.685E+01 7.876E+01 8.149E+01 6.798E+06 16.5789 1.00000
  1.585E+08 1.585E+08 2.741E+00 3.375E+00 6.620E+01 1.924E+01 8.881E+01 9.155E+01 6.998E+06 16.8092 1.00000
  1.778E+08 1.778E+08 2.754E+00 3.814E+00 7.437E+01 2.196E+01 1.001E+02 1.029E+02 7.198E+06 17.0394 1.00000
  1.995E+08 1.995E+08 2.766E+00 4.308E+00 8.353E+01 2.507E+01 1.129E+02 1.157E+02 7.397E+06 17.2697 1.00000
  2.239E+08 2.239E+08 2.778E+00 4.864E+00 9.382E+01 2.863E+01 1.273E+02 1.301E+02 7.596E+06 17.4999 1.00000
  2.512E+08 2.512E+08 2.790E+00 5.492E+00 1.054E+02 3.269E+01 1.436E+02 1.463E+02 7.794E+06 17.7302 1.00000
  2.818E+08 2.818E+08 2.803E+00 6.198E+00 1.183E+02 3.733E+01 1.619E+02 1.647E+02 7.992E+06 17.9604 1.00000
  3.162E+08 3.162E+08 2.815E+00 6.993E+00 1.329E+02 4.263E+01 1.825E+02 1.853E+02 8.189E+06 18.1907 1.00000
  3.548E+08 3.548E+08 2.827E+00 7.889E+00 1.492E+02 4.869E+01 2.058E+02 2.086E+02 8.385E+06 18.4210 1.00000
  3.981E+08 3.981E+08 2.840E+00 8.897E+00 1.675E+02 5.562E+01 2.320E+02 2.349E+02 8.581E+06 18.6512 1.00000
  4.467E+08 4.467E+08 2.853E+00 1.003E+01 1.881E+02 6.353E+01 2.616E+02 2.645E+02 8.777E+06 18.8815 1.00000
  5.012E+08 5.012E+08 2.865E+00 1.131E+01 2.111E+02 7.257E+01 2.950E+02 2.979E+02 8.971E+06 19.1117 1.00000
  5.623E+08 5.623E+08 2.878E+00 1.274E+01 2.370E+02 8.291E+01 3.327E+02 3.355E+02 9.165E+06 19.3420 1.00000
  6.310E+08 6.310E+08 2.891E+00 1.436E+01 2.661E+02 9.472E+01 3.751E+02 3.780E+02 9.358E+06 19.5722 1.00000
  7.079E+08 7.079E+08 2.904E+00 1.617E+01 2.986E+02 1.082E+02 4.230E+02 4.259E+02 9.550E+06 19.8025 1.00000
  7.943E+08 7.943E+08 2.916E+00 1.822E+01 3.352E+02 1.237E+02 4.771E+02 4.800E+02 9.742E+06 20.0328 1.00000
  8.913E+08 8.913E+08 2.929E+00 2.051E+01 3.762E+02 1.413E+02 5.381E+02 5.410E+02 9.932E+06 20.2630 1.00000
  1.000E+09 1.000E+09 2.942E+00 2.309E+01 4.223E+02 1.615E+02 6.068E+02 6.098E+02 1.012E+07 20.4933 1.00000
  1.122E+09 1.122E+09 2.956E+00 2.599E+01 4.739E+02 1.845E+02 6.845E+02 6.874E+02 1.031E+07 20.7235 1.00000
  1.259E+09 1.259E+09 2.969E+00 2.925E+01 5.319E+02 2.109E+02 7.721E+02 7.750E+02 1.050E+07 20.9538 1.00000
  1.413E+09 1.413E+09 2.982E+00 3.291E+01 5.970E+02 2.410E+02 8.709E+02 8.739E+02 1.069E+07 21.1840 1.00000
  1.585E+09 1.585E+09 2.995E+00 3.703E+01 6.699E+02 2.755E+02 9.825E+02 9.855E+02 1.087E+07 21.4143 1.00000
  1.778E+09 1.778E+09 3.009E+00 4.165E+01 7.518E+02 3.149E+02 1.108E+03 1.111E+03 1.106E+07 21.6446 1.00000
  1.995E+09 1.995E+09 3.022E+00 4.684E+01 8.437E+02 3.600E+02 1.251E+03 1.254E+03 1.124E+07 21.8748 1.00000
  2.239E+09 2.239E+09 3.036E+00 5.267E+01 9.468E+02 4.116E+02 1.411E+03 1.414E+03 1.142E+07 22.1051 1.00000
  2.512E+09 2.512E+09 3.049E+00 5.922E+01 1.063E+03 4.705E+02 1.592E+03 1.595E+03 1.161E+07 22.3353 1.00000
  2.818E+09 2.818E+09 3.063E+00 6.658E+01 1.192E+03 5.380E+02 1.797E+03 1.800E+03 1.179E+07 22.5656 1.00000
  3.162E+09 3.162E+09 3.077E+00 7.484E+01 1.338E+03 6.151E+02 2.028E+03 2.031E+03 1.197E+07 22.7959 1.00000
  3.548E+09 3.548E+09 3.091E+00 8.411E+01 1.501E+03 7.033E+02 2.289E+03 2.292E+03 1.215E+07 23.0261 1.00000
  3.981E+09 3.981E+09 3.104E+00 9.452E+01 1.685E+03 8.043E+02 2.583E+03 2.587E+03 1.232E+07 23.2564 1.00000
  4.467E+09 4.467E+09 3.118E+00 1.062E+02 1.890E+03 9.197E+02 2.916E+03 2.919E+03 1.250E+07 23.4866 1.00000
  5.012E+09 5.012E+09 3.132E+00 1.193E+02 2.121E+03 1.052E+03 3.292E+03 3.296E+03 1.268E+07 23.7169 1.00000
  5.623E+09 5.623E+09 3.147E+00 1.341E+02 2.380E+03 1.203E+03 3.717E+03 3.720E+03 1.285E+07 23.9471 1.00000
  6.310E+09 6.310E+09 3.161E+00 1.506E+02 2.671E+03 1.376E+03 4.197E+03 4.200E+03 1.303E+07 24.1774 1.00000
  7.079E+09 7.079E+09 3.175E+00 1.692E+02 2.997E+03 1.574E+03 4.740E+03 4.743E+03 1.320E+07 24.4077 1.00000
  7.943E+09 7.943E+09 3.190E+00 1.900E+02 3.363E+03 1.800E+03 5.353E+03 5.356E+03 1.337E+07 24.6379 1.00000
  8.913E+09 8.913E+09 3.204E+00 2.134E+02 3.773E+03 2.059E+03 6.046E+03 6.049E+03 1.354E+07 24.8682 1.00000
  1.000E+10 1.000E+10 3.219E+00 2.397E+02 4.234E+03 2.356E+03 6.829E+03 6.832E+03 1.371E+07 25.0984 1.00000
  1.122E+10 1.122E+10 3.233E+00 2.691E+02 4.750E+03 2.695E+03 7.715E+03 7.718E+03 1.388E+07 25.3287 1.00000
  1.259E+10 1.259E+10 3.248E+00 3.022E+02 5.330E+03 3.083E+03 8.716E+03 8.719E+03 1.405E+07 25.5590 1.00000
  1.413E+10 1.413E+10 3.263E+00 3.393E+02 5.981E+03 3.528E+03 9.848E+03 9.851E+03 1.421E+07 25.7892 1.00000
  1.585E+10 1.585E+10 3.278E+00 3.810E+02 6.710E+03 4.037E+03 1.113E+04 1.113E+04 1.438E+07 26.0195 1.00000
  1.778E+10 1.778E+10 3.293E+00 4.277E+02 7.529E+03 4.619E+03 1.258E+04 1.258E+04 1.454E+07 26.2497 1.00000
  1.995E+10 1.995E+10 3.308E+00 4.802E+02 8.448E+03 5.286E+03 1.421E+04 1.422E+04 1.470E+07 26.4800 1.00000
  2.239E+10 2.239E+10 3.323E+00 5.390E+02 9.479E+03 6.049E+03 1.607E+04 1.607E+04 1.487E+07 26.7103 1.00000
  2.512E+10 2.512E+10 3.338E+00 6.051E+02 1.064E+04 6.923E+03 1.816E+04 1.817E+04 1.503E+07 26.9405 1.00000
  2.818E+10 2.818E+10 3.353E+00 6.792E+02 1.193E+04 7.924E+03 2.054E+04 2.054E+04 1.518E+07 27.1708 1.00000
  3.162E+10 3.162E+10 3.369E+00 7.624E+02 1.339E+04 9.070E+03 2.322E+04 2.322E+04 1.534E+07 27.4010 1.00000
  3.548E+10 3.548E+10 3.384E+00 8.558E+02 1.502E+04 1.038E+04 2.626E+04 2.626E+04 1.550E+07 27.6313 1.00000
  3.981E+10 3.981E+10 3.400E+00 9.605E+02 1.686E+04 1.188E+04 2.970E+04 2.970E+04 1.565E+07 27.8615 1.00000
  4.467E+10 4.467E+10 3.415E+00 1.078E+03 1.891E+04 1.360E+04 3.359E+04 3.360E+04 1.581E+07 28.0918 1.00000
  5.012E+10 5.012E+10 3.431E+00 1.210E+03 2.122E+04 1.557E+04 3.800E+04 3.801E+04 1.596E+07 28.3221 1.00000
  5.623E+10 5.623E+10 3.447E+00 1.358E+03 2.381E+04 1.783E+04 4.300E+04 4.300E+04 1.611E+07 28.5523 1.00000
  6.310E+10 6.310E+10 3.463E+00 1.524E+03 2.671E+04 2.042E+04 4.865E+04 4.866E+04 1.626E+07 28.7826 1.00000
  7.079E+10 7.079E+10 3.479E+00 1.710E+03 2.997E+04 2.338E+04 5.506E+04 5.506E+04 1.641E+07 29.0128 1.00000
  7.943E+10 7.943E+10 3.495E+00 1.919E+03 3.363E+04 2.677E+04 6.231E+04 6.232E+04 1.656E+07 29.2431 1.00000
  8.913E+10 8.913E+10 3.511E+00 2.154E+03 3.773E+04 3.065E+04 7.054E+04 7.054E+04 1.671E+07 29.4734 1.00000
  1.000E+11 1.000E+11 3.527E+00 2.417E+03 4.233E+04 3.510E+04 7.985E+04 7.986E+04 1.685E+07 29.7036 1.00000
  1.122E+11 1.122E+11 3.544E+00 2.713E+03 4.750E+04 4.020E+04 9.041E+04 9.041E+04 1.700E+07 29.9339 1.00000
  1.259E+11 1.259E+11 3.560E+00 3.044E+03 5.329E+04 4.604E+04 1.024E+05 1.024E+05 1.714E+07 30.1641 1.00000
  1.413E+11 1.413E+11 3.577E+00 3.416E+03 5.979E+04 5.273E+04 1.159E+05 1.159E+05 1.728E+07 30.3944 1.00000
  1.585E+11 1.585E+11 3.593E+00 3.833E+03 6.709E+04 6.040E+04 1.313E+05 1.313E+05 1.742E+07 30.6246 1.00000
  1.778E+11 1.778E+11 3.610E+00 4.301E+03 7.527E+04 6.919E+04 1.488E+05 1.488E+05 1.756E+07 30.8549 1.00000
  1.995E+11 1.995E+11 3.627E+00 4.827E+03 8.445E+04 7.926E+04 1.685E+05 1.685E+05 1.770E+07 31.0852 1.00000
  2.239E+11 2.239E+11 3.644E+00 5.416E+03 9.476E+04 9.080E+04 1.910E+05 1.910E+05 1.783E+07 31.3154 1.00000
  2.512E+11 2.512E+11 3.661E+00 6.077E+03 1.063E+05 1.040E+05 2.164E+05 2.164E+05 1.797E+07 31.5457 1.00000
  2.818E+11 2.818E+11 3.678E+00 6.820E+03 1.193E+05 1.192E+05 2.453E+05 2.453E+05 1.810E+07 31.7759 1.00000
  3.162E+11 3.162E+11 3.695E+00 7.652E+03 1.338E+05 1.366E+05 2.780E+05 2.781E+05 1.823E+07 32.0062 1.00000
  3.548E+11 3.548E+11 3.713E+00 8.586E+03 1.502E+05 1.565E+05 3.152E+05 3.152E+05 1.836E+07 32.2365 1.00000
  3.981E+11 3.981E+11 3.730E+00 9.635E+03 1.685E+05 1.793E+05 3.574E+05 3.574E+05 1.849E+07 32.4667 1.00000
  4.467E+11 4.467E+11 3.748E+00 1.081E+04 1.890E+05 2.055E+05 4.053E+05 4.053E+05 1.862E+07 32.6970 1.00000
  5.012E+11 5.012E+11 3.765E+00 1.213E+04 2.121E+05 2.355E+05 4.597E+05 4.597E+05 1.875E+07 32.9272 1.00000
  5.623E+11 5.623E+11 3.783E+00 1.361E+04 2.380E+05 2.699E+05 5.214E+05 5.215E+05 1.887E+07 33.1575 1.00000
  6.310E+11 6.310E+11 3.801E+00 1.527E+04 2.670E+05 3.093E+05 5.916E+05 5.916E+05 1.899E+07 33.3877 1.00000
  7.079E+11 7.079E+11 3.819E+00 1.714E+04 2.996E+05 3.545E+05 6.712E+05 6.712E+05 1.912E+07 33.6180 1.00000
  7.943E+11 7.943E+11 3.837E+00 1.923E+04 3.361E+05 4.064E+05 7.617E+05 7.617E+05 1.924E+07 33.8483 1.00000
  8.913E+11 8.913E+11 3.855E+00 2.157E+04 3.771E+05 4.658E+05 8.645E+05 8.645E+05 1.936E+07 34.0785 1.00000
  1.000E+12 1.000E+12 3.873E+00 2.421E+04 4.231E+05 5.340E+05 9.813E+05 9.813E+05 1.948E+07 34.3088 1.00000
  1.122E+12 1.122E+12 3.891E+00 2.716E+04 4.747E+05 6.122E+05 1.114E+06 1.114E+06 1.959E+07 34.5390 1.00000
  1.259E+12 1.259E+12 3.910E+00 3.048E+04 5.326E+05 7.019E+05 1.265E+06 1.265E+06 1.971E+07 34.7693 1.00000
  1.413E+12 1.413E+12 3.928E+00 3.420E+04 5.976E+05 8.048E+05 1.437E+06 1.437E+06 1.982E+07 34.9996 1.00000
  1.585E+12 1.585E+12 3.947E+00 3.837E+04 6.704E+05 9.228E+05 1.632E+06 1.632E+06 1.993E+07 35.2298 1.00000
  1.778E+12 1.778E+12 3.966E+00 4.305E+04 7.522E+05 1.058E+06 1.853E+06 1.853E+06 2.005E+07 35.4601 1.00000
  1.995E+12 1.995E+12 3.984E+00 4.830E+04 8.440E+05 1.213E+06 2.106E+06 2.106E+06 2.016E+07 35.6903 1.00000
  2.239E+12 2.239E+12 4.003E+00 5.420E+04 9.469E+05 1.391E+06 2.393E+06 2.393E+06 2.027E+07 35.9206 1.00000
  2.512E+12 2.512E+12 4.022E+00 6.081E+04 1.062E+06 1.596E+06 2.719E+06 2.719E+06 2.037E+07 36.1508 1.00000
  2.818E+12 2.818E+12 4.042E+00 6.823E+04 1.192E+06 1.830E+06 3.090E+06 3.090E+06 2.048E+07 36.3811 1.00000
  3.162E+12 3.162E+12 4.061E+00 7.656E+04 1.337E+06 2.099E+06 3.513E+06 3.513E+06 2.058E+07 36.6114 1.00000
  3.548E+12 3.548E+12 4.080E+00 8.590E+04 1.500E+06 2.408E+06 3.994E+06 3.994E+06 2.069E+07 36.8416 1.00000
  3.981E+12 3.981E+12 4.100E+00 9.639E+04 1.684E+06 2.762E+06 4.542E+06 4.542E+06 2.079E+07 37.0719 1.00000
  4.467E+12 4.467E+12 4.119E+00 1.081E+05 1.889E+06 3.168E+06 5.165E+06 5.165E+06 2.089E+07 37.3021 1.00000
  5.012E+12 5.012E+12 4.139E+00 1.213E+05 2.119E+06 3.634E+06 5.875E+06 5.875E+06 2.099E+07 37.5324 1.00000
  5.623E+12 5.623E+12 4.159E+00 1.362E+05 2.378E+06 4.169E+06 6.683E+06 6.683E+06 2.109E+07 37.7627 1.00000
  6.310E+12 6.310E+12 4.178E+00 1.528E+05 2.668E+06 4.784E+06 7.604E+06 7.604E+06 2.118E+07 37.9929 1.00000
  7.079E+12 7.079E+12 4.198E+00 1.714E+05 2.993E+06 5.488E+06 8.653E+06 8.653E+06 2.128E+07 38.2232 1.00000
  7.943E+12 7.943E+12 4.219E+00 1.923E+05 3.358E+06 6.297E+06 9.848E+06 9.848E+06 2.137E+07 38.4534 1.00000
  8.913E+12 8.913E+12 4.239E+00 2.158E+05 3.768E+06 7.226E+06 1.121E+07 1.121E+07 2.146E+07 38.6837 1.00000
  1.000E+13 1.000E+13 4.259E+00 2.421E+05 4.227E+06 8.292E+06 1.276E+07 1.276E+07 2.155E+07 38.9140 1.00000
  1.122E+13 1.122E+13 4.280E+00 2.717E+05 4.743E+06 9.516E+06 1.453E+07 1.453E+07 2.164E+07 39.1442 1.00000
  1.259E+13 1.259E+13 4.300E+00 3.048E+05 5.321E+06 1.092E+07 1.655E+07 1.655E+07 2.173E+07 39.3745 1.00000
  1.413E+13 1.413E+13 4.321E+00 3.420E+05 5.970E+06 1.253E+07 1.885E+07 1.885E+07 2.182E+07 39.6047 1.00000
  1.585E+13 1.585E+13 4.342E+00 3.837E+05 6.698E+06 1.438E+07 2.147E+07 2.147E+07 2.191E+07 39.8350 1.00000
  1.778E+13 1.778E+13 4.362E+00 4.306E+05 7.515E+06 1.651E+07 2.446E+07 2.446E+07 2.199E+07 40.0652 1.00000
  1.995E+13 1.995E+13 4.383E+00 4.831E+05 8.432E+06 1.895E+07 2.787E+07 2.787E+07 2.207E+07 40.2955 1.00000
  2.239E+13 2.239E+13 4.404E+00 5.420E+05 9.460E+06 2.176E+07 3.176E+07 3.176E+07 2.216E+07 40.5258 1.00000
  2.512E+13 2.512E+13 4.426E+00 6.082E+05 1.061E+07 2.497E+07 3.620E+07 3.620E+07 2.224E+07 40.7560 1.00000
  2.818E+13 2.818E+13 4.447E+00 6.824E+05 1.191E+07 2.867E+07 4.126E+07 4.126E+07 2.232E+07 40.9863 1.00000
  3.162E+13 3.162E+13 4.469E+00 7.657E+05 1.336E+07 3.292E+07 4.704E+07 4.704E+07 2.239E+07 41.2165 1.00000
  3.548E+13 3.548E+13 4.490E+00 8.591E+05 1.499E+07 3.779E+07 5.364E+07 5.364E+07 2.247E+07 41.4468 1.00000
  3.981E+13 3.981E+13 4.512E+00 9.639E+05 1.682E+07 4.339E+07 6.117E+07 6.117E+07 2.255E+07 41.6771 1.00000
  4.467E+13 4.467E+13 4.534E+00 1.082E+06 1.887E+07 4.982E+07 6.978E+07 6.978E+07 2.262E+07 41.9073 1.00000
  5.012E+13 5.012E+13 4.555E+00 1.213E+06 2.117E+07 5.721E+07 7.960E+07 7.960E+07 2.269E+07 42.1376 1.00000
  5.623E+13 5.623E+13 4.577E+00 1.362E+06 2.375E+07 6.570E+07 9.081E+07 9.081E+07 2.277E+07 42.3678 1.00000
  6.310E+13 6.310E+13 4.600E+00 1.528E+06 2.665E+07 7.545E+07 1.036E+08 1.036E+08 2.284E+07 42.5981 1.00000
  7.079E+13 7.079E+13 4.622E+00 1.714E+06 2.990E+07 8.665E+07 1.183E+08 1.183E+08 2.291E+07 42.8283 1.00000
  7.943E+13 7.943E+13 4.644E+00 1.923E+06 3.355E+07 9.952E+07 1.350E+08 1.350E+08 2.298E+07 43.0586 1.00000
  8.913E+13 8.913E+13 4.667E+00 2.158E+06 3.764E+07 1.143E+08 1.541E+08 1.541E+08 2.304E+07 43.2889 1.00000
