 Incident particle is a Tau with M = 1776.82000 MeV
 Index = 0: UraniumMonocarbide
      Absorber with <Z/A> = 0.39194
 Sternheimer coef:  a     k=m_s   x_0    x_1    I[eV]   Cbar  delta0
                 0.2297  2.6169  0.2524  3.4941  862.0  6.1210 0.00

 *** Table generated with PUMAS v1.00 ***

      T         p     Ionization  brems     pair     photonuc  Radloss    dE/dx   CSDA Range  delta   beta
    [MeV]    [MeV/c]  -----------------------[MeV cm^2/g]------------------------  [g/cm^2]
  1.000E+05 1.018E+05 1.537E+00 1.082E-03 1.945E-02 7.552E-03 2.808E-02 1.565E+00 3.195E+04  2.9477 0.99985
  1.122E+05 1.140E+05 1.555E+00 1.255E-03 2.328E-02 8.475E-03 3.301E-02 1.588E+00 3.969E+04  3.1037 0.99988
  1.259E+05 1.277E+05 1.573E+00 1.455E-03 2.778E-02 9.463E-03 3.870E-02 1.612E+00 4.824E+04  3.2632 0.99990
  1.413E+05 1.430E+05 1.591E+00 1.686E-03 3.307E-02 1.057E-02 4.532E-02 1.637E+00 5.770E+04  3.4262 0.99992
  1.585E+05 1.603E+05 1.609E+00 1.952E-03 3.925E-02 1.180E-02 5.300E-02 1.662E+00 6.815E+04  3.5926 0.99994
  1.778E+05 1.796E+05 1.627E+00 2.259E-03 4.648E-02 1.316E-02 6.190E-02 1.689E+00 7.969E+04  3.7623 0.99995
  1.995E+05 2.013E+05 1.644E+00 2.612E-03 5.492E-02 1.470E-02 7.223E-02 1.717E+00 9.244E+04  3.9353 0.99996
  2.239E+05 2.256E+05 1.662E+00 3.020E-03 6.473E-02 1.638E-02 8.414E-02 1.746E+00 1.065E+05  4.1114 0.99997
  2.512E+05 2.530E+05 1.679E+00 3.489E-03 7.614E-02 1.825E-02 9.788E-02 1.777E+00 1.220E+05  4.2905 0.99998
  2.818E+05 2.836E+05 1.696E+00 4.028E-03 8.936E-02 2.035E-02 1.137E-01 1.810E+00 1.391E+05  4.4727 0.99998
  3.162E+05 3.180E+05 1.713E+00 4.648E-03 1.047E-01 2.271E-02 1.320E-01 1.845E+00 1.579E+05  4.6579 0.99998
  3.548E+05 3.566E+05 1.730E+00 5.360E-03 1.223E-01 2.534E-02 1.530E-01 1.883E+00 1.786E+05  4.8459 0.99999
  3.981E+05 3.999E+05 1.746E+00 6.178E-03 1.427E-01 2.827E-02 1.772E-01 1.924E+00 2.014E+05  5.0367 0.99999
  4.467E+05 4.485E+05 1.763E+00 7.116E-03 1.662E-01 3.153E-02 2.049E-01 1.968E+00 2.263E+05  5.2302 0.99999
  5.012E+05 5.030E+05 1.779E+00 8.193E-03 1.933E-01 3.519E-02 2.366E-01 2.016E+00 2.537E+05  5.4263 0.99999
  5.623E+05 5.641E+05 1.795E+00 9.428E-03 2.243E-01 3.913E-02 2.729E-01 2.068E+00 2.837E+05  5.6250 1.00000
  6.310E+05 6.327E+05 1.811E+00 1.084E-02 2.599E-01 4.356E-02 3.143E-01 2.125E+00 3.164E+05  5.8262 1.00000
  7.079E+05 7.097E+05 1.826E+00 1.247E-02 3.007E-01 4.854E-02 3.617E-01 2.188E+00 3.521E+05  6.0297 1.00000
  7.943E+05 7.961E+05 1.842E+00 1.432E-02 3.474E-01 5.414E-02 4.159E-01 2.258E+00 3.910E+05  6.2356 1.00000
  8.913E+05 8.930E+05 1.857E+00 1.645E-02 4.007E-01 6.046E-02 4.776E-01 2.335E+00 4.332E+05  6.4437 1.00000
  1.000E+06 1.002E+06 1.872E+00 1.888E-02 4.616E-01 6.758E-02 5.481E-01 2.420E+00 4.790E+05  6.6540 1.00000
  1.122E+06 1.124E+06 1.887E+00 2.166E-02 5.311E-01 7.563E-02 6.284E-01 2.515E+00 5.284E+05  6.8663 1.00000
  1.259E+06 1.261E+06 1.902E+00 2.484E-02 6.102E-01 8.472E-02 7.197E-01 2.622E+00 5.817E+05  7.0806 1.00000
  1.413E+06 1.414E+06 1.916E+00 2.848E-02 7.002E-01 9.500E-02 8.236E-01 2.740E+00 6.391E+05  7.2967 1.00000
  1.585E+06 1.587E+06 1.931E+00 3.263E-02 8.025E-01 1.066E-01 9.418E-01 2.872E+00 7.005E+05  7.5147 1.00000
  1.778E+06 1.780E+06 1.945E+00 3.737E-02 9.187E-01 1.198E-01 1.076E+00 3.021E+00 7.662E+05  7.7343 1.00000
  1.995E+06 1.997E+06 1.959E+00 4.278E-02 1.051E+00 1.348E-01 1.228E+00 3.187E+00 8.362E+05  7.9555 1.00000
  2.239E+06 2.240E+06 1.972E+00 4.895E-02 1.200E+00 1.517E-01 1.401E+00 3.373E+00 9.104E+05  8.1782 1.00000
  2.512E+06 2.514E+06 1.986E+00 5.599E-02 1.370E+00 1.710E-01 1.597E+00 3.583E+00 9.891E+05  8.4024 1.00000
  2.818E+06 2.820E+06 1.999E+00 6.402E-02 1.562E+00 1.928E-01 1.818E+00 3.818E+00 1.072E+06  8.6277 1.00000
  3.162E+06 3.164E+06 2.012E+00 7.317E-02 1.779E+00 2.176E-01 2.069E+00 4.082E+00 1.159E+06  8.8543 1.00000
  3.548E+06 3.550E+06 2.025E+00 8.360E-02 2.024E+00 2.458E-01 2.354E+00 4.379E+00 1.250E+06  9.0818 1.00000
  3.981E+06 3.983E+06 2.038E+00 9.548E-02 2.302E+00 2.779E-01 2.675E+00 4.713E+00 1.346E+06  9.3103 1.00000
  4.467E+06 4.469E+06 2.051E+00 1.090E-01 2.615E+00 3.143E-01 3.038E+00 5.089E+00 1.445E+06  9.5395 1.00000
  5.012E+06 5.014E+06 2.063E+00 1.244E-01 2.969E+00 3.558E-01 3.449E+00 5.512E+00 1.548E+06  9.7693 1.00000
  5.623E+06 5.625E+06 2.076E+00 1.419E-01 3.368E+00 4.030E-01 3.913E+00 5.988E+00 1.655E+06  9.9994 1.00000
  6.310E+06 6.311E+06 2.088E+00 1.618E-01 3.818E+00 4.568E-01 4.437E+00 6.524E+00 1.764E+06 10.2296 1.00000
  7.079E+06 7.081E+06 2.100E+00 1.845E-01 4.325E+00 5.180E-01 5.028E+00 7.128E+00 1.877E+06 10.4598 1.00000
  7.943E+06 7.945E+06 2.112E+00 2.102E-01 4.897E+00 5.877E-01 5.695E+00 7.807E+00 1.993E+06 10.6900 1.00000
  8.913E+06 8.914E+06 2.124E+00 2.395E-01 5.541E+00 6.671E-01 6.448E+00 8.572E+00 2.112E+06 10.9202 1.00000
  1.000E+07 1.000E+07 2.135E+00 2.727E-01 6.267E+00 7.575E-01 7.297E+00 9.432E+00 2.233E+06 11.1504 1.00000
  1.122E+07 1.122E+07 2.147E+00 3.104E-01 7.083E+00 8.606E-01 8.254E+00 1.040E+01 2.356E+06 11.3806 1.00000
  1.259E+07 1.259E+07 2.159E+00 3.532E-01 8.002E+00 9.782E-01 9.333E+00 1.149E+01 2.482E+06 11.6108 1.00000
  1.413E+07 1.413E+07 2.170E+00 4.018E-01 9.036E+00 1.112E+00 1.055E+01 1.272E+01 2.609E+06 11.8411 1.00000
  1.585E+07 1.585E+07 2.181E+00 4.569E-01 1.020E+01 1.265E+00 1.192E+01 1.410E+01 2.738E+06 12.0713 1.00000
  1.778E+07 1.778E+07 2.193E+00 5.194E-01 1.151E+01 1.439E+00 1.347E+01 1.566E+01 2.868E+06 12.3015 1.00000
  1.995E+07 1.995E+07 2.204E+00 5.903E-01 1.298E+01 1.638E+00 1.521E+01 1.741E+01 3.000E+06 12.5318 1.00000
  2.239E+07 2.239E+07 2.215E+00 6.706E-01 1.463E+01 1.865E+00 1.717E+01 1.938E+01 3.133E+06 12.7620 1.00000
  2.512E+07 2.512E+07 2.226E+00 7.615E-01 1.649E+01 2.123E+00 1.937E+01 2.160E+01 3.266E+06 12.9922 1.00000
  2.818E+07 2.819E+07 2.237E+00 8.645E-01 1.858E+01 2.418E+00 2.186E+01 2.410E+01 3.401E+06 13.2225 1.00000
  3.162E+07 3.162E+07 2.248E+00 9.811E-01 2.092E+01 2.755E+00 2.466E+01 2.691E+01 3.536E+06 13.4527 1.00000
  3.548E+07 3.548E+07 2.259E+00 1.113E+00 2.356E+01 3.139E+00 2.781E+01 3.007E+01 3.672E+06 13.6830 1.00000
  3.981E+07 3.981E+07 2.270E+00 1.262E+00 2.652E+01 3.578E+00 3.136E+01 3.363E+01 3.808E+06 13.9132 1.00000
  4.467E+07 4.467E+07 2.281E+00 1.431E+00 2.984E+01 4.078E+00 3.535E+01 3.763E+01 3.945E+06 14.1435 1.00000
  5.012E+07 5.012E+07 2.292E+00 1.622E+00 3.358E+01 4.649E+00 3.985E+01 4.214E+01 4.082E+06 14.3737 1.00000
  5.623E+07 5.624E+07 2.302E+00 1.838E+00 3.777E+01 5.301E+00 4.491E+01 4.721E+01 4.220E+06 14.6040 1.00000
  6.310E+07 6.310E+07 2.313E+00 2.082E+00 4.248E+01 6.046E+00 5.061E+01 5.292E+01 4.357E+06 14.8342 1.00000
  7.079E+07 7.080E+07 2.324E+00 2.357E+00 4.777E+01 6.896E+00 5.702E+01 5.935E+01 4.495E+06 15.0645 1.00000
  7.943E+07 7.943E+07 2.335E+00 2.668E+00 5.370E+01 7.866E+00 6.424E+01 6.657E+01 4.632E+06 15.2947 1.00000
  8.913E+07 8.913E+07 2.346E+00 3.019E+00 6.037E+01 8.974E+00 7.236E+01 7.471E+01 4.770E+06 15.5250 1.00000
  1.000E+08 1.000E+08 2.357E+00 3.415E+00 6.785E+01 1.024E+01 8.151E+01 8.386E+01 4.908E+06 15.7552 1.00000
  1.122E+08 1.122E+08 2.368E+00 3.862E+00 7.625E+01 1.168E+01 9.180E+01 9.417E+01 5.045E+06 15.9855 1.00000
  1.259E+08 1.259E+08 2.379E+00 4.366E+00 8.568E+01 1.334E+01 1.034E+02 1.058E+02 5.183E+06 16.2157 1.00000
  1.413E+08 1.413E+08 2.390E+00 4.935E+00 9.626E+01 1.522E+01 1.164E+02 1.188E+02 5.320E+06 16.4460 1.00000
  1.585E+08 1.585E+08 2.401E+00 5.576E+00 1.081E+02 1.737E+01 1.311E+02 1.335E+02 5.457E+06 16.6763 1.00000
  1.778E+08 1.778E+08 2.412E+00 6.298E+00 1.215E+02 1.983E+01 1.476E+02 1.500E+02 5.594E+06 16.9065 1.00000
  1.995E+08 1.995E+08 2.423E+00 7.112E+00 1.364E+02 2.264E+01 1.662E+02 1.686E+02 5.730E+06 17.1368 1.00000
  2.239E+08 2.239E+08 2.434E+00 8.029E+00 1.532E+02 2.585E+01 1.871E+02 1.895E+02 5.867E+06 17.3670 1.00000
  2.512E+08 2.512E+08 2.446E+00 9.061E+00 1.721E+02 2.952E+01 2.106E+02 2.131E+02 6.003E+06 17.5973 1.00000
  2.818E+08 2.818E+08 2.457E+00 1.022E+01 1.932E+02 3.371E+01 2.371E+02 2.396E+02 6.139E+06 17.8275 1.00000
  3.162E+08 3.162E+08 2.468E+00 1.153E+01 2.170E+02 3.850E+01 2.670E+02 2.694E+02 6.274E+06 18.0578 1.00000
  3.548E+08 3.548E+08 2.480E+00 1.301E+01 2.436E+02 4.397E+01 3.006E+02 3.030E+02 6.410E+06 18.2881 1.00000
  3.981E+08 3.981E+08 2.491E+00 1.466E+01 2.735E+02 5.022E+01 3.384E+02 3.408E+02 6.545E+06 18.5183 1.00000
  4.467E+08 4.467E+08 2.502E+00 1.653E+01 3.070E+02 5.736E+01 3.809E+02 3.834E+02 6.679E+06 18.7486 1.00000
  5.012E+08 5.012E+08 2.514E+00 1.863E+01 3.446E+02 6.552E+01 4.288E+02 4.313E+02 6.814E+06 18.9788 1.00000
  5.623E+08 5.623E+08 2.526E+00 2.099E+01 3.869E+02 7.485E+01 4.827E+02 4.852E+02 6.947E+06 19.2091 1.00000
  6.310E+08 6.310E+08 2.537E+00 2.364E+01 4.343E+02 8.552E+01 5.434E+02 5.460E+02 7.081E+06 19.4393 1.00000
  7.079E+08 7.079E+08 2.549E+00 2.662E+01 4.874E+02 9.771E+01 6.118E+02 6.143E+02 7.214E+06 19.6696 1.00000
  7.943E+08 7.943E+08 2.561E+00 2.998E+01 5.471E+02 1.116E+02 6.887E+02 6.913E+02 7.347E+06 19.8999 1.00000
  8.913E+08 8.913E+08 2.573E+00 3.374E+01 6.141E+02 1.276E+02 7.754E+02 7.779E+02 7.479E+06 20.1301 1.00000
  1.000E+09 1.000E+09 2.584E+00 3.798E+01 6.892E+02 1.458E+02 8.729E+02 8.755E+02 7.611E+06 20.3604 1.00000
  1.122E+09 1.122E+09 2.596E+00 4.274E+01 7.735E+02 1.666E+02 9.828E+02 9.854E+02 7.743E+06 20.5906 1.00000
  1.259E+09 1.259E+09 2.608E+00 4.809E+01 8.681E+02 1.904E+02 1.107E+03 1.109E+03 7.874E+06 20.8209 1.00000
  1.413E+09 1.413E+09 2.620E+00 5.410E+01 9.742E+02 2.176E+02 1.246E+03 1.249E+03 8.005E+06 21.0511 1.00000
  1.585E+09 1.585E+09 2.633E+00 6.085E+01 1.093E+03 2.487E+02 1.403E+03 1.405E+03 8.135E+06 21.2814 1.00000
  1.778E+09 1.778E+09 2.645E+00 6.843E+01 1.227E+03 2.843E+02 1.580E+03 1.582E+03 8.265E+06 21.5117 1.00000
  1.995E+09 1.995E+09 2.657E+00 7.694E+01 1.377E+03 3.250E+02 1.779E+03 1.781E+03 8.395E+06 21.7419 1.00000
  2.239E+09 2.239E+09 2.669E+00 8.650E+01 1.545E+03 3.716E+02 2.003E+03 2.006E+03 8.524E+06 21.9722 1.00000
  2.512E+09 2.512E+09 2.682E+00 9.724E+01 1.734E+03 4.248E+02 2.256E+03 2.258E+03 8.652E+06 22.2024 1.00000
  2.818E+09 2.818E+09 2.694E+00 1.093E+02 1.946E+03 4.857E+02 2.541E+03 2.543E+03 8.780E+06 22.4327 1.00000
  3.162E+09 3.162E+09 2.707E+00 1.228E+02 2.183E+03 5.553E+02 2.861E+03 2.864E+03 8.908E+06 22.6630 1.00000
  3.548E+09 3.548E+09 2.719E+00 1.380E+02 2.450E+03 6.349E+02 3.223E+03 3.226E+03 9.035E+06 22.8932 1.00000
  3.981E+09 3.981E+09 2.732E+00 1.551E+02 2.749E+03 7.261E+02 3.630E+03 3.633E+03 9.162E+06 23.1235 1.00000
  4.467E+09 4.467E+09 2.745E+00 1.743E+02 3.085E+03 8.303E+02 4.089E+03 4.092E+03 9.288E+06 23.3537 1.00000
  5.012E+09 5.012E+09 2.758E+00 1.958E+02 3.461E+03 9.495E+02 4.607E+03 4.609E+03 9.414E+06 23.5840 1.00000
  5.623E+09 5.623E+09 2.771E+00 2.199E+02 3.884E+03 1.086E+03 5.190E+03 5.192E+03 9.539E+06 23.8142 1.00000
  6.310E+09 6.310E+09 2.784E+00 2.470E+02 4.358E+03 1.242E+03 5.847E+03 5.850E+03 9.664E+06 24.0445 1.00000
  7.079E+09 7.079E+09 2.797E+00 2.774E+02 4.890E+03 1.421E+03 6.588E+03 6.591E+03 9.788E+06 24.2748 1.00000
  7.943E+09 7.943E+09 2.810E+00 3.115E+02 5.487E+03 1.625E+03 7.423E+03 7.426E+03 9.912E+06 24.5050 1.00000
  8.913E+09 8.913E+09 2.823E+00 3.498E+02 6.156E+03 1.859E+03 8.365E+03 8.368E+03 1.003E+07 24.7353 1.00000
  1.000E+10 1.000E+10 2.836E+00 3.928E+02 6.908E+03 2.127E+03 9.427E+03 9.430E+03 1.016E+07 24.9655 1.00000
  1.122E+10 1.122E+10 2.850E+00 4.411E+02 7.751E+03 2.433E+03 1.062E+04 1.063E+04 1.028E+07 25.1958 1.00000
  1.259E+10 1.259E+10 2.863E+00 4.952E+02 8.697E+03 2.784E+03 1.198E+04 1.198E+04 1.040E+07 25.4261 1.00000
  1.413E+10 1.413E+10 2.876E+00 5.560E+02 9.758E+03 3.185E+03 1.350E+04 1.350E+04 1.052E+07 25.6563 1.00000
  1.585E+10 1.585E+10 2.890E+00 6.242E+02 1.095E+04 3.644E+03 1.522E+04 1.522E+04 1.064E+07 25.8866 1.00000
  1.778E+10 1.778E+10 2.904E+00 7.007E+02 1.228E+04 4.170E+03 1.716E+04 1.716E+04 1.076E+07 26.1168 1.00000
  1.995E+10 1.995E+10 2.917E+00 7.866E+02 1.378E+04 4.772E+03 1.934E+04 1.935E+04 1.088E+07 26.3471 1.00000
  2.239E+10 2.239E+10 2.931E+00 8.830E+02 1.547E+04 5.461E+03 2.181E+04 2.181E+04 1.100E+07 26.5774 1.00000
  2.512E+10 2.512E+10 2.945E+00 9.911E+02 1.735E+04 6.250E+03 2.459E+04 2.460E+04 1.112E+07 26.8076 1.00000
  2.818E+10 2.818E+10 2.959E+00 1.113E+03 1.947E+04 7.153E+03 2.774E+04 2.774E+04 1.124E+07 27.0379 1.00000
  3.162E+10 3.162E+10 2.973E+00 1.249E+03 2.185E+04 8.188E+03 3.128E+04 3.128E+04 1.135E+07 27.2681 1.00000
  3.548E+10 3.548E+10 2.987E+00 1.401E+03 2.451E+04 9.372E+03 3.528E+04 3.529E+04 1.147E+07 27.4984 1.00000
  3.981E+10 3.981E+10 3.001E+00 1.573E+03 2.750E+04 1.073E+04 3.980E+04 3.981E+04 1.159E+07 27.7286 1.00000
  4.467E+10 4.467E+10 3.016E+00 1.765E+03 3.086E+04 1.228E+04 4.490E+04 4.491E+04 1.170E+07 27.9589 1.00000
  5.012E+10 5.012E+10 3.030E+00 1.981E+03 3.462E+04 1.406E+04 5.066E+04 5.067E+04 1.181E+07 28.1892 1.00000
  5.623E+10 5.623E+10 3.044E+00 2.223E+03 3.884E+04 1.610E+04 5.717E+04 5.717E+04 1.193E+07 28.4194 1.00000
  6.310E+10 6.310E+10 3.059E+00 2.495E+03 4.358E+04 1.843E+04 6.451E+04 6.451E+04 1.204E+07 28.6497 1.00000
  7.079E+10 7.079E+10 3.074E+00 2.800E+03 4.890E+04 2.110E+04 7.280E+04 7.281E+04 1.215E+07 28.8799 1.00000
  7.943E+10 7.943E+10 3.088E+00 3.143E+03 5.487E+04 2.416E+04 8.217E+04 8.218E+04 1.227E+07 29.1102 1.00000
  8.913E+10 8.913E+10 3.103E+00 3.526E+03 6.156E+04 2.767E+04 9.276E+04 9.276E+04 1.238E+07 29.3405 1.00000
  1.000E+11 1.000E+11 3.118E+00 3.957E+03 6.907E+04 3.169E+04 1.047E+05 1.047E+05 1.249E+07 29.5707 1.00000
  1.122E+11 1.122E+11 3.133E+00 4.441E+03 7.750E+04 3.629E+04 1.182E+05 1.182E+05 1.260E+07 29.8010 1.00000
  1.259E+11 1.259E+11 3.148E+00 4.983E+03 8.695E+04 4.156E+04 1.335E+05 1.335E+05 1.271E+07 30.0312 1.00000
  1.413E+11 1.413E+11 3.163E+00 5.592E+03 9.756E+04 4.761E+04 1.508E+05 1.508E+05 1.282E+07 30.2615 1.00000
  1.585E+11 1.585E+11 3.178E+00 6.275E+03 1.095E+05 5.453E+04 1.703E+05 1.703E+05 1.292E+07 30.4917 1.00000
  1.778E+11 1.778E+11 3.193E+00 7.041E+03 1.228E+05 6.246E+04 1.923E+05 1.923E+05 1.303E+07 30.7220 1.00000
  1.995E+11 1.995E+11 3.209E+00 7.901E+03 1.378E+05 7.155E+04 2.172E+05 2.172E+05 1.314E+07 30.9523 1.00000
  2.239E+11 2.239E+11 3.224E+00 8.865E+03 1.546E+05 8.197E+04 2.454E+05 2.454E+05 1.324E+07 31.1825 1.00000
  2.512E+11 2.512E+11 3.240E+00 9.948E+03 1.735E+05 9.391E+04 2.773E+05 2.773E+05 1.335E+07 31.4128 1.00000
  2.818E+11 2.818E+11 3.255E+00 1.116E+04 1.946E+05 1.076E+05 3.134E+05 3.134E+05 1.345E+07 31.6430 1.00000
  3.162E+11 3.162E+11 3.271E+00 1.252E+04 2.184E+05 1.233E+05 3.542E+05 3.542E+05 1.355E+07 31.8733 1.00000
  3.548E+11 3.548E+11 3.287E+00 1.405E+04 2.450E+05 1.413E+05 4.003E+05 4.003E+05 1.366E+07 32.1036 1.00000
  3.981E+11 3.981E+11 3.303E+00 1.577E+04 2.749E+05 1.619E+05 4.525E+05 4.525E+05 1.376E+07 32.3338 1.00000
  4.467E+11 4.467E+11 3.319E+00 1.769E+04 3.084E+05 1.855E+05 5.116E+05 5.116E+05 1.386E+07 32.5641 1.00000
  5.012E+11 5.012E+11 3.335E+00 1.985E+04 3.460E+05 2.126E+05 5.785E+05 5.785E+05 1.396E+07 32.7943 1.00000
  5.623E+11 5.623E+11 3.351E+00 2.228E+04 3.882E+05 2.436E+05 6.542E+05 6.542E+05 1.406E+07 33.0246 1.00000
  6.310E+11 6.310E+11 3.367E+00 2.500E+04 4.356E+05 2.792E+05 7.398E+05 7.398E+05 1.416E+07 33.2548 1.00000
  7.079E+11 7.079E+11 3.384E+00 2.805E+04 4.887E+05 3.201E+05 8.368E+05 8.368E+05 1.426E+07 33.4851 1.00000
  7.943E+11 7.943E+11 3.400E+00 3.147E+04 5.484E+05 3.669E+05 9.467E+05 9.467E+05 1.435E+07 33.7154 1.00000
  8.913E+11 8.913E+11 3.416E+00 3.531E+04 6.152E+05 4.205E+05 1.071E+06 1.071E+06 1.445E+07 33.9456 1.00000
  1.000E+12 1.000E+12 3.433E+00 3.962E+04 6.903E+05 4.821E+05 1.212E+06 1.212E+06 1.455E+07 34.1759 1.00000
  1.122E+12 1.122E+12 3.450E+00 4.445E+04 7.745E+05 5.527E+05 1.372E+06 1.372E+06 1.464E+07 34.4061 1.00000
  1.259E+12 1.259E+12 3.467E+00 4.988E+04 8.689E+05 6.337E+05 1.552E+06 1.552E+06 1.474E+07 34.6364 1.00000
  1.413E+12 1.413E+12 3.483E+00 5.597E+04 9.749E+05 7.265E+05 1.757E+06 1.757E+06 1.483E+07 34.8667 1.00000
  1.585E+12 1.585E+12 3.500E+00 6.280E+04 1.094E+06 8.330E+05 1.990E+06 1.990E+06 1.492E+07 35.0969 1.00000
  1.778E+12 1.778E+12 3.518E+00 7.046E+04 1.227E+06 9.552E+05 2.253E+06 2.253E+06 1.501E+07 35.3272 1.00000
  1.995E+12 1.995E+12 3.535E+00 7.906E+04 1.377E+06 1.095E+06 2.551E+06 2.551E+06 1.510E+07 35.5574 1.00000
  2.239E+12 2.239E+12 3.552E+00 8.870E+04 1.545E+06 1.256E+06 2.890E+06 2.890E+06 1.519E+07 35.7877 1.00000
  2.512E+12 2.512E+12 3.569E+00 9.953E+04 1.733E+06 1.441E+06 3.273E+06 3.273E+06 1.528E+07 36.0179 1.00000
  2.818E+12 2.818E+12 3.587E+00 1.117E+05 1.945E+06 1.652E+06 3.709E+06 3.709E+06 1.537E+07 36.2482 1.00000
  3.162E+12 3.162E+12 3.604E+00 1.253E+05 2.182E+06 1.895E+06 4.202E+06 4.202E+06 1.546E+07 36.4785 1.00000
  3.548E+12 3.548E+12 3.622E+00 1.406E+05 2.448E+06 2.174E+06 4.762E+06 4.762E+06 1.554E+07 36.7087 1.00000
  3.981E+12 3.981E+12 3.640E+00 1.577E+05 2.747E+06 2.493E+06 5.398E+06 5.398E+06 1.563E+07 36.9390 1.00000
  4.467E+12 4.467E+12 3.658E+00 1.770E+05 3.082E+06 2.860E+06 6.119E+06 6.119E+06 1.571E+07 37.1692 1.00000
  5.012E+12 5.012E+12 3.675E+00 1.986E+05 3.458E+06 3.281E+06 6.937E+06 6.937E+06 1.580E+07 37.3995 1.00000
  5.623E+12 5.623E+12 3.693E+00 2.228E+05 3.879E+06 3.764E+06 7.866E+06 7.866E+06 1.588E+07 37.6298 1.00000
  6.310E+12 6.310E+12 3.712E+00 2.500E+05 4.352E+06 4.318E+06 8.921E+06 8.921E+06 1.596E+07 37.8600 1.00000
  7.079E+12 7.079E+12 3.730E+00 2.805E+05 4.883E+06 4.955E+06 1.012E+07 1.012E+07 1.604E+07 38.0903 1.00000
  7.943E+12 7.943E+12 3.748E+00 3.147E+05 5.479E+06 5.685E+06 1.148E+07 1.148E+07 1.612E+07 38.3205 1.00000
  8.913E+12 8.913E+12 3.767E+00 3.532E+05 6.147E+06 6.523E+06 1.302E+07 1.302E+07 1.620E+07 38.5508 1.00000
  1.000E+13 1.000E+13 3.785E+00 3.962E+05 6.897E+06 7.486E+06 1.478E+07 1.478E+07 1.628E+07 38.7811 1.00000
  1.122E+13 1.122E+13 3.804E+00 4.446E+05 7.738E+06 8.590E+06 1.677E+07 1.677E+07 1.636E+07 39.0113 1.00000
  1.259E+13 1.259E+13 3.823E+00 4.988E+05 8.682E+06 9.859E+06 1.904E+07 1.904E+07 1.644E+07 39.2416 1.00000
  1.413E+13 1.413E+13 3.841E+00 5.597E+05 9.741E+06 1.131E+07 2.161E+07 2.161E+07 1.651E+07 39.4718 1.00000
  1.585E+13 1.585E+13 3.860E+00 6.280E+05 1.093E+07 1.299E+07 2.454E+07 2.454E+07 1.659E+07 39.7021 1.00000
  1.778E+13 1.778E+13 3.879E+00 7.046E+05 1.226E+07 1.491E+07 2.787E+07 2.787E+07 1.666E+07 39.9323 1.00000
  1.995E+13 1.995E+13 3.899E+00 7.906E+05 1.376E+07 1.711E+07 3.166E+07 3.166E+07 1.673E+07 40.1626 1.00000
  2.239E+13 2.239E+13 3.918E+00 8.871E+05 1.543E+07 1.964E+07 3.596E+07 3.596E+07 1.681E+07 40.3929 1.00000
  2.512E+13 2.512E+13 3.937E+00 9.953E+05 1.732E+07 2.255E+07 4.086E+07 4.086E+07 1.688E+07 40.6231 1.00000
  2.818E+13 2.818E+13 3.957E+00 1.117E+06 1.943E+07 2.588E+07 4.643E+07 4.643E+07 1.695E+07 40.8534 1.00000
  3.162E+13 3.162E+13 3.976E+00 1.253E+06 2.180E+07 2.972E+07 5.277E+07 5.277E+07 1.702E+07 41.0836 1.00000
  3.548E+13 3.548E+13 3.996E+00 1.406E+06 2.446E+07 3.412E+07 5.998E+07 5.998E+07 1.709E+07 41.3139 1.00000
  3.981E+13 3.981E+13 4.016E+00 1.577E+06 2.744E+07 3.917E+07 6.819E+07 6.819E+07 1.716E+07 41.5442 1.00000
  4.467E+13 4.467E+13 4.035E+00 1.770E+06 3.079E+07 4.498E+07 7.754E+07 7.754E+07 1.722E+07 41.7744 1.00000
  5.012E+13 5.012E+13 4.055E+00 1.986E+06 3.454E+07 5.165E+07 8.818E+07 8.818E+07 1.729E+07 42.0047 1.00000
  5.623E+13 5.623E+13 4.076E+00 2.228E+06 3.875E+07 5.931E+07 1.003E+08 1.003E+08 1.735E+07 42.2349 1.00000
  6.310E+13 6.310E+13 4.096E+00 2.500E+06 4.348E+07 6.811E+07 1.141E+08 1.141E+08 1.742E+07 42.4652 1.00000
  7.079E+13 7.079E+13 4.116E+00 2.805E+06 4.878E+07 7.822E+07 1.298E+08 1.298E+08 1.748E+07 42.6954 1.00000
  7.943E+13 7.943E+13 4.136E+00 3.148E+06 5.473E+07 8.984E+07 1.477E+08 1.477E+08 1.754E+07 42.9257 1.00000
  8.913E+13 8.913E+13 4.157E+00 3.532E+06 6.141E+07 1.032E+08 1.681E+08 1.681E+08 1.761E+07 43.1560 1.00000
