 Incident particle is a Tau with M = 1776.82000 MeV
 Index = 0: UraniumOxide
      Absorber with <Z/A> = 0.39996
 Sternheimer coef:  a     k=m_s   x_0    x_1    I[eV]   Cbar  delta0
                 0.2046  2.6711  0.1938  3.5292  720.6  5.9605 0.00

 *** Table generated with PUMAS v1.00 ***

      T         p     Ionization  brems     pair     photonuc  Radloss    dE/dx   CSDA Range  delta   beta
    [MeV]    [MeV/c]  -----------------------[MeV cm^2/g]------------------------  [g/cm^2]
  1.000E+05 1.018E+05 1.582E+00 1.015E-03 1.821E-02 7.601E-03 2.683E-02 1.609E+00 3.107E+04  3.0772 0.99985
  1.122E+05 1.140E+05 1.601E+00 1.177E-03 2.180E-02 8.534E-03 3.151E-02 1.633E+00 3.860E+04  3.2355 0.99988
  1.259E+05 1.277E+05 1.619E+00 1.365E-03 2.602E-02 9.532E-03 3.692E-02 1.656E+00 4.692E+04  3.3972 0.99990
  1.413E+05 1.430E+05 1.638E+00 1.581E-03 3.098E-02 1.065E-02 4.321E-02 1.681E+00 5.613E+04  3.5623 0.99992
  1.585E+05 1.603E+05 1.656E+00 1.831E-03 3.677E-02 1.189E-02 5.050E-02 1.706E+00 6.631E+04  3.7307 0.99994
  1.778E+05 1.796E+05 1.674E+00 2.119E-03 4.355E-02 1.327E-02 5.894E-02 1.733E+00 7.756E+04  3.9024 0.99995
  1.995E+05 2.013E+05 1.691E+00 2.450E-03 5.145E-02 1.484E-02 6.874E-02 1.760E+00 8.998E+04  4.0772 0.99996
  2.239E+05 2.256E+05 1.709E+00 2.832E-03 6.066E-02 1.654E-02 8.003E-02 1.789E+00 1.037E+05  4.2551 0.99997
  2.512E+05 2.530E+05 1.727E+00 3.272E-03 7.134E-02 1.844E-02 9.305E-02 1.820E+00 1.188E+05  4.4360 0.99998
  2.818E+05 2.836E+05 1.744E+00 3.777E-03 8.374E-02 2.056E-02 1.081E-01 1.852E+00 1.355E+05  4.6199 0.99998
  3.162E+05 3.180E+05 1.761E+00 4.359E-03 9.808E-02 2.295E-02 1.254E-01 1.886E+00 1.539E+05  4.8066 0.99998
  3.548E+05 3.566E+05 1.778E+00 5.026E-03 1.147E-01 2.563E-02 1.453E-01 1.923E+00 1.742E+05  4.9961 0.99999
  3.981E+05 3.999E+05 1.795E+00 5.793E-03 1.338E-01 2.860E-02 1.682E-01 1.963E+00 1.965E+05  5.1883 0.99999
  4.467E+05 4.485E+05 1.811E+00 6.673E-03 1.558E-01 3.191E-02 1.944E-01 2.006E+00 2.210E+05  5.3831 0.99999
  5.012E+05 5.030E+05 1.828E+00 7.683E-03 1.811E-01 3.563E-02 2.245E-01 2.052E+00 2.478E+05  5.5805 0.99999
  5.623E+05 5.641E+05 1.844E+00 8.841E-03 2.103E-01 3.964E-02 2.587E-01 2.103E+00 2.773E+05  5.7803 1.00000
  6.310E+05 6.327E+05 1.860E+00 1.017E-02 2.436E-01 4.414E-02 2.979E-01 2.158E+00 3.095E+05  5.9825 1.00000
  7.079E+05 7.097E+05 1.876E+00 1.169E-02 2.819E-01 4.920E-02 3.428E-01 2.219E+00 3.447E+05  6.1871 1.00000
  7.943E+05 7.961E+05 1.892E+00 1.343E-02 3.257E-01 5.490E-02 3.940E-01 2.286E+00 3.830E+05  6.3938 1.00000
  8.913E+05 8.930E+05 1.907E+00 1.542E-02 3.757E-01 6.133E-02 4.524E-01 2.360E+00 4.248E+05  6.6027 1.00000
  1.000E+06 1.002E+06 1.923E+00 1.770E-02 4.328E-01 6.858E-02 5.191E-01 2.442E+00 4.701E+05  6.8136 1.00000
  1.122E+06 1.124E+06 1.938E+00 2.031E-02 4.979E-01 7.677E-02 5.950E-01 2.533E+00 5.191E+05  7.0265 1.00000
  1.259E+06 1.261E+06 1.953E+00 2.329E-02 5.721E-01 8.603E-02 6.814E-01 2.634E+00 5.722E+05  7.2412 1.00000
  1.413E+06 1.414E+06 1.968E+00 2.670E-02 6.566E-01 9.650E-02 7.797E-01 2.747E+00 6.293E+05  7.4578 1.00000
  1.585E+06 1.587E+06 1.982E+00 3.059E-02 7.525E-01 1.084E-01 8.915E-01 2.874E+00 6.906E+05  7.6760 1.00000
  1.778E+06 1.780E+06 1.997E+00 3.503E-02 8.616E-01 1.218E-01 1.018E+00 3.015E+00 7.563E+05  7.8959 1.00000
  1.995E+06 1.997E+06 2.011E+00 4.010E-02 9.853E-01 1.370E-01 1.162E+00 3.173E+00 8.265E+05  8.1172 1.00000
  2.239E+06 2.240E+06 2.025E+00 4.589E-02 1.126E+00 1.543E-01 1.326E+00 3.351E+00 9.012E+05  8.3400 1.00000
  2.512E+06 2.514E+06 2.039E+00 5.249E-02 1.285E+00 1.739E-01 1.511E+00 3.550E+00 9.804E+05  8.5641 1.00000
  2.818E+06 2.820E+06 2.052E+00 6.002E-02 1.465E+00 1.961E-01 1.721E+00 3.773E+00 1.064E+06  8.7894 1.00000
  3.162E+06 3.164E+06 2.066E+00 6.860E-02 1.668E+00 2.214E-01 1.958E+00 4.024E+00 1.153E+06  9.0158 1.00000
  3.548E+06 3.550E+06 2.079E+00 7.838E-02 1.899E+00 2.502E-01 2.227E+00 4.306E+00 1.245E+06  9.2432 1.00000
  3.981E+06 3.983E+06 2.092E+00 8.951E-02 2.159E+00 2.828E-01 2.532E+00 4.624E+00 1.342E+06  9.4714 1.00000
  4.467E+06 4.469E+06 2.105E+00 1.022E-01 2.453E+00 3.200E-01 2.875E+00 4.980E+00 1.444E+06  9.7004 1.00000
  5.012E+06 5.014E+06 2.118E+00 1.166E-01 2.785E+00 3.623E-01 3.264E+00 5.382E+00 1.549E+06  9.9299 1.00000
  5.623E+06 5.625E+06 2.130E+00 1.330E-01 3.160E+00 4.104E-01 3.703E+00 5.834E+00 1.658E+06 10.1599 1.00000
  6.310E+06 6.311E+06 2.143E+00 1.517E-01 3.582E+00 4.652E-01 4.199E+00 6.342E+00 1.771E+06 10.3901 1.00000
  7.079E+06 7.081E+06 2.155E+00 1.729E-01 4.059E+00 5.276E-01 4.759E+00 6.914E+00 1.888E+06 10.6203 1.00000
  7.943E+06 7.945E+06 2.167E+00 1.971E-01 4.595E+00 5.986E-01 5.391E+00 7.558E+00 2.007E+06 10.8505 1.00000
  8.913E+06 8.914E+06 2.179E+00 2.245E-01 5.200E+00 6.796E-01 6.104E+00 8.283E+00 2.130E+06 11.0807 1.00000
  1.000E+07 1.000E+07 2.191E+00 2.557E-01 5.881E+00 7.718E-01 6.908E+00 9.100E+00 2.255E+06 11.3109 1.00000
  1.122E+07 1.122E+07 2.203E+00 2.910E-01 6.647E+00 8.769E-01 7.815E+00 1.002E+01 2.383E+06 11.5411 1.00000
  1.259E+07 1.259E+07 2.215E+00 3.312E-01 7.510E+00 9.967E-01 8.838E+00 1.105E+01 2.513E+06 11.7713 1.00000
  1.413E+07 1.413E+07 2.227E+00 3.767E-01 8.480E+00 1.133E+00 9.991E+00 1.222E+01 2.646E+06 12.0016 1.00000
  1.585E+07 1.585E+07 2.238E+00 4.284E-01 9.572E+00 1.289E+00 1.129E+01 1.353E+01 2.780E+06 12.2318 1.00000
  1.778E+07 1.778E+07 2.250E+00 4.870E-01 1.080E+01 1.467E+00 1.275E+01 1.500E+01 2.916E+06 12.4620 1.00000
  1.995E+07 1.995E+07 2.261E+00 5.535E-01 1.218E+01 1.669E+00 1.440E+01 1.666E+01 3.053E+06 12.6923 1.00000
  2.239E+07 2.239E+07 2.272E+00 6.288E-01 1.373E+01 1.901E+00 1.626E+01 1.853E+01 3.192E+06 12.9225 1.00000
  2.512E+07 2.512E+07 2.284E+00 7.140E-01 1.548E+01 2.164E+00 1.835E+01 2.064E+01 3.332E+06 13.1527 1.00000
  2.818E+07 2.819E+07 2.295E+00 8.106E-01 1.744E+01 2.465E+00 2.071E+01 2.301E+01 3.473E+06 13.3830 1.00000
  3.162E+07 3.162E+07 2.306E+00 9.200E-01 1.964E+01 2.808E+00 2.337E+01 2.567E+01 3.614E+06 13.6132 1.00000
  3.548E+07 3.548E+07 2.317E+00 1.044E+00 2.211E+01 3.200E+00 2.636E+01 2.867E+01 3.757E+06 13.8435 1.00000
  3.981E+07 3.981E+07 2.328E+00 1.184E+00 2.489E+01 3.647E+00 2.972E+01 3.205E+01 3.900E+06 14.0737 1.00000
  4.467E+07 4.467E+07 2.340E+00 1.342E+00 2.802E+01 4.157E+00 3.351E+01 3.585E+01 4.043E+06 14.3040 1.00000
  5.012E+07 5.012E+07 2.351E+00 1.521E+00 3.152E+01 4.740E+00 3.778E+01 4.013E+01 4.187E+06 14.5342 1.00000
  5.623E+07 5.624E+07 2.362E+00 1.723E+00 3.546E+01 5.405E+00 4.259E+01 4.495E+01 4.332E+06 14.7645 1.00000
  6.310E+07 6.310E+07 2.373E+00 1.952E+00 3.988E+01 6.164E+00 4.800E+01 5.037E+01 4.476E+06 14.9947 1.00000
  7.079E+07 7.080E+07 2.384E+00 2.210E+00 4.485E+01 7.030E+00 5.409E+01 5.647E+01 4.621E+06 15.2250 1.00000
  7.943E+07 7.943E+07 2.395E+00 2.502E+00 5.042E+01 8.020E+00 6.094E+01 6.334E+01 4.765E+06 15.4552 1.00000
  8.913E+07 8.913E+07 2.406E+00 2.831E+00 5.668E+01 9.150E+00 6.866E+01 7.107E+01 4.910E+06 15.6855 1.00000
  1.000E+08 1.000E+08 2.417E+00 3.203E+00 6.370E+01 1.044E+01 7.735E+01 7.977E+01 5.055E+06 15.9157 1.00000
  1.122E+08 1.122E+08 2.429E+00 3.622E+00 7.159E+01 1.191E+01 8.713E+01 8.956E+01 5.199E+06 16.1460 1.00000
  1.259E+08 1.259E+08 2.440E+00 4.095E+00 8.044E+01 1.360E+01 9.814E+01 1.006E+02 5.344E+06 16.3762 1.00000
  1.413E+08 1.413E+08 2.451E+00 4.629E+00 9.038E+01 1.552E+01 1.105E+02 1.130E+02 5.488E+06 16.6065 1.00000
  1.585E+08 1.585E+08 2.462E+00 5.230E+00 1.015E+02 1.771E+01 1.245E+02 1.269E+02 5.632E+06 16.8368 1.00000
  1.778E+08 1.778E+08 2.474E+00 5.908E+00 1.141E+02 2.022E+01 1.402E+02 1.427E+02 5.776E+06 17.0670 1.00000
  1.995E+08 1.995E+08 2.485E+00 6.671E+00 1.281E+02 2.309E+01 1.579E+02 1.603E+02 5.920E+06 17.2973 1.00000
  2.239E+08 2.239E+08 2.496E+00 7.532E+00 1.439E+02 2.636E+01 1.778E+02 1.803E+02 6.063E+06 17.5275 1.00000
  2.512E+08 2.512E+08 2.508E+00 8.500E+00 1.616E+02 3.010E+01 2.002E+02 2.027E+02 6.207E+06 17.7578 1.00000
  2.818E+08 2.818E+08 2.519E+00 9.591E+00 1.814E+02 3.437E+01 2.254E+02 2.279E+02 6.349E+06 17.9880 1.00000
  3.162E+08 3.162E+08 2.531E+00 1.082E+01 2.037E+02 3.925E+01 2.538E+02 2.563E+02 6.492E+06 18.2183 1.00000
  3.548E+08 3.548E+08 2.543E+00 1.220E+01 2.287E+02 4.483E+01 2.857E+02 2.883E+02 6.634E+06 18.4486 1.00000
  3.981E+08 3.981E+08 2.554E+00 1.376E+01 2.568E+02 5.120E+01 3.217E+02 3.243E+02 6.776E+06 18.6788 1.00000
  4.467E+08 4.467E+08 2.566E+00 1.551E+01 2.883E+02 5.849E+01 3.623E+02 3.648E+02 6.917E+06 18.9091 1.00000
  5.012E+08 5.012E+08 2.578E+00 1.748E+01 3.236E+02 6.681E+01 4.079E+02 4.105E+02 7.059E+06 19.1393 1.00000
  5.623E+08 5.623E+08 2.589E+00 1.969E+01 3.633E+02 7.632E+01 4.593E+02 4.619E+02 7.199E+06 19.3696 1.00000
  6.310E+08 6.310E+08 2.601E+00 2.218E+01 4.078E+02 8.720E+01 5.171E+02 5.197E+02 7.340E+06 19.5998 1.00000
  7.079E+08 7.079E+08 2.613E+00 2.498E+01 4.577E+02 9.963E+01 5.823E+02 5.849E+02 7.479E+06 19.8301 1.00000
  7.943E+08 7.943E+08 2.625E+00 2.813E+01 5.137E+02 1.138E+02 6.557E+02 6.583E+02 7.619E+06 20.0604 1.00000
  8.913E+08 8.913E+08 2.637E+00 3.166E+01 5.766E+02 1.301E+02 7.383E+02 7.410E+02 7.758E+06 20.2906 1.00000
  1.000E+09 1.000E+09 2.649E+00 3.564E+01 6.471E+02 1.486E+02 8.314E+02 8.341E+02 7.896E+06 20.5209 1.00000
  1.122E+09 1.122E+09 2.662E+00 4.011E+01 7.263E+02 1.699E+02 9.363E+02 9.389E+02 8.035E+06 20.7511 1.00000
  1.259E+09 1.259E+09 2.674E+00 4.513E+01 8.151E+02 1.941E+02 1.054E+03 1.057E+03 8.172E+06 20.9814 1.00000
  1.413E+09 1.413E+09 2.686E+00 5.077E+01 9.148E+02 2.219E+02 1.187E+03 1.190E+03 8.309E+06 21.2116 1.00000
  1.585E+09 1.585E+09 2.699E+00 5.710E+01 1.027E+03 2.536E+02 1.337E+03 1.340E+03 8.446E+06 21.4419 1.00000
  1.778E+09 1.778E+09 2.711E+00 6.422E+01 1.152E+03 2.899E+02 1.506E+03 1.509E+03 8.582E+06 21.6722 1.00000
  1.995E+09 1.995E+09 2.724E+00 7.221E+01 1.293E+03 3.314E+02 1.696E+03 1.699E+03 8.718E+06 21.9024 1.00000
  2.239E+09 2.239E+09 2.736E+00 8.118E+01 1.451E+03 3.789E+02 1.911E+03 1.914E+03 8.853E+06 22.1327 1.00000
  2.512E+09 2.512E+09 2.749E+00 9.126E+01 1.628E+03 4.331E+02 2.152E+03 2.155E+03 8.988E+06 22.3629 1.00000
  2.818E+09 2.818E+09 2.762E+00 1.026E+02 1.827E+03 4.952E+02 2.425E+03 2.427E+03 9.122E+06 22.5932 1.00000
  3.162E+09 3.162E+09 2.774E+00 1.153E+02 2.050E+03 5.662E+02 2.732E+03 2.734E+03 9.256E+06 22.8235 1.00000
  3.548E+09 3.548E+09 2.787E+00 1.296E+02 2.300E+03 6.474E+02 3.077E+03 3.080E+03 9.389E+06 23.0537 1.00000
  3.981E+09 3.981E+09 2.800E+00 1.456E+02 2.581E+03 7.403E+02 3.467E+03 3.470E+03 9.522E+06 23.2840 1.00000
  4.467E+09 4.467E+09 2.813E+00 1.636E+02 2.896E+03 8.466E+02 3.907E+03 3.909E+03 9.654E+06 23.5142 1.00000
  5.012E+09 5.012E+09 2.826E+00 1.837E+02 3.250E+03 9.682E+02 4.402E+03 4.405E+03 9.786E+06 23.7445 1.00000
  5.623E+09 5.623E+09 2.839E+00 2.064E+02 3.647E+03 1.107E+03 4.961E+03 4.963E+03 9.917E+06 23.9747 1.00000
  6.310E+09 6.310E+09 2.853E+00 2.318E+02 4.092E+03 1.267E+03 5.590E+03 5.593E+03 1.005E+07 24.2050 1.00000
  7.079E+09 7.079E+09 2.866E+00 2.604E+02 4.592E+03 1.449E+03 6.301E+03 6.303E+03 1.018E+07 24.4353 1.00000
  7.943E+09 7.943E+09 2.879E+00 2.924E+02 5.152E+03 1.657E+03 7.102E+03 7.104E+03 1.031E+07 24.6655 1.00000
  8.913E+09 8.913E+09 2.893E+00 3.284E+02 5.781E+03 1.896E+03 8.005E+03 8.008E+03 1.044E+07 24.8958 1.00000
  1.000E+10 1.000E+10 2.906E+00 3.687E+02 6.486E+03 2.169E+03 9.024E+03 9.027E+03 1.056E+07 25.1260 1.00000
  1.122E+10 1.122E+10 2.920E+00 4.140E+02 7.278E+03 2.481E+03 1.017E+04 1.018E+04 1.069E+07 25.3563 1.00000
  1.259E+10 1.259E+10 2.934E+00 4.649E+02 8.166E+03 2.838E+03 1.147E+04 1.147E+04 1.082E+07 25.5866 1.00000
  1.413E+10 1.413E+10 2.948E+00 5.219E+02 9.163E+03 3.248E+03 1.293E+04 1.294E+04 1.094E+07 25.8168 1.00000
  1.585E+10 1.585E+10 2.961E+00 5.859E+02 1.028E+04 3.716E+03 1.458E+04 1.459E+04 1.107E+07 26.0471 1.00000
  1.778E+10 1.778E+10 2.975E+00 6.578E+02 1.154E+04 4.252E+03 1.645E+04 1.645E+04 1.119E+07 26.2773 1.00000
  1.995E+10 1.995E+10 2.989E+00 7.384E+02 1.294E+04 4.866E+03 1.855E+04 1.855E+04 1.132E+07 26.5076 1.00000
  2.239E+10 2.239E+10 3.003E+00 8.289E+02 1.452E+04 5.569E+03 2.092E+04 2.092E+04 1.144E+07 26.7379 1.00000
  2.512E+10 2.512E+10 3.018E+00 9.304E+02 1.629E+04 6.373E+03 2.360E+04 2.360E+04 1.157E+07 26.9681 1.00000
  2.818E+10 2.818E+10 3.032E+00 1.044E+03 1.828E+04 7.294E+03 2.662E+04 2.662E+04 1.169E+07 27.1984 1.00000
  3.162E+10 3.162E+10 3.046E+00 1.172E+03 2.051E+04 8.349E+03 3.003E+04 3.004E+04 1.181E+07 27.4286 1.00000
  3.548E+10 3.548E+10 3.060E+00 1.316E+03 2.302E+04 9.556E+03 3.389E+04 3.389E+04 1.193E+07 27.6589 1.00000
  3.981E+10 3.981E+10 3.075E+00 1.477E+03 2.582E+04 1.094E+04 3.824E+04 3.824E+04 1.205E+07 27.8891 1.00000
  4.467E+10 4.467E+10 3.090E+00 1.657E+03 2.897E+04 1.252E+04 4.315E+04 4.316E+04 1.217E+07 28.1194 1.00000
  5.012E+10 5.012E+10 3.104E+00 1.860E+03 3.251E+04 1.434E+04 4.871E+04 4.871E+04 1.229E+07 28.3497 1.00000
  5.623E+10 5.623E+10 3.119E+00 2.087E+03 3.648E+04 1.641E+04 5.498E+04 5.498E+04 1.241E+07 28.5799 1.00000
  6.310E+10 6.310E+10 3.134E+00 2.343E+03 4.093E+04 1.879E+04 6.206E+04 6.206E+04 1.253E+07 28.8102 1.00000
  7.079E+10 7.079E+10 3.149E+00 2.629E+03 4.592E+04 2.152E+04 7.007E+04 7.007E+04 1.264E+07 29.0404 1.00000
  7.943E+10 7.943E+10 3.164E+00 2.950E+03 5.152E+04 2.464E+04 7.911E+04 7.911E+04 1.276E+07 29.2707 1.00000
  8.913E+10 8.913E+10 3.179E+00 3.311E+03 5.781E+04 2.822E+04 8.933E+04 8.934E+04 1.288E+07 29.5010 1.00000
  1.000E+11 1.000E+11 3.194E+00 3.715E+03 6.486E+04 3.231E+04 1.009E+05 1.009E+05 1.299E+07 29.7312 1.00000
  1.122E+11 1.122E+11 3.209E+00 4.169E+03 7.277E+04 3.700E+04 1.139E+05 1.139E+05 1.310E+07 29.9615 1.00000
  1.259E+11 1.259E+11 3.224E+00 4.678E+03 8.165E+04 4.238E+04 1.287E+05 1.287E+05 1.322E+07 30.1917 1.00000
  1.413E+11 1.413E+11 3.240E+00 5.250E+03 9.161E+04 4.854E+04 1.454E+05 1.454E+05 1.333E+07 30.4220 1.00000
  1.585E+11 1.585E+11 3.255E+00 5.891E+03 1.028E+05 5.560E+04 1.643E+05 1.643E+05 1.344E+07 30.6522 1.00000
  1.778E+11 1.778E+11 3.271E+00 6.610E+03 1.153E+05 6.369E+04 1.856E+05 1.856E+05 1.355E+07 30.8825 1.00000
  1.995E+11 1.995E+11 3.287E+00 7.417E+03 1.294E+05 7.296E+04 2.098E+05 2.098E+05 1.366E+07 31.1128 1.00000
  2.239E+11 2.239E+11 3.302E+00 8.323E+03 1.452E+05 8.358E+04 2.371E+05 2.371E+05 1.377E+07 31.3430 1.00000
  2.512E+11 2.512E+11 3.318E+00 9.339E+03 1.629E+05 9.576E+04 2.680E+05 2.680E+05 1.388E+07 31.5733 1.00000
  2.818E+11 2.818E+11 3.334E+00 1.048E+04 1.828E+05 1.097E+05 3.029E+05 3.029E+05 1.399E+07 31.8035 1.00000
  3.162E+11 3.162E+11 3.350E+00 1.176E+04 2.050E+05 1.257E+05 3.425E+05 3.425E+05 1.410E+07 32.0338 1.00000
  3.548E+11 3.548E+11 3.366E+00 1.319E+04 2.301E+05 1.440E+05 3.873E+05 3.873E+05 1.420E+07 32.2641 1.00000
  3.981E+11 3.981E+11 3.383E+00 1.480E+04 2.581E+05 1.651E+05 4.380E+05 4.380E+05 1.431E+07 32.4943 1.00000
  4.467E+11 4.467E+11 3.399E+00 1.661E+04 2.896E+05 1.891E+05 4.954E+05 4.954E+05 1.441E+07 32.7246 1.00000
  5.012E+11 5.012E+11 3.415E+00 1.864E+04 3.249E+05 2.168E+05 5.603E+05 5.603E+05 1.452E+07 32.9548 1.00000
  5.623E+11 5.623E+11 3.432E+00 2.091E+04 3.646E+05 2.484E+05 6.339E+05 6.339E+05 1.462E+07 33.1851 1.00000
  6.310E+11 6.310E+11 3.448E+00 2.347E+04 4.090E+05 2.847E+05 7.172E+05 7.172E+05 1.472E+07 33.4153 1.00000
  7.079E+11 7.079E+11 3.465E+00 2.633E+04 4.589E+05 3.264E+05 8.116E+05 8.116E+05 1.482E+07 33.6456 1.00000
  7.943E+11 7.943E+11 3.482E+00 2.954E+04 5.149E+05 3.741E+05 9.185E+05 9.185E+05 1.492E+07 33.8759 1.00000
  8.913E+11 8.913E+11 3.499E+00 3.315E+04 5.777E+05 4.288E+05 1.040E+06 1.040E+06 1.502E+07 34.1061 1.00000
  1.000E+12 1.000E+12 3.515E+00 3.719E+04 6.482E+05 4.916E+05 1.177E+06 1.177E+06 1.512E+07 34.3364 1.00000
  1.122E+12 1.122E+12 3.533E+00 4.173E+04 7.272E+05 5.636E+05 1.333E+06 1.333E+06 1.522E+07 34.5666 1.00000
  1.259E+12 1.259E+12 3.550E+00 4.683E+04 8.160E+05 6.461E+05 1.509E+06 1.509E+06 1.531E+07 34.7969 1.00000
  1.413E+12 1.413E+12 3.567E+00 5.254E+04 9.155E+05 7.408E+05 1.709E+06 1.709E+06 1.541E+07 35.0272 1.00000
  1.585E+12 1.585E+12 3.584E+00 5.895E+04 1.027E+06 8.494E+05 1.936E+06 1.936E+06 1.550E+07 35.2574 1.00000
  1.778E+12 1.778E+12 3.602E+00 6.615E+04 1.152E+06 9.740E+05 2.193E+06 2.193E+06 1.560E+07 35.4877 1.00000
  1.995E+12 1.995E+12 3.619E+00 7.422E+04 1.293E+06 1.117E+06 2.484E+06 2.484E+06 1.569E+07 35.7179 1.00000
  2.239E+12 2.239E+12 3.637E+00 8.328E+04 1.451E+06 1.281E+06 2.815E+06 2.815E+06 1.578E+07 35.9482 1.00000
  2.512E+12 2.512E+12 3.654E+00 9.344E+04 1.628E+06 1.469E+06 3.190E+06 3.190E+06 1.588E+07 36.1784 1.00000
  2.818E+12 2.818E+12 3.672E+00 1.048E+05 1.826E+06 1.685E+06 3.616E+06 3.616E+06 1.597E+07 36.4087 1.00000
  3.162E+12 3.162E+12 3.690E+00 1.176E+05 2.049E+06 1.932E+06 4.099E+06 4.099E+06 1.606E+07 36.6390 1.00000
  3.548E+12 3.548E+12 3.708E+00 1.320E+05 2.299E+06 2.216E+06 4.647E+06 4.647E+06 1.614E+07 36.8692 1.00000
  3.981E+12 3.981E+12 3.726E+00 1.481E+05 2.579E+06 2.542E+06 5.270E+06 5.270E+06 1.623E+07 37.0995 1.00000
  4.467E+12 4.467E+12 3.745E+00 1.662E+05 2.894E+06 2.916E+06 5.976E+06 5.976E+06 1.632E+07 37.3297 1.00000
  5.012E+12 5.012E+12 3.763E+00 1.864E+05 3.247E+06 3.345E+06 6.779E+06 6.779E+06 1.640E+07 37.5600 1.00000
  5.623E+12 5.623E+12 3.781E+00 2.092E+05 3.643E+06 3.838E+06 7.690E+06 7.690E+06 1.649E+07 37.7903 1.00000
  6.310E+12 6.310E+12 3.800E+00 2.347E+05 4.087E+06 4.403E+06 8.725E+06 8.725E+06 1.657E+07 38.0205 1.00000
  7.079E+12 7.079E+12 3.818E+00 2.634E+05 4.586E+06 5.052E+06 9.901E+06 9.901E+06 1.666E+07 38.2508 1.00000
  7.943E+12 7.943E+12 3.837E+00 2.955E+05 5.145E+06 5.797E+06 1.124E+07 1.124E+07 1.674E+07 38.4810 1.00000
  8.913E+12 8.913E+12 3.856E+00 3.315E+05 5.772E+06 6.652E+06 1.276E+07 1.276E+07 1.682E+07 38.7113 1.00000
  1.000E+13 1.000E+13 3.875E+00 3.720E+05 6.476E+06 7.633E+06 1.448E+07 1.448E+07 1.690E+07 38.9416 1.00000
  1.122E+13 1.122E+13 3.894E+00 4.174E+05 7.266E+06 8.759E+06 1.644E+07 1.644E+07 1.698E+07 39.1718 1.00000
  1.259E+13 1.259E+13 3.913E+00 4.683E+05 8.152E+06 1.005E+07 1.867E+07 1.867E+07 1.706E+07 39.4021 1.00000
  1.413E+13 1.413E+13 3.932E+00 5.255E+05 9.147E+06 1.154E+07 2.121E+07 2.121E+07 1.713E+07 39.6323 1.00000
  1.585E+13 1.585E+13 3.951E+00 5.896E+05 1.026E+07 1.324E+07 2.409E+07 2.409E+07 1.721E+07 39.8626 1.00000
  1.778E+13 1.778E+13 3.971E+00 6.615E+05 1.151E+07 1.520E+07 2.737E+07 2.737E+07 1.729E+07 40.0928 1.00000
  1.995E+13 1.995E+13 3.990E+00 7.422E+05 1.292E+07 1.745E+07 3.111E+07 3.111E+07 1.736E+07 40.3231 1.00000
  2.239E+13 2.239E+13 4.010E+00 8.328E+05 1.449E+07 2.003E+07 3.535E+07 3.535E+07 1.743E+07 40.5534 1.00000
  2.512E+13 2.512E+13 4.030E+00 9.344E+05 1.626E+07 2.299E+07 4.018E+07 4.018E+07 1.751E+07 40.7836 1.00000
  2.818E+13 2.818E+13 4.050E+00 1.048E+06 1.824E+07 2.639E+07 4.569E+07 4.569E+07 1.758E+07 41.0139 1.00000
  3.162E+13 3.162E+13 4.070E+00 1.176E+06 2.047E+07 3.030E+07 5.195E+07 5.195E+07 1.765E+07 41.2441 1.00000
  3.548E+13 3.548E+13 4.090E+00 1.320E+06 2.297E+07 3.479E+07 5.907E+07 5.907E+07 1.772E+07 41.4744 1.00000
  3.981E+13 3.981E+13 4.110E+00 1.481E+06 2.577E+07 3.994E+07 6.719E+07 6.719E+07 1.779E+07 41.7047 1.00000
  4.467E+13 4.467E+13 4.130E+00 1.662E+06 2.891E+07 4.586E+07 7.644E+07 7.644E+07 1.786E+07 41.9349 1.00000
  5.012E+13 5.012E+13 4.151E+00 1.864E+06 3.243E+07 5.267E+07 8.696E+07 8.696E+07 1.792E+07 42.1652 1.00000
  5.623E+13 5.623E+13 4.171E+00 2.092E+06 3.639E+07 6.048E+07 9.896E+07 9.896E+07 1.799E+07 42.3954 1.00000
  6.310E+13 6.310E+13 4.192E+00 2.347E+06 4.083E+07 6.945E+07 1.126E+08 1.126E+08 1.805E+07 42.6257 1.00000
  7.079E+13 7.079E+13 4.212E+00 2.634E+06 4.581E+07 7.976E+07 1.282E+08 1.282E+08 1.812E+07 42.8559 1.00000
  7.943E+13 7.943E+13 4.233E+00 2.955E+06 5.139E+07 9.161E+07 1.460E+08 1.460E+08 1.818E+07 43.0862 1.00000
  8.913E+13 8.913E+13 4.254E+00 3.316E+06 5.766E+07 1.052E+08 1.662E+08 1.662E+08 1.824E+07 43.3165 1.00000
