 Incident particle is a Tau with M = 1776.82000 MeV
 Index = 0: Valine
      Absorber with <Z/A> = 0.54625
 Sternheimer coef:  a     k=m_s   x_0    x_1    I[eV]   Cbar  delta0
                 0.1139  3.3774  0.1441  2.6227   67.7  3.1059 0.00

 *** Table generated with PUMAS v1.00 ***

      T         p     Ionization  brems     pair     photonuc  Radloss    dE/dx   CSDA Range  delta   beta
    [MeV]    [MeV/c]  -----------------------[MeV cm^2/g]------------------------  [g/cm^2]
  1.000E+05 1.018E+05 2.392E+00 1.256E-04 1.954E-03 8.409E-03 1.049E-02 2.402E+00 2.081E+04  5.0594 0.99985
  1.122E+05 1.140E+05 2.412E+00 1.451E-04 2.362E-03 9.502E-03 1.201E-02 2.424E+00 2.587E+04  5.2734 0.99988
  1.259E+05 1.277E+05 2.433E+00 1.675E-04 2.844E-03 1.068E-02 1.369E-02 2.447E+00 3.149E+04  5.4895 0.99990
  1.413E+05 1.430E+05 2.453E+00 1.933E-04 3.412E-03 1.201E-02 1.561E-02 2.469E+00 3.774E+04  5.7074 0.99992
  1.585E+05 1.603E+05 2.474E+00 2.230E-04 4.080E-03 1.349E-02 1.779E-02 2.492E+00 4.469E+04  5.9271 0.99994
  1.778E+05 1.796E+05 2.494E+00 2.570E-04 4.865E-03 1.515E-02 2.027E-02 2.514E+00 5.242E+04  6.1483 0.99995
  1.995E+05 2.013E+05 2.514E+00 2.962E-04 5.785E-03 1.705E-02 2.313E-02 2.538E+00 6.101E+04  6.3709 0.99996
  2.239E+05 2.256E+05 2.535E+00 3.412E-04 6.860E-03 1.912E-02 2.632E-02 2.561E+00 7.056E+04  6.5948 0.99997
  2.512E+05 2.530E+05 2.555E+00 3.929E-04 8.115E-03 2.144E-02 2.995E-02 2.585E+00 8.117E+04  6.8198 0.99998
  2.818E+05 2.836E+05 2.575E+00 4.521E-04 9.577E-03 2.406E-02 3.409E-02 2.609E+00 9.298E+04  7.0457 0.99998
  3.162E+05 3.180E+05 2.595E+00 5.202E-04 1.128E-02 2.702E-02 3.882E-02 2.634E+00 1.061E+05  7.2725 0.99998
  3.548E+05 3.566E+05 2.615E+00 5.982E-04 1.325E-02 3.035E-02 4.420E-02 2.659E+00 1.207E+05  7.5000 0.99999
  3.981E+05 3.999E+05 2.635E+00 6.877E-04 1.554E-02 3.406E-02 5.029E-02 2.685E+00 1.369E+05  7.7282 0.99999
  4.467E+05 4.485E+05 2.655E+00 7.902E-04 1.819E-02 3.823E-02 5.721E-02 2.712E+00 1.549E+05  7.9568 0.99999
  5.012E+05 5.030E+05 2.675E+00 9.077E-04 2.126E-02 4.293E-02 6.509E-02 2.740E+00 1.749E+05  8.1858 0.99999
  5.623E+05 5.641E+05 2.694E+00 1.042E-03 2.479E-02 4.801E-02 7.385E-02 2.768E+00 1.971E+05  8.4151 1.00000
  6.310E+05 6.327E+05 2.714E+00 1.197E-03 2.887E-02 5.375E-02 8.382E-02 2.798E+00 2.217E+05  8.6446 1.00000
  7.079E+05 7.097E+05 2.734E+00 1.373E-03 3.357E-02 6.023E-02 9.517E-02 2.829E+00 2.491E+05  8.8742 1.00000
  7.943E+05 7.961E+05 2.753E+00 1.575E-03 3.897E-02 6.755E-02 1.081E-01 2.861E+00 2.795E+05  9.1039 1.00000
  8.913E+05 8.930E+05 2.773E+00 1.806E-03 4.518E-02 7.582E-02 1.228E-01 2.896E+00 3.131E+05  9.3337 1.00000
  1.000E+06 1.002E+06 2.792E+00 2.071E-03 5.231E-02 8.518E-02 1.396E-01 2.932E+00 3.505E+05  9.5635 1.00000
  1.122E+06 1.124E+06 2.811E+00 2.374E-03 6.047E-02 9.578E-02 1.586E-01 2.970E+00 3.918E+05  9.7934 1.00000
  1.259E+06 1.261E+06 2.831E+00 2.720E-03 6.982E-02 1.078E-01 1.803E-01 3.011E+00 4.376E+05 10.0233 1.00000
  1.413E+06 1.414E+06 2.850E+00 3.116E-03 8.052E-02 1.214E-01 2.050E-01 3.055E+00 4.883E+05 10.2532 1.00000
  1.585E+06 1.587E+06 2.869E+00 3.569E-03 9.274E-02 1.368E-01 2.331E-01 3.102E+00 5.443E+05 10.4832 1.00000
  1.778E+06 1.780E+06 2.887E+00 4.086E-03 1.067E-01 1.543E-01 2.651E-01 3.152E+00 6.061E+05 10.7132 1.00000
  1.995E+06 1.997E+06 2.906E+00 4.677E-03 1.226E-01 1.742E-01 3.015E-01 3.208E+00 6.743E+05 10.9433 1.00000
  2.239E+06 2.240E+06 2.925E+00 5.353E-03 1.407E-01 1.968E-01 3.429E-01 3.267E+00 7.495E+05 11.1734 1.00000
  2.512E+06 2.514E+06 2.943E+00 6.124E-03 1.614E-01 2.225E-01 3.900E-01 3.333E+00 8.323E+05 11.4034 1.00000
  2.818E+06 2.820E+06 2.961E+00 7.005E-03 1.849E-01 2.516E-01 4.435E-01 3.405E+00 9.233E+05 11.6335 1.00000
  3.162E+06 3.164E+06 2.979E+00 8.011E-03 2.115E-01 2.848E-01 5.044E-01 3.484E+00 1.023E+06 11.8637 1.00000
  3.548E+06 3.550E+06 2.997E+00 9.159E-03 2.418E-01 3.226E-01 5.735E-01 3.571E+00 1.133E+06 12.0938 1.00000
  3.981E+06 3.983E+06 3.015E+00 1.047E-02 2.762E-01 3.655E-01 6.522E-01 3.667E+00 1.252E+06 12.3240 1.00000
  4.467E+06 4.469E+06 3.032E+00 1.196E-02 3.152E-01 4.144E-01 7.415E-01 3.774E+00 1.383E+06 12.5541 1.00000
  5.012E+06 5.014E+06 3.050E+00 1.367E-02 3.594E-01 4.700E-01 8.430E-01 3.893E+00 1.525E+06 12.7843 1.00000
  5.623E+06 5.625E+06 3.067E+00 1.561E-02 4.094E-01 5.334E-01 9.584E-01 4.025E+00 1.680E+06 13.0145 1.00000
  6.310E+06 6.311E+06 3.084E+00 1.783E-02 4.660E-01 6.055E-01 1.089E+00 4.173E+00 1.847E+06 13.2447 1.00000
  7.079E+06 7.081E+06 3.101E+00 2.035E-02 5.301E-01 6.877E-01 1.238E+00 4.339E+00 2.028E+06 13.4749 1.00000
  7.943E+06 7.945E+06 3.117E+00 2.323E-02 6.024E-01 7.814E-01 1.407E+00 4.524E+00 2.223E+06 13.7051 1.00000
  8.913E+06 8.914E+06 3.134E+00 2.650E-02 6.842E-01 8.882E-01 1.599E+00 4.733E+00 2.433E+06 13.9353 1.00000
  1.000E+07 1.000E+07 3.150E+00 3.023E-02 7.765E-01 1.010E+00 1.817E+00 4.967E+00 2.657E+06 14.1655 1.00000
  1.122E+07 1.122E+07 3.166E+00 3.448E-02 8.808E-01 1.149E+00 2.064E+00 5.230E+00 2.896E+06 14.3957 1.00000
  1.259E+07 1.259E+07 3.182E+00 3.931E-02 9.983E-01 1.307E+00 2.344E+00 5.527E+00 3.151E+06 14.6259 1.00000
  1.413E+07 1.413E+07 3.198E+00 4.481E-02 1.131E+00 1.487E+00 2.663E+00 5.861E+00 3.421E+06 14.8562 1.00000
  1.585E+07 1.585E+07 3.214E+00 5.106E-02 1.280E+00 1.693E+00 3.024E+00 6.238E+00 3.706E+06 15.0864 1.00000
  1.778E+07 1.778E+07 3.230E+00 5.817E-02 1.449E+00 1.928E+00 3.434E+00 6.664E+00 4.006E+06 15.3166 1.00000
  1.995E+07 1.995E+07 3.245E+00 6.625E-02 1.639E+00 2.195E+00 3.900E+00 7.145E+00 4.321E+06 15.5469 1.00000
  2.239E+07 2.239E+07 3.261E+00 7.543E-02 1.852E+00 2.501E+00 4.428E+00 7.689E+00 4.650E+06 15.7771 1.00000
  2.512E+07 2.512E+07 3.276E+00 8.586E-02 2.093E+00 2.849E+00 5.027E+00 8.304E+00 4.992E+06 16.0073 1.00000
  2.818E+07 2.819E+07 3.292E+00 9.770E-02 2.363E+00 3.246E+00 5.707E+00 8.999E+00 5.347E+06 16.2376 1.00000
  3.162E+07 3.162E+07 3.307E+00 1.111E-01 2.668E+00 3.700E+00 6.479E+00 9.786E+00 5.713E+06 16.4678 1.00000
  3.548E+07 3.548E+07 3.322E+00 1.264E-01 3.010E+00 4.218E+00 7.355E+00 1.068E+01 6.091E+06 16.6981 1.00000
  3.981E+07 3.981E+07 3.337E+00 1.437E-01 3.396E+00 4.809E+00 8.348E+00 1.169E+01 6.479E+06 16.9283 1.00000
  4.467E+07 4.467E+07 3.353E+00 1.634E-01 3.829E+00 5.483E+00 9.475E+00 1.283E+01 6.877E+06 17.1586 1.00000
  5.012E+07 5.012E+07 3.368E+00 1.856E-01 4.316E+00 6.253E+00 1.075E+01 1.412E+01 7.282E+06 17.3888 1.00000
  5.623E+07 5.624E+07 3.383E+00 2.108E-01 4.863E+00 7.132E+00 1.221E+01 1.559E+01 7.695E+06 17.6191 1.00000
  6.310E+07 6.310E+07 3.398E+00 2.395E-01 5.478E+00 8.136E+00 1.385E+01 1.725E+01 8.114E+06 17.8493 1.00000
  7.079E+07 7.080E+07 3.413E+00 2.719E-01 6.169E+00 9.282E+00 1.572E+01 1.914E+01 8.538E+06 18.0796 1.00000
  7.943E+07 7.943E+07 3.428E+00 3.086E-01 6.945E+00 1.059E+01 1.784E+01 2.127E+01 8.967E+06 18.3098 1.00000
  8.913E+07 8.913E+07 3.444E+00 3.501E-01 7.817E+00 1.208E+01 2.025E+01 2.369E+01 9.399E+06 18.5401 1.00000
  1.000E+08 1.000E+08 3.459E+00 3.971E-01 8.796E+00 1.379E+01 2.298E+01 2.644E+01 9.834E+06 18.7703 1.00000
  1.122E+08 1.122E+08 3.474E+00 4.503E-01 9.896E+00 1.574E+01 2.608E+01 2.956E+01 1.027E+07 19.0006 1.00000
  1.259E+08 1.259E+08 3.489E+00 5.105E-01 1.113E+01 1.796E+01 2.961E+01 3.309E+01 1.071E+07 19.2308 1.00000
  1.413E+08 1.413E+08 3.505E+00 5.786E-01 1.252E+01 2.050E+01 3.360E+01 3.711E+01 1.115E+07 19.4611 1.00000
  1.585E+08 1.585E+08 3.520E+00 6.556E-01 1.408E+01 2.341E+01 3.814E+01 4.166E+01 1.159E+07 19.6914 1.00000
  1.778E+08 1.778E+08 3.536E+00 7.426E-01 1.582E+01 2.672E+01 4.329E+01 4.683E+01 1.203E+07 19.9216 1.00000
  1.995E+08 1.995E+08 3.551E+00 8.409E-01 1.779E+01 3.051E+01 4.914E+01 5.269E+01 1.246E+07 20.1519 1.00000
  2.239E+08 2.239E+08 3.567E+00 9.519E-01 1.999E+01 3.484E+01 5.578E+01 5.935E+01 1.290E+07 20.3821 1.00000
  2.512E+08 2.512E+08 3.582E+00 1.077E+00 2.246E+01 3.978E+01 6.333E+01 6.691E+01 1.333E+07 20.6124 1.00000
  2.818E+08 2.818E+08 3.598E+00 1.219E+00 2.524E+01 4.543E+01 7.189E+01 7.549E+01 1.377E+07 20.8426 1.00000
  3.162E+08 3.162E+08 3.614E+00 1.379E+00 2.836E+01 5.189E+01 8.162E+01 8.524E+01 1.420E+07 21.0729 1.00000
  3.548E+08 3.548E+08 3.630E+00 1.559E+00 3.185E+01 5.926E+01 9.268E+01 9.631E+01 1.462E+07 21.3032 1.00000
  3.981E+08 3.981E+08 3.646E+00 1.762E+00 3.578E+01 6.769E+01 1.052E+02 1.089E+02 1.505E+07 21.5334 1.00000
  4.467E+08 4.467E+08 3.662E+00 1.992E+00 4.018E+01 7.732E+01 1.195E+02 1.232E+02 1.547E+07 21.7637 1.00000
  5.012E+08 5.012E+08 3.678E+00 2.250E+00 4.513E+01 8.833E+01 1.357E+02 1.394E+02 1.588E+07 21.9939 1.00000
  5.623E+08 5.623E+08 3.694E+00 2.542E+00 5.068E+01 1.009E+02 1.541E+02 1.578E+02 1.630E+07 22.2242 1.00000
  6.310E+08 6.310E+08 3.710E+00 2.870E+00 5.690E+01 1.153E+02 1.751E+02 1.788E+02 1.671E+07 22.4544 1.00000
  7.079E+08 7.079E+08 3.726E+00 3.240E+00 6.389E+01 1.317E+02 1.989E+02 2.026E+02 1.711E+07 22.6847 1.00000
  7.943E+08 7.943E+08 3.743E+00 3.658E+00 7.173E+01 1.505E+02 2.259E+02 2.297E+02 1.751E+07 22.9150 1.00000
  8.913E+08 8.913E+08 3.759E+00 4.127E+00 8.053E+01 1.720E+02 2.567E+02 2.604E+02 1.791E+07 23.1452 1.00000
  1.000E+09 1.000E+09 3.776E+00 4.656E+00 9.041E+01 1.966E+02 2.916E+02 2.954E+02 1.830E+07 23.3755 1.00000
  1.122E+09 1.122E+09 3.792E+00 5.252E+00 1.015E+02 2.246E+02 3.314E+02 3.352E+02 1.869E+07 23.6057 1.00000
  1.259E+09 1.259E+09 3.809E+00 5.923E+00 1.139E+02 2.567E+02 3.766E+02 3.804E+02 1.907E+07 23.8360 1.00000
  1.413E+09 1.413E+09 3.826E+00 6.677E+00 1.279E+02 2.934E+02 4.280E+02 4.318E+02 1.945E+07 24.0662 1.00000
  1.585E+09 1.585E+09 3.843E+00 7.526E+00 1.435E+02 3.354E+02 4.864E+02 4.903E+02 1.983E+07 24.2965 1.00000
  1.778E+09 1.778E+09 3.860E+00 8.482E+00 1.611E+02 3.834E+02 5.530E+02 5.568E+02 2.020E+07 24.5268 1.00000
  1.995E+09 1.995E+09 3.877E+00 9.556E+00 1.808E+02 4.383E+02 6.286E+02 6.325E+02 2.057E+07 24.7570 1.00000
  2.239E+09 2.239E+09 3.894E+00 1.076E+01 2.029E+02 5.010E+02 7.147E+02 7.186E+02 2.093E+07 24.9873 1.00000
  2.512E+09 2.512E+09 3.912E+00 1.212E+01 2.277E+02 5.728E+02 8.126E+02 8.166E+02 2.129E+07 25.2175 1.00000
  2.818E+09 2.818E+09 3.929E+00 1.365E+01 2.556E+02 6.549E+02 9.241E+02 9.280E+02 2.164E+07 25.4478 1.00000
  3.162E+09 3.162E+09 3.946E+00 1.537E+01 2.868E+02 7.488E+02 1.051E+03 1.055E+03 2.199E+07 25.6781 1.00000
  3.548E+09 3.548E+09 3.964E+00 1.730E+01 3.219E+02 8.562E+02 1.195E+03 1.199E+03 2.233E+07 25.9083 1.00000
  3.981E+09 3.981E+09 3.982E+00 1.947E+01 3.612E+02 9.791E+02 1.360E+03 1.364E+03 2.267E+07 26.1386 1.00000
  4.467E+09 4.467E+09 3.999E+00 2.191E+01 4.054E+02 1.120E+03 1.547E+03 1.551E+03 2.301E+07 26.3688 1.00000
  5.012E+09 5.012E+09 4.017E+00 2.465E+01 4.549E+02 1.280E+03 1.760E+03 1.764E+03 2.334E+07 26.5991 1.00000
  5.623E+09 5.623E+09 4.035E+00 2.773E+01 5.104E+02 1.464E+03 2.003E+03 2.007E+03 2.366E+07 26.8293 1.00000
  6.310E+09 6.310E+09 4.053E+00 3.119E+01 5.728E+02 1.675E+03 2.279E+03 2.283E+03 2.398E+07 27.0596 1.00000
  7.079E+09 7.079E+09 4.072E+00 3.507E+01 6.427E+02 1.916E+03 2.594E+03 2.598E+03 2.430E+07 27.2899 1.00000
  7.943E+09 7.943E+09 4.090E+00 3.944E+01 7.212E+02 2.191E+03 2.952E+03 2.956E+03 2.461E+07 27.5201 1.00000
  8.913E+09 8.913E+09 4.108E+00 4.434E+01 8.093E+02 2.507E+03 3.360E+03 3.365E+03 2.492E+07 27.7504 1.00000
  1.000E+10 1.000E+10 4.127E+00 4.985E+01 9.081E+02 2.868E+03 3.826E+03 3.830E+03 2.522E+07 27.9806 1.00000
  1.122E+10 1.122E+10 4.145E+00 5.603E+01 1.019E+03 3.281E+03 4.356E+03 4.360E+03 2.552E+07 28.2109 1.00000
  1.259E+10 1.259E+10 4.164E+00 6.297E+01 1.143E+03 3.754E+03 4.960E+03 4.964E+03 2.582E+07 28.4412 1.00000
  1.413E+10 1.413E+10 4.183E+00 7.076E+01 1.283E+03 4.295E+03 5.649E+03 5.653E+03 2.611E+07 28.6714 1.00000
  1.585E+10 1.585E+10 4.202E+00 7.952E+01 1.439E+03 4.914E+03 6.433E+03 6.437E+03 2.639E+07 28.9017 1.00000
  1.778E+10 1.778E+10 4.221E+00 8.934E+01 1.615E+03 5.623E+03 7.328E+03 7.332E+03 2.668E+07 29.1319 1.00000
  1.995E+10 1.995E+10 4.240E+00 1.004E+02 1.812E+03 6.435E+03 8.348E+03 8.352E+03 2.695E+07 29.3622 1.00000
  2.239E+10 2.239E+10 4.259E+00 1.128E+02 2.033E+03 7.364E+03 9.511E+03 9.515E+03 2.723E+07 29.5925 1.00000
  2.512E+10 2.512E+10 4.279E+00 1.267E+02 2.282E+03 8.428E+03 1.084E+04 1.084E+04 2.750E+07 29.8227 1.00000
  2.818E+10 2.818E+10 4.298E+00 1.423E+02 2.560E+03 9.646E+03 1.235E+04 1.235E+04 2.776E+07 30.0530 1.00000
  3.162E+10 3.162E+10 4.318E+00 1.598E+02 2.872E+03 1.104E+04 1.407E+04 1.408E+04 2.802E+07 30.2832 1.00000
  3.548E+10 3.548E+10 4.337E+00 1.794E+02 3.223E+03 1.264E+04 1.604E+04 1.604E+04 2.828E+07 30.5135 1.00000
  3.981E+10 3.981E+10 4.357E+00 2.015E+02 3.616E+03 1.447E+04 1.828E+04 1.829E+04 2.853E+07 30.7437 1.00000
  4.467E+10 4.467E+10 4.377E+00 2.263E+02 4.058E+03 1.656E+04 2.085E+04 2.085E+04 2.878E+07 30.9740 1.00000
  5.012E+10 5.012E+10 4.397E+00 2.541E+02 4.553E+03 1.896E+04 2.377E+04 2.377E+04 2.903E+07 31.2043 1.00000
  5.623E+10 5.623E+10 4.417E+00 2.852E+02 5.108E+03 2.171E+04 2.710E+04 2.710E+04 2.927E+07 31.4345 1.00000
  6.310E+10 6.310E+10 4.437E+00 3.203E+02 5.731E+03 2.485E+04 3.090E+04 3.091E+04 2.951E+07 31.6648 1.00000
  7.079E+10 7.079E+10 4.458E+00 3.595E+02 6.431E+03 2.846E+04 3.525E+04 3.525E+04 2.974E+07 31.8950 1.00000
  7.943E+10 7.943E+10 4.478E+00 4.036E+02 7.215E+03 3.259E+04 4.020E+04 4.021E+04 2.997E+07 32.1253 1.00000
  8.913E+10 8.913E+10 4.499E+00 4.531E+02 8.095E+03 3.731E+04 4.586E+04 4.587E+04 3.020E+07 32.3556 1.00000
  1.000E+11 1.000E+11 4.519E+00 5.086E+02 9.083E+03 4.273E+04 5.232E+04 5.233E+04 3.042E+07 32.5858 1.00000
  1.122E+11 1.122E+11 4.540E+00 5.709E+02 1.019E+04 4.894E+04 5.970E+04 5.970E+04 3.064E+07 32.8161 1.00000
  1.259E+11 1.259E+11 4.561E+00 6.408E+02 1.143E+04 5.605E+04 6.812E+04 6.813E+04 3.085E+07 33.0463 1.00000
  1.413E+11 1.413E+11 4.582E+00 7.193E+02 1.283E+04 6.420E+04 7.774E+04 7.775E+04 3.107E+07 33.2766 1.00000
  1.585E+11 1.585E+11 4.603E+00 8.073E+02 1.439E+04 7.353E+04 8.873E+04 8.874E+04 3.127E+07 33.5068 1.00000
  1.778E+11 1.778E+11 4.625E+00 9.061E+02 1.615E+04 8.423E+04 1.013E+05 1.013E+05 3.148E+07 33.7371 1.00000
  1.995E+11 1.995E+11 4.646E+00 1.017E+03 1.812E+04 9.649E+04 1.156E+05 1.156E+05 3.168E+07 33.9674 1.00000
  2.239E+11 2.239E+11 4.668E+00 1.141E+03 2.033E+04 1.105E+05 1.320E+05 1.320E+05 3.188E+07 34.1976 1.00000
  2.512E+11 2.512E+11 4.689E+00 1.281E+03 2.281E+04 1.266E+05 1.507E+05 1.507E+05 3.207E+07 34.4279 1.00000
  2.818E+11 2.818E+11 4.711E+00 1.437E+03 2.559E+04 1.451E+05 1.721E+05 1.721E+05 3.226E+07 34.6581 1.00000
  3.162E+11 3.162E+11 4.733E+00 1.613E+03 2.872E+04 1.662E+05 1.966E+05 1.966E+05 3.245E+07 34.8884 1.00000
  3.548E+11 3.548E+11 4.755E+00 1.810E+03 3.222E+04 1.905E+05 2.245E+05 2.245E+05 3.263E+07 35.1187 1.00000
  3.981E+11 3.981E+11 4.777E+00 2.032E+03 3.615E+04 2.183E+05 2.565E+05 2.565E+05 3.281E+07 35.3489 1.00000
  4.467E+11 4.467E+11 4.799E+00 2.280E+03 4.056E+04 2.501E+05 2.930E+05 2.930E+05 3.299E+07 35.5792 1.00000
  5.012E+11 5.012E+11 4.822E+00 2.558E+03 4.551E+04 2.867E+05 3.347E+05 3.347E+05 3.317E+07 35.8094 1.00000
  5.623E+11 5.623E+11 4.844E+00 2.871E+03 5.106E+04 3.285E+05 3.825E+05 3.825E+05 3.334E+07 36.0397 1.00000
  6.310E+11 6.310E+11 4.867E+00 3.221E+03 5.729E+04 3.766E+05 4.371E+05 4.371E+05 3.351E+07 36.2699 1.00000
  7.079E+11 7.079E+11 4.890E+00 3.615E+03 6.427E+04 4.316E+05 4.995E+05 4.995E+05 3.367E+07 36.5002 1.00000
  7.943E+11 7.943E+11 4.912E+00 4.056E+03 7.211E+04 4.947E+05 5.709E+05 5.709E+05 3.383E+07 36.7305 1.00000
  8.913E+11 8.913E+11 4.935E+00 4.552E+03 8.091E+04 5.671E+05 6.526E+05 6.526E+05 3.399E+07 36.9607 1.00000
  1.000E+12 1.000E+12 4.959E+00 5.108E+03 9.078E+04 6.501E+05 7.460E+05 7.460E+05 3.415E+07 37.1910 1.00000
  1.122E+12 1.122E+12 4.982E+00 5.731E+03 1.019E+05 7.453E+05 8.529E+05 8.529E+05 3.430E+07 37.4212 1.00000
  1.259E+12 1.259E+12 5.005E+00 6.431E+03 1.143E+05 8.545E+05 9.752E+05 9.752E+05 3.445E+07 37.6515 1.00000
  1.413E+12 1.413E+12 5.029E+00 7.216E+03 1.282E+05 9.797E+05 1.115E+06 1.115E+06 3.460E+07 37.8818 1.00000
  1.585E+12 1.585E+12 5.052E+00 8.097E+03 1.439E+05 1.123E+06 1.275E+06 1.275E+06 3.474E+07 38.1120 1.00000
  1.778E+12 1.778E+12 5.076E+00 9.085E+03 1.614E+05 1.288E+06 1.459E+06 1.459E+06 3.489E+07 38.3423 1.00000
  1.995E+12 1.995E+12 5.100E+00 1.019E+04 1.811E+05 1.477E+06 1.668E+06 1.668E+06 3.503E+07 38.5725 1.00000
  2.239E+12 2.239E+12 5.124E+00 1.144E+04 2.032E+05 1.694E+06 1.908E+06 1.908E+06 3.516E+07 38.8028 1.00000
  2.512E+12 2.512E+12 5.148E+00 1.283E+04 2.280E+05 1.943E+06 2.183E+06 2.183E+06 3.530E+07 39.0330 1.00000
  2.818E+12 2.818E+12 5.173E+00 1.440E+04 2.558E+05 2.228E+06 2.498E+06 2.498E+06 3.543E+07 39.2633 1.00000
  3.162E+12 3.162E+12 5.197E+00 1.616E+04 2.870E+05 2.555E+06 2.858E+06 2.858E+06 3.556E+07 39.4936 1.00000
  3.548E+12 3.548E+12 5.222E+00 1.813E+04 3.220E+05 2.931E+06 3.271E+06 3.271E+06 3.568E+07 39.7238 1.00000
  3.981E+12 3.981E+12 5.247E+00 2.034E+04 3.612E+05 3.362E+06 3.744E+06 3.744E+06 3.581E+07 39.9541 1.00000
  4.467E+12 4.467E+12 5.271E+00 2.283E+04 4.053E+05 3.857E+06 4.285E+06 4.285E+06 3.593E+07 40.1843 1.00000
  5.012E+12 5.012E+12 5.296E+00 2.561E+04 4.547E+05 4.424E+06 4.905E+06 4.905E+06 3.605E+07 40.4146 1.00000
  5.623E+12 5.623E+12 5.322E+00 2.874E+04 5.102E+05 5.076E+06 5.615E+06 5.615E+06 3.617E+07 40.6449 1.00000
  6.310E+12 6.310E+12 5.347E+00 3.224E+04 5.724E+05 5.823E+06 6.428E+06 6.428E+06 3.628E+07 40.8751 1.00000
  7.079E+12 7.079E+12 5.372E+00 3.618E+04 6.422E+05 6.681E+06 7.360E+06 7.360E+06 3.639E+07 41.1054 1.00000
  7.943E+12 7.943E+12 5.398E+00 4.060E+04 7.205E+05 7.666E+06 8.427E+06 8.427E+06 3.650E+07 41.3356 1.00000
  8.913E+12 8.913E+12 5.424E+00 4.555E+04 8.084E+05 8.797E+06 9.651E+06 9.651E+06 3.661E+07 41.5659 1.00000
  1.000E+13 1.000E+13 5.449E+00 5.111E+04 9.070E+05 1.009E+07 1.105E+07 1.105E+07 3.672E+07 41.7962 1.00000
  1.122E+13 1.122E+13 5.475E+00 5.734E+04 1.018E+06 1.158E+07 1.266E+07 1.266E+07 3.682E+07 42.0264 1.00000
  1.259E+13 1.259E+13 5.501E+00 6.434E+04 1.142E+06 1.329E+07 1.450E+07 1.450E+07 3.692E+07 42.2567 1.00000
  1.413E+13 1.413E+13 5.528E+00 7.219E+04 1.281E+06 1.526E+07 1.661E+07 1.661E+07 3.702E+07 42.4869 1.00000
  1.585E+13 1.585E+13 5.554E+00 8.100E+04 1.437E+06 1.751E+07 1.903E+07 1.903E+07 3.712E+07 42.7172 1.00000
  1.778E+13 1.778E+13 5.581E+00 9.089E+04 1.613E+06 2.010E+07 2.180E+07 2.180E+07 3.721E+07 42.9474 1.00000
  1.995E+13 1.995E+13 5.607E+00 1.020E+05 1.809E+06 2.307E+07 2.498E+07 2.498E+07 3.730E+07 43.1777 1.00000
  2.239E+13 2.239E+13 5.634E+00 1.144E+05 2.030E+06 2.648E+07 2.863E+07 2.863E+07 3.740E+07 43.4080 1.00000
  2.512E+13 2.512E+13 5.661E+00 1.284E+05 2.277E+06 3.040E+07 3.281E+07 3.281E+07 3.749E+07 43.6382 1.00000
  2.818E+13 2.818E+13 5.688E+00 1.440E+05 2.555E+06 3.490E+07 3.760E+07 3.760E+07 3.757E+07 43.8685 1.00000
  3.162E+13 3.162E+13 5.715E+00 1.616E+05 2.867E+06 4.007E+07 4.310E+07 4.310E+07 3.766E+07 44.0987 1.00000
  3.548E+13 3.548E+13 5.743E+00 1.813E+05 3.216E+06 4.601E+07 4.940E+07 4.940E+07 3.774E+07 44.3290 1.00000
  3.981E+13 3.981E+13 5.770E+00 2.035E+05 3.609E+06 5.282E+07 5.664E+07 5.664E+07 3.782E+07 44.5593 1.00000
  4.467E+13 4.467E+13 5.798E+00 2.283E+05 4.049E+06 6.065E+07 6.493E+07 6.493E+07 3.790E+07 44.7895 1.00000
  5.012E+13 5.012E+13 5.826E+00 2.562E+05 4.542E+06 6.965E+07 7.445E+07 7.445E+07 3.798E+07 45.0198 1.00000
  5.623E+13 5.623E+13 5.854E+00 2.874E+05 5.096E+06 7.998E+07 8.536E+07 8.536E+07 3.806E+07 45.2500 1.00000
  6.310E+13 6.310E+13 5.882E+00 3.225E+05 5.718E+06 9.185E+07 9.789E+07 9.789E+07 3.814E+07 45.4803 1.00000
  7.079E+13 7.079E+13 5.910E+00 3.618E+05 6.415E+06 1.055E+08 1.123E+08 1.123E+08 3.821E+07 45.7105 1.00000
  7.943E+13 7.943E+13 5.939E+00 4.060E+05 7.198E+06 1.211E+08 1.288E+08 1.288E+08 3.828E+07 45.9408 1.00000
  8.913E+13 8.913E+13 5.968E+00 4.555E+05 8.075E+06 1.391E+08 1.477E+08 1.477E+08 3.835E+07 46.1711 1.00000
