 Incident particle is a Tau with M = 1776.82000 MeV
 Index = 0: Vanadium
      Absorber with <Z/A> = 0.45150
 Sternheimer coef:  a     k=m_s   x_0    x_1    I[eV]   Cbar  delta0
                 0.1544  3.0163  0.0691  3.0322  245.0  4.2659 0.14

 *** Table generated with PUMAS v1.00 ***

      T         p     Ionization  brems     pair     photonuc  Radloss    dE/dx   CSDA Range  delta   beta
    [MeV]    [MeV/c]  -----------------------[MeV cm^2/g]------------------------  [g/cm^2]
  1.000E+05 1.018E+05 1.862E+00 3.735E-04 6.106E-03 7.929E-03 1.441E-02 1.876E+00 2.665E+04  4.1504 0.99985
  1.122E+05 1.140E+05 1.880E+00 4.322E-04 7.327E-03 8.926E-03 1.668E-02 1.897E+00 3.312E+04  4.3410 0.99988
  1.259E+05 1.277E+05 1.899E+00 4.999E-04 8.765E-03 9.995E-03 1.926E-02 1.918E+00 4.030E+04  4.5348 0.99990
  1.413E+05 1.430E+05 1.917E+00 5.778E-04 1.045E-02 1.120E-02 2.223E-02 1.939E+00 4.826E+04  4.7315 0.99992
  1.585E+05 1.603E+05 1.935E+00 6.675E-04 1.244E-02 1.254E-02 2.564E-02 1.961E+00 5.710E+04  4.9311 0.99994
  1.778E+05 1.796E+05 1.954E+00 7.708E-04 1.476E-02 1.403E-02 2.956E-02 1.983E+00 6.691E+04  5.1335 0.99995
  1.995E+05 2.013E+05 1.972E+00 8.896E-04 1.747E-02 1.572E-02 3.408E-02 2.006E+00 7.779E+04  5.3384 0.99996
  2.239E+05 2.256E+05 1.989E+00 1.026E-03 2.064E-02 1.757E-02 3.923E-02 2.029E+00 8.986E+04  5.5458 0.99997
  2.512E+05 2.530E+05 2.007E+00 1.183E-03 2.432E-02 1.964E-02 4.514E-02 2.052E+00 1.032E+05  5.7555 0.99998
  2.818E+05 2.836E+05 2.025E+00 1.363E-03 2.860E-02 2.196E-02 5.192E-02 2.077E+00 1.181E+05  5.9674 0.99998
  3.162E+05 3.180E+05 2.042E+00 1.570E-03 3.356E-02 2.457E-02 5.970E-02 2.102E+00 1.346E+05  6.1814 0.99998
  3.548E+05 3.566E+05 2.060E+00 1.808E-03 3.931E-02 2.750E-02 6.862E-02 2.128E+00 1.528E+05  6.3973 0.99999
  3.981E+05 3.999E+05 2.077E+00 2.080E-03 4.595E-02 3.077E-02 7.880E-02 2.156E+00 1.730E+05  6.6150 0.99999
  4.467E+05 4.485E+05 2.094E+00 2.392E-03 5.362E-02 3.442E-02 9.044E-02 2.184E+00 1.954E+05  6.8344 0.99999
  5.012E+05 5.030E+05 2.111E+00 2.750E-03 6.247E-02 3.852E-02 1.037E-01 2.214E+00 2.202E+05  7.0554 0.99999
  5.623E+05 5.641E+05 2.128E+00 3.159E-03 7.266E-02 4.295E-02 1.188E-01 2.246E+00 2.476E+05  7.2778 1.00000
  6.310E+05 6.327E+05 2.144E+00 3.628E-03 8.437E-02 4.794E-02 1.359E-01 2.280E+00 2.779E+05  7.5015 1.00000
  7.079E+05 7.097E+05 2.161E+00 4.165E-03 9.782E-02 5.355E-02 1.555E-01 2.316E+00 3.114E+05  7.7264 1.00000
  7.943E+05 7.961E+05 2.177E+00 4.780E-03 1.132E-01 5.989E-02 1.779E-01 2.355E+00 3.484E+05  7.9523 1.00000
  8.913E+05 8.930E+05 2.193E+00 5.483E-03 1.309E-01 6.704E-02 2.034E-01 2.397E+00 3.892E+05  8.1792 1.00000
  1.000E+06 1.002E+06 2.210E+00 6.286E-03 1.512E-01 7.511E-02 2.326E-01 2.442E+00 4.342E+05  8.4069 1.00000
  1.122E+06 1.124E+06 2.226E+00 7.205E-03 1.743E-01 8.424E-02 2.657E-01 2.491E+00 4.836E+05  8.6352 1.00000
  1.259E+06 1.261E+06 2.242E+00 8.255E-03 2.007E-01 9.457E-02 3.035E-01 2.545E+00 5.380E+05  8.8642 1.00000
  1.413E+06 1.414E+06 2.257E+00 9.454E-03 2.308E-01 1.063E-01 3.465E-01 2.604E+00 5.977E+05  9.0936 1.00000
  1.585E+06 1.587E+06 2.273E+00 1.082E-02 2.651E-01 1.195E-01 3.955E-01 2.669E+00 6.631E+05  9.3233 1.00000
  1.778E+06 1.780E+06 2.289E+00 1.239E-02 3.042E-01 1.345E-01 4.511E-01 2.740E+00 7.346E+05  9.5533 1.00000
  1.995E+06 1.997E+06 2.304E+00 1.417E-02 3.486E-01 1.516E-01 5.144E-01 2.818E+00 8.127E+05  9.7833 1.00000
  2.239E+06 2.240E+06 2.319E+00 1.620E-02 3.991E-01 1.709E-01 5.863E-01 2.906E+00 8.978E+05 10.0134 1.00000
  2.512E+06 2.514E+06 2.335E+00 1.853E-02 4.565E-01 1.929E-01 6.679E-01 3.002E+00 9.903E+05 10.2434 1.00000
  2.818E+06 2.820E+06 2.350E+00 2.117E-02 5.215E-01 2.178E-01 7.605E-01 3.110E+00 1.091E+06 10.4735 1.00000
  3.162E+06 3.164E+06 2.364E+00 2.419E-02 5.953E-01 2.462E-01 8.657E-01 3.230E+00 1.199E+06 10.7037 1.00000
  3.548E+06 3.550E+06 2.379E+00 2.763E-02 6.788E-01 2.784E-01 9.849E-01 3.364E+00 1.316E+06 10.9338 1.00000
  3.981E+06 3.983E+06 2.394E+00 3.154E-02 7.734E-01 3.151E-01 1.120E+00 3.514E+00 1.442E+06 11.1640 1.00000
  4.467E+06 4.469E+06 2.408E+00 3.600E-02 8.804E-01 3.568E-01 1.273E+00 3.682E+00 1.577E+06 11.3941 1.00000
  5.012E+06 5.014E+06 2.423E+00 4.107E-02 1.001E+00 4.043E-01 1.447E+00 3.869E+00 1.722E+06 11.6243 1.00000
  5.623E+06 5.625E+06 2.437E+00 4.685E-02 1.138E+00 4.584E-01 1.643E+00 4.080E+00 1.876E+06 11.8545 1.00000
  6.310E+06 6.311E+06 2.451E+00 5.342E-02 1.292E+00 5.199E-01 1.866E+00 4.317E+00 2.039E+06 12.0847 1.00000
  7.079E+06 7.081E+06 2.465E+00 6.090E-02 1.467E+00 5.900E-01 2.118E+00 4.582E+00 2.212E+06 12.3149 1.00000
  7.943E+06 7.945E+06 2.479E+00 6.940E-02 1.663E+00 6.699E-01 2.403E+00 4.881E+00 2.395E+06 12.5451 1.00000
  8.913E+06 8.914E+06 2.492E+00 7.907E-02 1.885E+00 7.609E-01 2.725E+00 5.217E+00 2.587E+06 12.7753 1.00000
  1.000E+07 1.000E+07 2.506E+00 9.005E-02 2.135E+00 8.645E-01 3.089E+00 5.595E+00 2.789E+06 13.0055 1.00000
  1.122E+07 1.122E+07 2.519E+00 1.025E-01 2.417E+00 9.827E-01 3.502E+00 6.021E+00 2.999E+06 13.2357 1.00000
  1.259E+07 1.259E+07 2.532E+00 1.167E-01 2.734E+00 1.117E+00 3.968E+00 6.500E+00 3.218E+06 13.4659 1.00000
  1.413E+07 1.413E+07 2.546E+00 1.328E-01 3.091E+00 1.271E+00 4.495E+00 7.040E+00 3.445E+06 13.6962 1.00000
  1.585E+07 1.585E+07 2.559E+00 1.511E-01 3.493E+00 1.446E+00 5.090E+00 7.649E+00 3.680E+06 13.9264 1.00000
  1.778E+07 1.778E+07 2.572E+00 1.718E-01 3.946E+00 1.646E+00 5.764E+00 8.335E+00 3.923E+06 14.1566 1.00000
  1.995E+07 1.995E+07 2.584E+00 1.953E-01 4.455E+00 1.874E+00 6.524E+00 9.109E+00 4.172E+06 14.3869 1.00000
  2.239E+07 2.239E+07 2.597E+00 2.219E-01 5.028E+00 2.134E+00 7.383E+00 9.981E+00 4.428E+06 14.6171 1.00000
  2.512E+07 2.512E+07 2.610E+00 2.522E-01 5.672E+00 2.431E+00 8.354E+00 1.096E+01 4.689E+06 14.8473 1.00000
  2.818E+07 2.819E+07 2.623E+00 2.864E-01 6.396E+00 2.769E+00 9.451E+00 1.207E+01 4.956E+06 15.0776 1.00000
  3.162E+07 3.162E+07 2.635E+00 3.252E-01 7.210E+00 3.155E+00 1.069E+01 1.333E+01 5.227E+06 15.3078 1.00000
  3.548E+07 3.548E+07 2.648E+00 3.692E-01 8.125E+00 3.596E+00 1.209E+01 1.474E+01 5.503E+06 15.5381 1.00000
  3.981E+07 3.981E+07 2.661E+00 4.190E-01 9.153E+00 4.099E+00 1.367E+01 1.633E+01 5.782E+06 15.7683 1.00000
  4.467E+07 4.467E+07 2.673E+00 4.753E-01 1.031E+01 4.673E+00 1.546E+01 1.813E+01 6.065E+06 15.9986 1.00000
  5.012E+07 5.012E+07 2.686E+00 5.391E-01 1.161E+01 5.329E+00 1.747E+01 2.016E+01 6.351E+06 16.2288 1.00000
  5.623E+07 5.624E+07 2.698E+00 6.112E-01 1.306E+01 6.077E+00 1.975E+01 2.245E+01 6.638E+06 16.4591 1.00000
  6.310E+07 6.310E+07 2.711E+00 6.928E-01 1.470E+01 6.931E+00 2.233E+01 2.504E+01 6.928E+06 16.6893 1.00000
  7.079E+07 7.080E+07 2.723E+00 7.851E-01 1.654E+01 7.906E+00 2.523E+01 2.795E+01 7.220E+06 16.9196 1.00000
  7.943E+07 7.943E+07 2.736E+00 8.894E-01 1.861E+01 9.019E+00 2.851E+01 3.125E+01 7.512E+06 17.1498 1.00000
  8.913E+07 8.913E+07 2.748E+00 1.007E+00 2.093E+01 1.029E+01 3.222E+01 3.497E+01 7.806E+06 17.3801 1.00000
  1.000E+08 1.000E+08 2.761E+00 1.140E+00 2.353E+01 1.174E+01 3.641E+01 3.917E+01 8.100E+06 17.6103 1.00000
  1.122E+08 1.122E+08 2.774E+00 1.291E+00 2.645E+01 1.340E+01 4.114E+01 4.392E+01 8.395E+06 17.8406 1.00000
  1.259E+08 1.259E+08 2.786E+00 1.460E+00 2.973E+01 1.529E+01 4.649E+01 4.928E+01 8.690E+06 18.0708 1.00000
  1.413E+08 1.413E+08 2.799E+00 1.652E+00 3.342E+01 1.746E+01 5.253E+01 5.533E+01 8.984E+06 18.3011 1.00000
  1.585E+08 1.585E+08 2.812E+00 1.868E+00 3.756E+01 1.993E+01 5.935E+01 6.216E+01 9.279E+06 18.5314 1.00000
  1.778E+08 1.778E+08 2.825E+00 2.112E+00 4.220E+01 2.275E+01 6.706E+01 6.988E+01 9.573E+06 18.7616 1.00000
  1.995E+08 1.995E+08 2.837E+00 2.387E+00 4.741E+01 2.597E+01 7.577E+01 7.861E+01 9.866E+06 18.9919 1.00000
  2.239E+08 2.239E+08 2.850E+00 2.697E+00 5.326E+01 2.966E+01 8.561E+01 8.846E+01 1.016E+07 19.2221 1.00000
  2.512E+08 2.512E+08 2.863E+00 3.047E+00 5.982E+01 3.386E+01 9.673E+01 9.960E+01 1.045E+07 19.4524 1.00000
  2.818E+08 2.818E+08 2.876E+00 3.441E+00 6.719E+01 3.867E+01 1.093E+02 1.122E+02 1.074E+07 19.6826 1.00000
  3.162E+08 3.162E+08 2.889E+00 3.885E+00 7.546E+01 4.416E+01 1.235E+02 1.264E+02 1.103E+07 19.9129 1.00000
  3.548E+08 3.548E+08 2.902E+00 4.385E+00 8.474E+01 5.044E+01 1.396E+02 1.425E+02 1.132E+07 20.1432 1.00000
  3.981E+08 3.981E+08 2.915E+00 4.948E+00 9.516E+01 5.761E+01 1.577E+02 1.606E+02 1.160E+07 20.3734 1.00000
  4.467E+08 4.467E+08 2.929E+00 5.582E+00 1.068E+02 6.581E+01 1.782E+02 1.812E+02 1.189E+07 20.6037 1.00000
  5.012E+08 5.012E+08 2.942E+00 6.296E+00 1.200E+02 7.518E+01 2.014E+02 2.044E+02 1.217E+07 20.8339 1.00000
  5.623E+08 5.623E+08 2.955E+00 7.099E+00 1.347E+02 8.588E+01 2.277E+02 2.306E+02 1.246E+07 21.0642 1.00000
  6.310E+08 6.310E+08 2.969E+00 8.004E+00 1.512E+02 9.812E+01 2.573E+02 2.603E+02 1.274E+07 21.2944 1.00000
  7.079E+08 7.079E+08 2.982E+00 9.021E+00 1.697E+02 1.121E+02 2.909E+02 2.938E+02 1.302E+07 21.5247 1.00000
  7.943E+08 7.943E+08 2.996E+00 1.017E+01 1.905E+02 1.281E+02 3.288E+02 3.318E+02 1.329E+07 21.7550 1.00000
  8.913E+08 8.913E+08 3.009E+00 1.145E+01 2.139E+02 1.464E+02 3.717E+02 3.747E+02 1.357E+07 21.9852 1.00000
  1.000E+09 1.000E+09 3.023E+00 1.290E+01 2.400E+02 1.673E+02 4.202E+02 4.232E+02 1.384E+07 22.2155 1.00000
  1.122E+09 1.122E+09 3.037E+00 1.453E+01 2.694E+02 1.912E+02 4.751E+02 4.782E+02 1.411E+07 22.4457 1.00000
  1.259E+09 1.259E+09 3.051E+00 1.636E+01 3.024E+02 2.185E+02 5.372E+02 5.403E+02 1.438E+07 22.6760 1.00000
  1.413E+09 1.413E+09 3.064E+00 1.841E+01 3.394E+02 2.497E+02 6.075E+02 6.106E+02 1.465E+07 22.9062 1.00000
  1.585E+09 1.585E+09 3.078E+00 2.073E+01 3.809E+02 2.854E+02 6.870E+02 6.901E+02 1.492E+07 23.1365 1.00000
  1.778E+09 1.778E+09 3.093E+00 2.332E+01 4.275E+02 3.262E+02 7.771E+02 7.802E+02 1.518E+07 23.3668 1.00000
  1.995E+09 1.995E+09 3.107E+00 2.624E+01 4.798E+02 3.729E+02 8.789E+02 8.820E+02 1.544E+07 23.5970 1.00000
  2.239E+09 2.239E+09 3.121E+00 2.952E+01 5.384E+02 4.263E+02 9.943E+02 9.974E+02 1.570E+07 23.8273 1.00000
  2.512E+09 2.512E+09 3.135E+00 3.321E+01 6.042E+02 4.874E+02 1.125E+03 1.128E+03 1.596E+07 24.0575 1.00000
  2.818E+09 2.818E+09 3.150E+00 3.735E+01 6.780E+02 5.573E+02 1.273E+03 1.276E+03 1.622E+07 24.2878 1.00000
  3.162E+09 3.162E+09 3.164E+00 4.200E+01 7.609E+02 6.372E+02 1.440E+03 1.443E+03 1.647E+07 24.5181 1.00000
  3.548E+09 3.548E+09 3.179E+00 4.722E+01 8.538E+02 7.286E+02 1.630E+03 1.633E+03 1.672E+07 24.7483 1.00000
  3.981E+09 3.981E+09 3.193E+00 5.308E+01 9.581E+02 8.331E+02 1.844E+03 1.848E+03 1.697E+07 24.9786 1.00000
  4.467E+09 4.467E+09 3.208E+00 5.967E+01 1.075E+03 9.528E+02 2.088E+03 2.091E+03 1.722E+07 25.2088 1.00000
  5.012E+09 5.012E+09 3.223E+00 6.706E+01 1.206E+03 1.090E+03 2.363E+03 2.366E+03 1.747E+07 25.4391 1.00000
  5.623E+09 5.623E+09 3.237E+00 7.536E+01 1.354E+03 1.246E+03 2.675E+03 2.678E+03 1.771E+07 25.6693 1.00000
  6.310E+09 6.310E+09 3.252E+00 8.468E+01 1.519E+03 1.425E+03 3.029E+03 3.032E+03 1.795E+07 25.8996 1.00000
  7.079E+09 7.079E+09 3.267E+00 9.515E+01 1.704E+03 1.630E+03 3.430E+03 3.433E+03 1.819E+07 26.1299 1.00000
  7.943E+09 7.943E+09 3.283E+00 1.069E+02 1.913E+03 1.865E+03 3.884E+03 3.888E+03 1.843E+07 26.3601 1.00000
  8.913E+09 8.913E+09 3.298E+00 1.201E+02 2.146E+03 2.133E+03 4.399E+03 4.403E+03 1.866E+07 26.5904 1.00000
  1.000E+10 1.000E+10 3.313E+00 1.349E+02 2.408E+03 2.440E+03 4.983E+03 4.987E+03 1.889E+07 26.8206 1.00000
  1.122E+10 1.122E+10 3.328E+00 1.515E+02 2.702E+03 2.792E+03 5.645E+03 5.649E+03 1.912E+07 27.0509 1.00000
  1.259E+10 1.259E+10 3.344E+00 1.702E+02 3.032E+03 3.194E+03 6.396E+03 6.399E+03 1.935E+07 27.2812 1.00000
  1.413E+10 1.413E+10 3.359E+00 1.911E+02 3.402E+03 3.655E+03 7.247E+03 7.251E+03 1.958E+07 27.5114 1.00000
  1.585E+10 1.585E+10 3.375E+00 2.146E+02 3.817E+03 4.182E+03 8.213E+03 8.217E+03 1.980E+07 27.7417 1.00000
  1.778E+10 1.778E+10 3.391E+00 2.410E+02 4.283E+03 4.785E+03 9.309E+03 9.312E+03 2.002E+07 27.9719 1.00000
  1.995E+10 1.995E+10 3.407E+00 2.706E+02 4.805E+03 5.476E+03 1.055E+04 1.056E+04 2.024E+07 28.2022 1.00000
  2.239E+10 2.239E+10 3.422E+00 3.038E+02 5.392E+03 6.267E+03 1.196E+04 1.197E+04 2.046E+07 28.4325 1.00000
  2.512E+10 2.512E+10 3.438E+00 3.410E+02 6.049E+03 7.172E+03 1.356E+04 1.357E+04 2.067E+07 28.6627 1.00000
  2.818E+10 2.818E+10 3.455E+00 3.829E+02 6.788E+03 8.209E+03 1.538E+04 1.538E+04 2.089E+07 28.8930 1.00000
  3.162E+10 3.162E+10 3.471E+00 4.298E+02 7.616E+03 9.395E+03 1.744E+04 1.744E+04 2.110E+07 29.1232 1.00000
  3.548E+10 3.548E+10 3.487E+00 4.825E+02 8.545E+03 1.075E+04 1.978E+04 1.979E+04 2.131E+07 29.3535 1.00000
  3.981E+10 3.981E+10 3.503E+00 5.416E+02 9.588E+03 1.231E+04 2.244E+04 2.244E+04 2.151E+07 29.5837 1.00000
  4.467E+10 4.467E+10 3.520E+00 6.080E+02 1.076E+04 1.409E+04 2.546E+04 2.546E+04 2.172E+07 29.8140 1.00000
  5.012E+10 5.012E+10 3.536E+00 6.824E+02 1.207E+04 1.613E+04 2.889E+04 2.889E+04 2.192E+07 30.0443 1.00000
  5.623E+10 5.623E+10 3.553E+00 7.659E+02 1.354E+04 1.847E+04 3.278E+04 3.278E+04 2.212E+07 30.2745 1.00000
  6.310E+10 6.310E+10 3.570E+00 8.597E+02 1.519E+04 2.115E+04 3.720E+04 3.721E+04 2.231E+07 30.5048 1.00000
  7.079E+10 7.079E+10 3.586E+00 9.649E+02 1.705E+04 2.422E+04 4.223E+04 4.223E+04 2.251E+07 30.7350 1.00000
  7.943E+10 7.943E+10 3.603E+00 1.083E+03 1.913E+04 2.773E+04 4.794E+04 4.794E+04 2.270E+07 30.9653 1.00000
  8.913E+10 8.913E+10 3.620E+00 1.215E+03 2.146E+04 3.175E+04 5.443E+04 5.443E+04 2.289E+07 31.1956 1.00000
  1.000E+11 1.000E+11 3.638E+00 1.364E+03 2.408E+04 3.636E+04 6.181E+04 6.181E+04 2.308E+07 31.4258 1.00000
  1.122E+11 1.122E+11 3.655E+00 1.531E+03 2.702E+04 4.164E+04 7.019E+04 7.020E+04 2.326E+07 31.6561 1.00000
  1.259E+11 1.259E+11 3.672E+00 1.718E+03 3.031E+04 4.769E+04 7.973E+04 7.973E+04 2.345E+07 31.8863 1.00000
  1.413E+11 1.413E+11 3.689E+00 1.928E+03 3.401E+04 5.463E+04 9.057E+04 9.057E+04 2.363E+07 32.1166 1.00000
  1.585E+11 1.585E+11 3.707E+00 2.163E+03 3.816E+04 6.257E+04 1.029E+05 1.029E+05 2.381E+07 32.3468 1.00000
  1.778E+11 1.778E+11 3.725E+00 2.428E+03 4.282E+04 7.168E+04 1.169E+05 1.169E+05 2.398E+07 32.5771 1.00000
  1.995E+11 1.995E+11 3.742E+00 2.724E+03 4.804E+04 8.211E+04 1.329E+05 1.329E+05 2.416E+07 32.8074 1.00000
  2.239E+11 2.239E+11 3.760E+00 3.057E+03 5.390E+04 9.406E+04 1.510E+05 1.510E+05 2.433E+07 33.0376 1.00000
  2.512E+11 2.512E+11 3.778E+00 3.430E+03 6.048E+04 1.078E+05 1.717E+05 1.717E+05 2.450E+07 33.2679 1.00000
  2.818E+11 2.818E+11 3.796E+00 3.849E+03 6.785E+04 1.235E+05 1.952E+05 1.952E+05 2.467E+07 33.4981 1.00000
  3.162E+11 3.162E+11 3.814E+00 4.319E+03 7.613E+04 1.415E+05 2.219E+05 2.219E+05 2.483E+07 33.7284 1.00000
  3.548E+11 3.548E+11 3.832E+00 4.847E+03 8.542E+04 1.621E+05 2.524E+05 2.524E+05 2.500E+07 33.9587 1.00000
  3.981E+11 3.981E+11 3.850E+00 5.439E+03 9.584E+04 1.857E+05 2.870E+05 2.870E+05 2.516E+07 34.1889 1.00000
  4.467E+11 4.467E+11 3.869E+00 6.103E+03 1.075E+05 2.129E+05 3.265E+05 3.265E+05 2.532E+07 34.4192 1.00000
  5.012E+11 5.012E+11 3.887E+00 6.848E+03 1.206E+05 2.439E+05 3.714E+05 3.714E+05 2.547E+07 34.6494 1.00000
  5.623E+11 5.623E+11 3.906E+00 7.684E+03 1.354E+05 2.796E+05 4.226E+05 4.226E+05 2.563E+07 34.8797 1.00000
  6.310E+11 6.310E+11 3.925E+00 8.622E+03 1.519E+05 3.204E+05 4.809E+05 4.809E+05 2.578E+07 35.1099 1.00000
  7.079E+11 7.079E+11 3.944E+00 9.674E+03 1.704E+05 3.673E+05 5.473E+05 5.473E+05 2.593E+07 35.3402 1.00000
  7.943E+11 7.943E+11 3.962E+00 1.085E+04 1.912E+05 4.210E+05 6.230E+05 6.230E+05 2.608E+07 35.5705 1.00000
  8.913E+11 8.913E+11 3.981E+00 1.218E+04 2.145E+05 4.826E+05 7.093E+05 7.093E+05 2.623E+07 35.8007 1.00000
  1.000E+12 1.000E+12 4.001E+00 1.367E+04 2.407E+05 5.532E+05 8.075E+05 8.075E+05 2.637E+07 36.0310 1.00000
  1.122E+12 1.122E+12 4.020E+00 1.533E+04 2.700E+05 6.342E+05 9.196E+05 9.196E+05 2.651E+07 36.2612 1.00000
  1.259E+12 1.259E+12 4.039E+00 1.721E+04 3.030E+05 7.271E+05 1.047E+06 1.047E+06 2.665E+07 36.4915 1.00000
  1.413E+12 1.413E+12 4.059E+00 1.931E+04 3.399E+05 8.337E+05 1.193E+06 1.193E+06 2.679E+07 36.7218 1.00000
  1.585E+12 1.585E+12 4.078E+00 2.166E+04 3.814E+05 9.559E+05 1.359E+06 1.359E+06 2.692E+07 36.9520 1.00000
  1.778E+12 1.778E+12 4.098E+00 2.431E+04 4.279E+05 1.096E+06 1.548E+06 1.548E+06 2.706E+07 37.1823 1.00000
  1.995E+12 1.995E+12 4.118E+00 2.727E+04 4.801E+05 1.257E+06 1.764E+06 1.764E+06 2.719E+07 37.4125 1.00000
  2.239E+12 2.239E+12 4.138E+00 3.060E+04 5.386E+05 1.441E+06 2.011E+06 2.011E+06 2.732E+07 37.6428 1.00000
  2.512E+12 2.512E+12 4.158E+00 3.433E+04 6.043E+05 1.653E+06 2.292E+06 2.292E+06 2.745E+07 37.8730 1.00000
  2.818E+12 2.818E+12 4.178E+00 3.852E+04 6.780E+05 1.896E+06 2.612E+06 2.612E+06 2.757E+07 38.1033 1.00000
  3.162E+12 3.162E+12 4.198E+00 4.323E+04 7.607E+05 2.174E+06 2.978E+06 2.978E+06 2.770E+07 38.3336 1.00000
  3.548E+12 3.548E+12 4.218E+00 4.850E+04 8.535E+05 2.494E+06 3.396E+06 3.396E+06 2.782E+07 38.5638 1.00000
  3.981E+12 3.981E+12 4.239E+00 5.442E+04 9.576E+05 2.861E+06 3.873E+06 3.873E+06 2.794E+07 38.7941 1.00000
  4.467E+12 4.467E+12 4.259E+00 6.106E+04 1.074E+06 3.282E+06 4.417E+06 4.417E+06 2.805E+07 39.0243 1.00000
  5.012E+12 5.012E+12 4.280E+00 6.851E+04 1.205E+06 3.765E+06 5.039E+06 5.039E+06 2.817E+07 39.2546 1.00000
  5.623E+12 5.623E+12 4.301E+00 7.687E+04 1.352E+06 4.319E+06 5.749E+06 5.749E+06 2.828E+07 39.4849 1.00000
  6.310E+12 6.310E+12 4.321E+00 8.625E+04 1.517E+06 4.955E+06 6.559E+06 6.559E+06 2.840E+07 39.7151 1.00000
  7.079E+12 7.079E+12 4.342E+00 9.678E+04 1.703E+06 5.686E+06 7.485E+06 7.485E+06 2.851E+07 39.9454 1.00000
  7.943E+12 7.943E+12 4.364E+00 1.086E+05 1.910E+06 6.524E+06 8.542E+06 8.542E+06 2.861E+07 40.1756 1.00000
  8.913E+12 8.913E+12 4.385E+00 1.218E+05 2.143E+06 7.486E+06 9.751E+06 9.751E+06 2.872E+07 40.4059 1.00000
  1.000E+13 1.000E+13 4.406E+00 1.367E+05 2.405E+06 8.590E+06 1.113E+07 1.113E+07 2.883E+07 40.6362 1.00000
  1.122E+13 1.122E+13 4.428E+00 1.534E+05 2.698E+06 9.857E+06 1.271E+07 1.271E+07 2.893E+07 40.8664 1.00000
  1.259E+13 1.259E+13 4.449E+00 1.721E+05 3.027E+06 1.131E+07 1.451E+07 1.451E+07 2.903E+07 41.0967 1.00000
  1.413E+13 1.413E+13 4.471E+00 1.931E+05 3.396E+06 1.298E+07 1.657E+07 1.657E+07 2.913E+07 41.3269 1.00000
  1.585E+13 1.585E+13 4.493E+00 2.167E+05 3.810E+06 1.490E+07 1.893E+07 1.893E+07 2.923E+07 41.5572 1.00000
  1.778E+13 1.778E+13 4.515E+00 2.431E+05 4.275E+06 1.710E+07 2.162E+07 2.162E+07 2.932E+07 41.7874 1.00000
  1.995E+13 1.995E+13 4.537E+00 2.728E+05 4.796E+06 1.963E+07 2.470E+07 2.470E+07 2.942E+07 42.0177 1.00000
  2.239E+13 2.239E+13 4.559E+00 3.060E+05 5.381E+06 2.254E+07 2.822E+07 2.822E+07 2.951E+07 42.2480 1.00000
  2.512E+13 2.512E+13 4.581E+00 3.434E+05 6.037E+06 2.587E+07 3.225E+07 3.225E+07 2.960E+07 42.4782 1.00000
  2.818E+13 2.818E+13 4.604E+00 3.853E+05 6.774E+06 2.970E+07 3.686E+07 3.686E+07 2.969E+07 42.7085 1.00000
  3.162E+13 3.162E+13 4.626E+00 4.323E+05 7.600E+06 3.410E+07 4.213E+07 4.213E+07 2.978E+07 42.9387 1.00000
  3.548E+13 3.548E+13 4.649E+00 4.850E+05 8.527E+06 3.915E+07 4.816E+07 4.816E+07 2.986E+07 43.1690 1.00000
  3.981E+13 3.981E+13 4.672E+00 5.442E+05 9.567E+06 4.495E+07 5.506E+07 5.506E+07 2.995E+07 43.3993 1.00000
  4.467E+13 4.467E+13 4.695E+00 6.106E+05 1.073E+07 5.161E+07 6.296E+07 6.296E+07 3.003E+07 43.6295 1.00000
  5.012E+13 5.012E+13 4.718E+00 6.851E+05 1.204E+07 5.927E+07 7.200E+07 7.200E+07 3.011E+07 43.8598 1.00000
  5.623E+13 5.623E+13 4.741E+00 7.687E+05 1.351E+07 6.806E+07 8.234E+07 8.234E+07 3.019E+07 44.0900 1.00000
  6.310E+13 6.310E+13 4.764E+00 8.625E+05 1.516E+07 7.816E+07 9.418E+07 9.418E+07 3.027E+07 44.3203 1.00000
  7.079E+13 7.079E+13 4.787E+00 9.678E+05 1.701E+07 8.976E+07 1.077E+08 1.077E+08 3.034E+07 44.5505 1.00000
  7.943E+13 7.943E+13 4.811E+00 1.086E+06 1.908E+07 1.031E+08 1.233E+08 1.233E+08 3.042E+07 44.7808 1.00000
  8.913E+13 8.913E+13 4.835E+00 1.218E+06 2.141E+07 1.184E+08 1.410E+08 1.410E+08 3.049E+07 45.0111 1.00000
