 Incident particle is a Tau with M = 1776.82000 MeV
 Index = 0: Xylene
      Absorber with <Z/A> = 0.54624
 Sternheimer coef:  a     k=m_s   x_0    x_1    I[eV]   Cbar  delta0
                 0.1322  3.3564  0.1695  2.5675   61.8  3.2698 0.00

 *** Table generated with PUMAS v1.00 ***

      T         p     Ionization  brems     pair     photonuc  Radloss    dE/dx   CSDA Range  delta   beta
    [MeV]    [MeV/c]  -----------------------[MeV cm^2/g]------------------------  [g/cm^2]
  1.000E+05 1.018E+05 2.421E+00 1.133E-04 1.760E-03 8.440E-03 1.031E-02 2.432E+00 2.056E+04  4.8909 0.99985
  1.122E+05 1.140E+05 2.442E+00 1.309E-04 2.130E-03 9.538E-03 1.180E-02 2.454E+00 2.556E+04  5.1050 0.99988
  1.259E+05 1.277E+05 2.462E+00 1.511E-04 2.567E-03 1.072E-02 1.344E-02 2.476E+00 3.111E+04  5.3213 0.99990
  1.413E+05 1.430E+05 2.483E+00 1.743E-04 3.082E-03 1.206E-02 1.531E-02 2.498E+00 3.729E+04  5.5396 0.99992
  1.585E+05 1.603E+05 2.503E+00 2.010E-04 3.688E-03 1.355E-02 1.744E-02 2.521E+00 4.416E+04  5.7596 0.99994
  1.778E+05 1.796E+05 2.523E+00 2.317E-04 4.401E-03 1.522E-02 1.985E-02 2.543E+00 5.180E+04  5.9812 0.99995
  1.995E+05 2.013E+05 2.544E+00 2.670E-04 5.235E-03 1.713E-02 2.263E-02 2.566E+00 6.029E+04  6.2042 0.99996
  2.239E+05 2.256E+05 2.564E+00 3.076E-04 6.212E-03 1.922E-02 2.574E-02 2.590E+00 6.973E+04  6.4285 0.99997
  2.512E+05 2.530E+05 2.584E+00 3.541E-04 7.352E-03 2.156E-02 2.926E-02 2.613E+00 8.024E+04  6.6539 0.99998
  2.818E+05 2.836E+05 2.604E+00 4.075E-04 8.681E-03 2.419E-02 3.328E-02 2.637E+00 9.191E+04  6.8802 0.99998
  3.162E+05 3.180E+05 2.624E+00 4.688E-04 1.023E-02 2.718E-02 3.787E-02 2.662E+00 1.049E+05  7.1074 0.99998
  3.548E+05 3.566E+05 2.644E+00 5.391E-04 1.202E-02 3.053E-02 4.309E-02 2.687E+00 1.193E+05  7.3352 0.99999
  3.981E+05 3.999E+05 2.664E+00 6.197E-04 1.410E-02 3.427E-02 4.900E-02 2.713E+00 1.354E+05  7.5636 0.99999
  4.467E+05 4.485E+05 2.684E+00 7.120E-04 1.652E-02 3.847E-02 5.570E-02 2.740E+00 1.532E+05  7.7925 0.99999
  5.012E+05 5.030E+05 2.704E+00 8.179E-04 1.930E-02 4.320E-02 6.333E-02 2.767E+00 1.730E+05  8.0217 0.99999
  5.623E+05 5.641E+05 2.723E+00 9.392E-04 2.253E-02 4.833E-02 7.180E-02 2.795E+00 1.950E+05  8.2511 1.00000
  6.310E+05 6.327E+05 2.743E+00 1.078E-03 2.624E-02 5.412E-02 8.144E-02 2.825E+00 2.194E+05  8.4806 1.00000
  7.079E+05 7.097E+05 2.763E+00 1.237E-03 3.052E-02 6.065E-02 9.241E-02 2.855E+00 2.465E+05  8.7103 1.00000
  7.943E+05 7.961E+05 2.782E+00 1.419E-03 3.544E-02 6.803E-02 1.049E-01 2.887E+00 2.766E+05  8.9400 1.00000
  8.913E+05 8.930E+05 2.802E+00 1.628E-03 4.110E-02 7.637E-02 1.191E-01 2.921E+00 3.100E+05  9.1698 1.00000
  1.000E+06 1.002E+06 2.821E+00 1.867E-03 4.760E-02 8.582E-02 1.353E-01 2.956E+00 3.470E+05  9.3996 1.00000
  1.122E+06 1.124E+06 2.840E+00 2.140E-03 5.504E-02 9.651E-02 1.537E-01 2.994E+00 3.880E+05  9.6295 1.00000
  1.259E+06 1.261E+06 2.860E+00 2.452E-03 6.357E-02 1.086E-01 1.746E-01 3.034E+00 4.334E+05  9.8594 1.00000
  1.413E+06 1.414E+06 2.879E+00 2.809E-03 7.333E-02 1.223E-01 1.985E-01 3.077E+00 4.837E+05 10.0893 1.00000
  1.585E+06 1.587E+06 2.898E+00 3.218E-03 8.449E-02 1.379E-01 2.256E-01 3.123E+00 5.393E+05 10.3193 1.00000
  1.778E+06 1.780E+06 2.916E+00 3.685E-03 9.723E-02 1.556E-01 2.565E-01 3.173E+00 6.007E+05 10.5493 1.00000
  1.995E+06 1.997E+06 2.935E+00 4.219E-03 1.118E-01 1.757E-01 2.916E-01 3.227E+00 6.685E+05 10.7794 1.00000
  2.239E+06 2.240E+06 2.954E+00 4.829E-03 1.283E-01 1.984E-01 3.316E-01 3.285E+00 7.433E+05 11.0095 1.00000
  2.512E+06 2.514E+06 2.972E+00 5.525E-03 1.472E-01 2.243E-01 3.771E-01 3.349E+00 8.257E+05 11.2395 1.00000
  2.818E+06 2.820E+06 2.990E+00 6.321E-03 1.686E-01 2.538E-01 4.288E-01 3.419E+00 9.162E+05 11.4696 1.00000
  3.162E+06 3.164E+06 3.008E+00 7.230E-03 1.930E-01 2.873E-01 4.875E-01 3.496E+00 1.016E+06 11.6998 1.00000
  3.548E+06 3.550E+06 3.026E+00 8.268E-03 2.208E-01 3.253E-01 5.544E-01 3.580E+00 1.125E+06 11.9299 1.00000
  3.981E+06 3.983E+06 3.044E+00 9.453E-03 2.522E-01 3.687E-01 6.303E-01 3.674E+00 1.244E+06 12.1601 1.00000
  4.467E+06 4.469E+06 3.061E+00 1.080E-02 2.879E-01 4.180E-01 7.167E-01 3.778E+00 1.375E+06 12.3902 1.00000
  5.012E+06 5.014E+06 3.079E+00 1.235E-02 3.283E-01 4.742E-01 8.148E-01 3.893E+00 1.517E+06 12.6204 1.00000
  5.623E+06 5.625E+06 3.096E+00 1.411E-02 3.741E-01 5.381E-01 9.263E-01 4.022E+00 1.671E+06 12.8506 1.00000
  6.310E+06 6.311E+06 3.113E+00 1.611E-02 4.259E-01 6.110E-01 1.053E+00 4.166E+00 1.839E+06 13.0808 1.00000
  7.079E+06 7.081E+06 3.130E+00 1.840E-02 4.846E-01 6.939E-01 1.197E+00 4.327E+00 2.020E+06 13.3110 1.00000
  7.943E+06 7.945E+06 3.146E+00 2.100E-02 5.509E-01 7.885E-01 1.360E+00 4.507E+00 2.216E+06 13.5412 1.00000
  8.913E+06 8.914E+06 3.163E+00 2.397E-02 6.258E-01 8.963E-01 1.546E+00 4.709E+00 2.426E+06 13.7714 1.00000
  1.000E+07 1.000E+07 3.179E+00 2.735E-02 7.104E-01 1.019E+00 1.757E+00 4.936E+00 2.652E+06 14.0016 1.00000
  1.122E+07 1.122E+07 3.195E+00 3.120E-02 8.060E-01 1.159E+00 1.996E+00 5.192E+00 2.893E+06 14.2318 1.00000
  1.259E+07 1.259E+07 3.211E+00 3.558E-02 9.138E-01 1.319E+00 2.268E+00 5.479E+00 3.150E+06 14.4620 1.00000
  1.413E+07 1.413E+07 3.227E+00 4.057E-02 1.035E+00 1.501E+00 2.577E+00 5.804E+00 3.422E+06 14.6923 1.00000
  1.585E+07 1.585E+07 3.243E+00 4.624E-02 1.172E+00 1.709E+00 2.927E+00 6.170E+00 3.711E+06 14.9225 1.00000
  1.778E+07 1.778E+07 3.259E+00 5.269E-02 1.327E+00 1.945E+00 3.325E+00 6.584E+00 4.014E+06 15.1527 1.00000
  1.995E+07 1.995E+07 3.274E+00 6.003E-02 1.501E+00 2.216E+00 3.777E+00 7.051E+00 4.333E+06 15.3830 1.00000
  2.239E+07 2.239E+07 3.290E+00 6.836E-02 1.697E+00 2.524E+00 4.289E+00 7.579E+00 4.666E+06 15.6132 1.00000
  2.512E+07 2.512E+07 3.305E+00 7.784E-02 1.918E+00 2.875E+00 4.871E+00 8.176E+00 5.013E+06 15.8434 1.00000
  2.818E+07 2.819E+07 3.321E+00 8.860E-02 2.166E+00 3.277E+00 5.531E+00 8.852E+00 5.374E+06 16.0737 1.00000
  3.162E+07 3.162E+07 3.336E+00 1.008E-01 2.446E+00 3.735E+00 6.281E+00 9.617E+00 5.747E+06 16.3039 1.00000
  3.548E+07 3.548E+07 3.351E+00 1.147E-01 2.760E+00 4.257E+00 7.132E+00 1.048E+01 6.132E+06 16.5342 1.00000
  3.981E+07 3.981E+07 3.366E+00 1.304E-01 3.114E+00 4.854E+00 8.098E+00 1.146E+01 6.527E+06 16.7644 1.00000
  4.467E+07 4.467E+07 3.382E+00 1.483E-01 3.511E+00 5.535E+00 9.194E+00 1.258E+01 6.932E+06 16.9947 1.00000
  5.012E+07 5.012E+07 3.397E+00 1.686E-01 3.958E+00 6.312E+00 1.044E+01 1.384E+01 7.346E+06 17.2249 1.00000
  5.623E+07 5.624E+07 3.412E+00 1.915E-01 4.461E+00 7.199E+00 1.185E+01 1.526E+01 7.767E+06 17.4552 1.00000
  6.310E+07 6.310E+07 3.427E+00 2.176E-01 5.026E+00 8.212E+00 1.346E+01 1.688E+01 8.195E+06 17.6854 1.00000
  7.079E+07 7.080E+07 3.442E+00 2.471E-01 5.660E+00 9.369E+00 1.528E+01 1.872E+01 8.629E+06 17.9157 1.00000
  7.943E+07 7.943E+07 3.457E+00 2.805E-01 6.373E+00 1.069E+01 1.734E+01 2.080E+01 9.067E+06 18.1459 1.00000
  8.913E+07 8.913E+07 3.473E+00 3.183E-01 7.174E+00 1.220E+01 1.969E+01 2.316E+01 9.509E+06 18.3762 1.00000
  1.000E+08 1.000E+08 3.488E+00 3.612E-01 8.074E+00 1.392E+01 2.235E+01 2.584E+01 9.954E+06 18.6064 1.00000
  1.122E+08 1.122E+08 3.503E+00 4.097E-01 9.084E+00 1.589E+01 2.538E+01 2.888E+01 1.040E+07 18.8367 1.00000
  1.259E+08 1.259E+08 3.518E+00 4.645E-01 1.022E+01 1.813E+01 2.882E+01 3.233E+01 1.085E+07 19.0669 1.00000
  1.413E+08 1.413E+08 3.534E+00 5.266E-01 1.149E+01 2.070E+01 3.272E+01 3.625E+01 1.130E+07 19.2972 1.00000
  1.585E+08 1.585E+08 3.549E+00 5.968E-01 1.292E+01 2.363E+01 3.715E+01 4.070E+01 1.175E+07 19.5275 1.00000
  1.778E+08 1.778E+08 3.565E+00 6.762E-01 1.453E+01 2.698E+01 4.218E+01 4.575E+01 1.220E+07 19.7577 1.00000
  1.995E+08 1.995E+08 3.580E+00 7.659E-01 1.633E+01 3.080E+01 4.790E+01 5.148E+01 1.265E+07 19.9880 1.00000
  2.239E+08 2.239E+08 3.596E+00 8.672E-01 1.836E+01 3.517E+01 5.439E+01 5.799E+01 1.309E+07 20.2182 1.00000
  2.512E+08 2.512E+08 3.611E+00 9.817E-01 2.063E+01 4.016E+01 6.177E+01 6.538E+01 1.354E+07 20.4485 1.00000
  2.818E+08 2.818E+08 3.627E+00 1.111E+00 2.318E+01 4.586E+01 7.015E+01 7.378E+01 1.398E+07 20.6787 1.00000
  3.162E+08 3.162E+08 3.643E+00 1.257E+00 2.604E+01 5.238E+01 7.968E+01 8.332E+01 1.442E+07 20.9090 1.00000
  3.548E+08 3.548E+08 3.659E+00 1.422E+00 2.926E+01 5.982E+01 9.050E+01 9.416E+01 1.485E+07 21.1393 1.00000
  3.981E+08 3.981E+08 3.675E+00 1.607E+00 3.286E+01 6.833E+01 1.028E+02 1.065E+02 1.529E+07 21.3695 1.00000
  4.467E+08 4.467E+08 3.691E+00 1.817E+00 3.691E+01 7.806E+01 1.168E+02 1.205E+02 1.572E+07 21.5998 1.00000
  5.012E+08 5.012E+08 3.707E+00 2.053E+00 4.145E+01 8.917E+01 1.327E+02 1.364E+02 1.614E+07 21.8300 1.00000
  5.623E+08 5.623E+08 3.723E+00 2.320E+00 4.655E+01 1.019E+02 1.507E+02 1.545E+02 1.657E+07 22.0603 1.00000
  6.310E+08 6.310E+08 3.739E+00 2.620E+00 5.227E+01 1.164E+02 1.713E+02 1.750E+02 1.698E+07 22.2905 1.00000
  7.079E+08 7.079E+08 3.755E+00 2.959E+00 5.870E+01 1.330E+02 1.946E+02 1.984E+02 1.740E+07 22.5208 1.00000
  7.943E+08 7.943E+08 3.772E+00 3.340E+00 6.590E+01 1.519E+02 2.212E+02 2.250E+02 1.781E+07 22.7511 1.00000
  8.913E+08 8.913E+08 3.788E+00 3.770E+00 7.399E+01 1.736E+02 2.514E+02 2.552E+02 1.821E+07 22.9813 1.00000
  1.000E+09 1.000E+09 3.805E+00 4.254E+00 8.306E+01 1.984E+02 2.857E+02 2.895E+02 1.861E+07 23.2116 1.00000
  1.122E+09 1.122E+09 3.821E+00 4.800E+00 9.324E+01 2.268E+02 3.248E+02 3.286E+02 1.901E+07 23.4418 1.00000
  1.259E+09 1.259E+09 3.838E+00 5.413E+00 1.047E+02 2.592E+02 3.692E+02 3.731E+02 1.940E+07 23.6721 1.00000
  1.413E+09 1.413E+09 3.855E+00 6.104E+00 1.175E+02 2.962E+02 4.198E+02 4.236E+02 1.979E+07 23.9023 1.00000
  1.585E+09 1.585E+09 3.872E+00 6.882E+00 1.319E+02 3.386E+02 4.773E+02 4.812E+02 2.017E+07 24.1326 1.00000
  1.778E+09 1.778E+09 3.889E+00 7.757E+00 1.480E+02 3.870E+02 5.428E+02 5.467E+02 2.055E+07 24.3629 1.00000
  1.995E+09 1.995E+09 3.906E+00 8.741E+00 1.661E+02 4.424E+02 6.173E+02 6.212E+02 2.092E+07 24.5931 1.00000
  2.239E+09 2.239E+09 3.923E+00 9.848E+00 1.864E+02 5.058E+02 7.020E+02 7.060E+02 2.129E+07 24.8234 1.00000
  2.512E+09 2.512E+09 3.941E+00 1.109E+01 2.092E+02 5.782E+02 7.985E+02 8.025E+02 2.165E+07 25.0536 1.00000
  2.818E+09 2.818E+09 3.958E+00 1.249E+01 2.348E+02 6.611E+02 9.084E+02 9.124E+02 2.201E+07 25.2839 1.00000
  3.162E+09 3.162E+09 3.975E+00 1.407E+01 2.635E+02 7.559E+02 1.033E+03 1.037E+03 2.237E+07 25.5142 1.00000
  3.548E+09 3.548E+09 3.993E+00 1.584E+01 2.958E+02 8.643E+02 1.176E+03 1.180E+03 2.272E+07 25.7444 1.00000
  3.981E+09 3.981E+09 4.011E+00 1.783E+01 3.319E+02 9.883E+02 1.338E+03 1.342E+03 2.306E+07 25.9747 1.00000
  4.467E+09 4.467E+09 4.028E+00 2.006E+01 3.725E+02 1.130E+03 1.523E+03 1.527E+03 2.340E+07 26.2049 1.00000
  5.012E+09 5.012E+09 4.046E+00 2.257E+01 4.180E+02 1.293E+03 1.733E+03 1.737E+03 2.374E+07 26.4352 1.00000
  5.623E+09 5.623E+09 4.064E+00 2.540E+01 4.690E+02 1.478E+03 1.973E+03 1.977E+03 2.407E+07 26.6654 1.00000
  6.310E+09 6.310E+09 4.082E+00 2.857E+01 5.263E+02 1.691E+03 2.246E+03 2.250E+03 2.439E+07 26.8957 1.00000
  7.079E+09 7.079E+09 4.101E+00 3.213E+01 5.906E+02 1.934E+03 2.557E+03 2.561E+03 2.472E+07 27.1260 1.00000
  7.943E+09 7.943E+09 4.119E+00 3.613E+01 6.627E+02 2.212E+03 2.911E+03 2.915E+03 2.503E+07 27.3562 1.00000
  8.913E+09 8.913E+09 4.137E+00 4.063E+01 7.436E+02 2.531E+03 3.315E+03 3.319E+03 2.534E+07 27.5865 1.00000
  1.000E+10 1.000E+10 4.156E+00 4.568E+01 8.344E+02 2.895E+03 3.775E+03 3.779E+03 2.565E+07 27.8167 1.00000
  1.122E+10 1.122E+10 4.174E+00 5.135E+01 9.363E+02 3.312E+03 4.300E+03 4.304E+03 2.596E+07 28.0470 1.00000
  1.259E+10 1.259E+10 4.193E+00 5.772E+01 1.051E+03 3.789E+03 4.897E+03 4.902E+03 2.625E+07 28.2773 1.00000
  1.413E+10 1.413E+10 4.212E+00 6.487E+01 1.179E+03 4.335E+03 5.579E+03 5.583E+03 2.655E+07 28.5075 1.00000
  1.585E+10 1.585E+10 4.231E+00 7.289E+01 1.323E+03 4.961E+03 6.356E+03 6.361E+03 2.684E+07 28.7378 1.00000
  1.778E+10 1.778E+10 4.250E+00 8.191E+01 1.484E+03 5.677E+03 7.243E+03 7.247E+03 2.712E+07 28.9680 1.00000
  1.995E+10 1.995E+10 4.269E+00 9.203E+01 1.665E+03 6.496E+03 8.253E+03 8.258E+03 2.741E+07 29.1983 1.00000
  2.239E+10 2.239E+10 4.288E+00 1.034E+02 1.869E+03 7.434E+03 9.406E+03 9.410E+03 2.768E+07 29.4286 1.00000
  2.512E+10 2.512E+10 4.307E+00 1.161E+02 2.097E+03 8.508E+03 1.072E+04 1.073E+04 2.795E+07 29.6588 1.00000
  2.818E+10 2.818E+10 4.327E+00 1.305E+02 2.352E+03 9.738E+03 1.222E+04 1.222E+04 2.822E+07 29.8891 1.00000
  3.162E+10 3.162E+10 4.347E+00 1.465E+02 2.639E+03 1.115E+04 1.393E+04 1.394E+04 2.849E+07 30.1193 1.00000
  3.548E+10 3.548E+10 4.366E+00 1.646E+02 2.962E+03 1.276E+04 1.588E+04 1.589E+04 2.875E+07 30.3496 1.00000
  3.981E+10 3.981E+10 4.386E+00 1.848E+02 3.323E+03 1.460E+04 1.811E+04 1.812E+04 2.900E+07 30.5798 1.00000
  4.467E+10 4.467E+10 4.406E+00 2.075E+02 3.728E+03 1.672E+04 2.065E+04 2.066E+04 2.925E+07 30.8101 1.00000
  5.012E+10 5.012E+10 4.426E+00 2.330E+02 4.183E+03 1.914E+04 2.356E+04 2.356E+04 2.950E+07 31.0404 1.00000
  5.623E+10 5.623E+10 4.446E+00 2.617E+02 4.694E+03 2.191E+04 2.687E+04 2.687E+04 2.975E+07 31.2706 1.00000
  6.310E+10 6.310E+10 4.466E+00 2.938E+02 5.266E+03 2.509E+04 3.065E+04 3.065E+04 2.998E+07 31.5009 1.00000
  7.079E+10 7.079E+10 4.487E+00 3.298E+02 5.909E+03 2.873E+04 3.497E+04 3.497E+04 3.022E+07 31.7311 1.00000
  7.943E+10 7.943E+10 4.507E+00 3.703E+02 6.630E+03 3.289E+04 3.989E+04 3.990E+04 3.045E+07 31.9614 1.00000
  8.913E+10 8.913E+10 4.528E+00 4.157E+02 7.439E+03 3.767E+04 4.552E+04 4.553E+04 3.068E+07 32.1917 1.00000
  1.000E+11 1.000E+11 4.548E+00 4.666E+02 8.346E+03 4.314E+04 5.195E+04 5.195E+04 3.090E+07 32.4219 1.00000
  1.122E+11 1.122E+11 4.569E+00 5.238E+02 9.364E+03 4.940E+04 5.929E+04 5.929E+04 3.112E+07 32.6522 1.00000
  1.259E+11 1.259E+11 4.590E+00 5.880E+02 1.051E+04 5.658E+04 6.767E+04 6.768E+04 3.134E+07 32.8824 1.00000
  1.413E+11 1.413E+11 4.611E+00 6.600E+02 1.179E+04 6.480E+04 7.725E+04 7.726E+04 3.155E+07 33.1127 1.00000
  1.585E+11 1.585E+11 4.632E+00 7.408E+02 1.323E+04 7.423E+04 8.820E+04 8.820E+04 3.176E+07 33.3429 1.00000
  1.778E+11 1.778E+11 4.654E+00 8.314E+02 1.484E+04 8.503E+04 1.007E+05 1.007E+05 3.197E+07 33.5732 1.00000
  1.995E+11 1.995E+11 4.675E+00 9.331E+02 1.665E+04 9.740E+04 1.150E+05 1.150E+05 3.217E+07 33.8035 1.00000
  2.239E+11 2.239E+11 4.697E+00 1.047E+03 1.868E+04 1.116E+05 1.313E+05 1.313E+05 3.237E+07 34.0337 1.00000
  2.512E+11 2.512E+11 4.718E+00 1.175E+03 2.096E+04 1.278E+05 1.500E+05 1.500E+05 3.256E+07 34.2640 1.00000
  2.818E+11 2.818E+11 4.740E+00 1.319E+03 2.352E+04 1.465E+05 1.713E+05 1.713E+05 3.276E+07 34.4942 1.00000
  3.162E+11 3.162E+11 4.762E+00 1.480E+03 2.639E+04 1.678E+05 1.957E+05 1.957E+05 3.294E+07 34.7245 1.00000
  3.548E+11 3.548E+11 4.784E+00 1.661E+03 2.961E+04 1.923E+05 2.236E+05 2.236E+05 3.313E+07 34.9548 1.00000
  3.981E+11 3.981E+11 4.806E+00 1.864E+03 3.322E+04 2.203E+05 2.554E+05 2.554E+05 3.331E+07 35.1850 1.00000
  4.467E+11 4.467E+11 4.828E+00 2.092E+03 3.727E+04 2.525E+05 2.919E+05 2.919E+05 3.349E+07 35.4153 1.00000
  5.012E+11 5.012E+11 4.851E+00 2.348E+03 4.182E+04 2.894E+05 3.335E+05 3.335E+05 3.366E+07 35.6455 1.00000
  5.623E+11 5.623E+11 4.873E+00 2.635E+03 4.692E+04 3.316E+05 3.812E+05 3.812E+05 3.384E+07 35.8758 1.00000
  6.310E+11 6.310E+11 4.896E+00 2.956E+03 5.264E+04 3.801E+05 4.357E+05 4.357E+05 3.400E+07 36.1060 1.00000
  7.079E+11 7.079E+11 4.919E+00 3.318E+03 5.906E+04 4.357E+05 4.981E+05 4.981E+05 3.417E+07 36.3363 1.00000
  7.943E+11 7.943E+11 4.941E+00 3.723E+03 6.626E+04 4.994E+05 5.694E+05 5.694E+05 3.433E+07 36.5666 1.00000
  8.913E+11 8.913E+11 4.964E+00 4.177E+03 7.435E+04 5.725E+05 6.510E+05 6.510E+05 3.449E+07 36.7968 1.00000
  1.000E+12 1.000E+12 4.988E+00 4.687E+03 8.341E+04 6.563E+05 7.444E+05 7.444E+05 3.465E+07 37.0271 1.00000
  1.122E+12 1.122E+12 5.011E+00 5.260E+03 9.359E+04 7.524E+05 8.512E+05 8.512E+05 3.480E+07 37.2573 1.00000
  1.259E+12 1.259E+12 5.034E+00 5.902E+03 1.050E+05 8.626E+05 9.735E+05 9.735E+05 3.495E+07 37.4876 1.00000
  1.413E+12 1.413E+12 5.058E+00 6.623E+03 1.178E+05 9.890E+05 1.113E+06 1.113E+06 3.510E+07 37.7179 1.00000
  1.585E+12 1.585E+12 5.081E+00 7.431E+03 1.322E+05 1.134E+06 1.274E+06 1.274E+06 3.525E+07 37.9481 1.00000
  1.778E+12 1.778E+12 5.105E+00 8.338E+03 1.483E+05 1.300E+06 1.457E+06 1.457E+06 3.539E+07 38.1784 1.00000
  1.995E+12 1.995E+12 5.129E+00 9.356E+03 1.664E+05 1.491E+06 1.667E+06 1.667E+06 3.553E+07 38.4086 1.00000
  2.239E+12 2.239E+12 5.153E+00 1.050E+04 1.867E+05 1.710E+06 1.907E+06 1.907E+06 3.567E+07 38.6389 1.00000
  2.512E+12 2.512E+12 5.177E+00 1.178E+04 2.095E+05 1.961E+06 2.182E+06 2.182E+06 3.580E+07 38.8691 1.00000
  2.818E+12 2.818E+12 5.202E+00 1.322E+04 2.350E+05 2.249E+06 2.497E+06 2.497E+06 3.593E+07 39.0994 1.00000
  3.162E+12 3.162E+12 5.226E+00 1.483E+04 2.637E+05 2.580E+06 2.858E+06 2.858E+06 3.606E+07 39.3297 1.00000
  3.548E+12 3.548E+12 5.251E+00 1.664E+04 2.958E+05 2.959E+06 3.271E+06 3.271E+06 3.619E+07 39.5599 1.00000
  3.981E+12 3.981E+12 5.276E+00 1.867E+04 3.319E+05 3.394E+06 3.744E+06 3.744E+06 3.631E+07 39.7902 1.00000
  4.467E+12 4.467E+12 5.300E+00 2.095E+04 3.724E+05 3.893E+06 4.287E+06 4.287E+06 3.643E+07 40.0204 1.00000
  5.012E+12 5.012E+12 5.325E+00 2.351E+04 4.178E+05 4.466E+06 4.907E+06 4.908E+06 3.655E+07 40.2507 1.00000
  5.623E+12 5.623E+12 5.351E+00 2.638E+04 4.688E+05 5.124E+06 5.619E+06 5.619E+06 3.667E+07 40.4810 1.00000
  6.310E+12 6.310E+12 5.376E+00 2.959E+04 5.260E+05 5.878E+06 6.434E+06 6.434E+06 3.678E+07 40.7112 1.00000
  7.079E+12 7.079E+12 5.401E+00 3.321E+04 5.901E+05 6.745E+06 7.368E+06 7.368E+06 3.689E+07 40.9415 1.00000
  7.943E+12 7.943E+12 5.427E+00 3.726E+04 6.621E+05 7.739E+06 8.438E+06 8.438E+06 3.700E+07 41.1717 1.00000
  8.913E+12 8.913E+12 5.452E+00 4.180E+04 7.428E+05 8.880E+06 9.665E+06 9.665E+06 3.711E+07 41.4020 1.00000
  1.000E+13 1.000E+13 5.478E+00 4.691E+04 8.334E+05 1.019E+07 1.107E+07 1.107E+07 3.722E+07 41.6323 1.00000
  1.122E+13 1.122E+13 5.504E+00 5.263E+04 9.351E+05 1.169E+07 1.268E+07 1.268E+07 3.732E+07 41.8625 1.00000
  1.259E+13 1.259E+13 5.530E+00 5.905E+04 1.049E+06 1.342E+07 1.453E+07 1.453E+07 3.742E+07 42.0928 1.00000
  1.413E+13 1.413E+13 5.557E+00 6.626E+04 1.177E+06 1.540E+07 1.665E+07 1.665E+07 3.752E+07 42.3230 1.00000
  1.585E+13 1.585E+13 5.583E+00 7.434E+04 1.321E+06 1.768E+07 1.907E+07 1.907E+07 3.762E+07 42.5533 1.00000
  1.778E+13 1.778E+13 5.610E+00 8.342E+04 1.482E+06 2.029E+07 2.186E+07 2.186E+07 3.771E+07 42.7835 1.00000
  1.995E+13 1.995E+13 5.636E+00 9.359E+04 1.662E+06 2.329E+07 2.505E+07 2.505E+07 3.781E+07 43.0138 1.00000
  2.239E+13 2.239E+13 5.663E+00 1.050E+05 1.865E+06 2.674E+07 2.871E+07 2.871E+07 3.790E+07 43.2441 1.00000
  2.512E+13 2.512E+13 5.690E+00 1.178E+05 2.093E+06 3.069E+07 3.290E+07 3.290E+07 3.799E+07 43.4743 1.00000
  2.818E+13 2.818E+13 5.717E+00 1.322E+05 2.348E+06 3.523E+07 3.771E+07 3.771E+07 3.807E+07 43.7046 1.00000
  3.162E+13 3.162E+13 5.744E+00 1.483E+05 2.634E+06 4.045E+07 4.323E+07 4.323E+07 3.816E+07 43.9348 1.00000
  3.548E+13 3.548E+13 5.772E+00 1.664E+05 2.955E+06 4.644E+07 4.956E+07 4.956E+07 3.824E+07 44.1651 1.00000
  3.981E+13 3.981E+13 5.799E+00 1.867E+05 3.316E+06 5.332E+07 5.683E+07 5.683E+07 3.832E+07 44.3954 1.00000
  4.467E+13 4.467E+13 5.827E+00 2.095E+05 3.720E+06 6.123E+07 6.516E+07 6.516E+07 3.840E+07 44.6256 1.00000
  5.012E+13 5.012E+13 5.855E+00 2.351E+05 4.174E+06 7.031E+07 7.472E+07 7.472E+07 3.848E+07 44.8559 1.00000
  5.623E+13 5.623E+13 5.883E+00 2.638E+05 4.683E+06 8.074E+07 8.568E+07 8.568E+07 3.856E+07 45.0861 1.00000
  6.310E+13 6.310E+13 5.911E+00 2.960E+05 5.254E+06 9.272E+07 9.827E+07 9.827E+07 3.863E+07 45.3164 1.00000
  7.079E+13 7.079E+13 5.939E+00 3.321E+05 5.895E+06 1.065E+08 1.127E+08 1.127E+08 3.871E+07 45.5466 1.00000
  7.943E+13 7.943E+13 5.968E+00 3.726E+05 6.614E+06 1.223E+08 1.293E+08 1.293E+08 3.878E+07 45.7769 1.00000
  8.913E+13 8.913E+13 5.996E+00 4.181E+05 7.420E+06 1.405E+08 1.483E+08 1.483E+08 3.885E+07 46.0072 1.00000
