 Incident particle is a Tau with M = 1776.82000 MeV
 Index = 0: Ytterbium
      Absorber with <Z/A> = 0.40450
 Sternheimer coef:  a     k=m_s   x_0    x_1    I[eV]   Cbar  delta0
                 0.2530  2.5141  0.1144  3.6191  684.0  6.3071 0.14

 *** Table generated with PUMAS v1.00 ***

      T         p     Ionization  brems     pair     photonuc  Radloss    dE/dx   CSDA Range  delta   beta
    [MeV]    [MeV/c]  -----------------------[MeV cm^2/g]------------------------  [g/cm^2]
  1.000E+05 1.018E+05 1.612E+00 9.240E-04 1.627E-02 7.594E-03 2.479E-02 1.637E+00 3.055E+04  2.9946 0.99985
  1.122E+05 1.140E+05 1.631E+00 1.071E-03 1.948E-02 8.526E-03 2.908E-02 1.660E+00 3.795E+04  3.1426 0.99988
  1.259E+05 1.277E+05 1.651E+00 1.241E-03 2.326E-02 9.522E-03 3.402E-02 1.685E+00 4.613E+04  3.2940 0.99990
  1.413E+05 1.430E+05 1.670E+00 1.438E-03 2.769E-02 1.064E-02 3.977E-02 1.709E+00 5.519E+04  3.4488 0.99992
  1.585E+05 1.603E+05 1.689E+00 1.664E-03 3.288E-02 1.188E-02 4.643E-02 1.735E+00 6.519E+04  3.6069 0.99994
  1.778E+05 1.796E+05 1.707E+00 1.925E-03 3.895E-02 1.325E-02 5.413E-02 1.762E+00 7.626E+04  3.7682 0.99995
  1.995E+05 2.013E+05 1.726E+00 2.225E-03 4.604E-02 1.482E-02 6.308E-02 1.789E+00 8.848E+04  3.9328 0.99996
  2.239E+05 2.256E+05 1.745E+00 2.571E-03 5.428E-02 1.651E-02 7.337E-02 1.818E+00 1.020E+05  4.1005 0.99997
  2.512E+05 2.530E+05 1.763E+00 2.969E-03 6.387E-02 1.840E-02 8.524E-02 1.848E+00 1.169E+05  4.2713 0.99998
  2.818E+05 2.836E+05 1.781E+00 3.426E-03 7.498E-02 2.053E-02 9.893E-02 1.880E+00 1.333E+05  4.4451 0.99998
  3.162E+05 3.180E+05 1.799E+00 3.952E-03 8.785E-02 2.291E-02 1.147E-01 1.914E+00 1.515E+05  4.6219 0.99998
  3.548E+05 3.566E+05 1.817E+00 4.555E-03 1.027E-01 2.558E-02 1.329E-01 1.950E+00 1.714E+05  4.8016 0.99999
  3.981E+05 3.999E+05 1.834E+00 5.248E-03 1.199E-01 2.854E-02 1.537E-01 1.988E+00 1.934E+05  4.9841 0.99999
  4.467E+05 4.485E+05 1.852E+00 6.044E-03 1.397E-01 3.185E-02 1.776E-01 2.029E+00 2.176E+05  5.1694 0.99999
  5.012E+05 5.030E+05 1.869E+00 6.956E-03 1.624E-01 3.555E-02 2.050E-01 2.074E+00 2.442E+05  5.3575 0.99999
  5.623E+05 5.641E+05 1.886E+00 8.002E-03 1.886E-01 3.954E-02 2.362E-01 2.122E+00 2.733E+05  5.5482 1.00000
  6.310E+05 6.327E+05 1.903E+00 9.200E-03 2.186E-01 4.403E-02 2.719E-01 2.175E+00 3.053E+05  5.7415 1.00000
  7.079E+05 7.097E+05 1.919E+00 1.057E-02 2.531E-01 4.908E-02 3.127E-01 2.232E+00 3.402E+05  5.9374 1.00000
  7.943E+05 7.961E+05 1.936E+00 1.214E-02 2.924E-01 5.476E-02 3.594E-01 2.295E+00 3.784E+05  6.1357 1.00000
  8.913E+05 8.930E+05 1.952E+00 1.394E-02 3.375E-01 6.116E-02 4.126E-01 2.365E+00 4.200E+05  6.3364 1.00000
  1.000E+06 1.002E+06 1.968E+00 1.600E-02 3.889E-01 6.839E-02 4.733E-01 2.441E+00 4.653E+05  6.5395 1.00000
  1.122E+06 1.124E+06 1.984E+00 1.835E-02 4.476E-01 7.655E-02 5.425E-01 2.526E+00 5.144E+05  6.7449 1.00000
  1.259E+06 1.261E+06 1.999E+00 2.104E-02 5.145E-01 8.577E-02 6.213E-01 2.621E+00 5.676E+05  6.9524 1.00000
  1.413E+06 1.414E+06 2.015E+00 2.411E-02 5.906E-01 9.620E-02 7.109E-01 2.726E+00 6.251E+05  7.1621 1.00000
  1.585E+06 1.587E+06 2.030E+00 2.762E-02 6.772E-01 1.080E-01 8.129E-01 2.843E+00 6.870E+05  7.3739 1.00000
  1.778E+06 1.780E+06 2.045E+00 3.163E-02 7.756E-01 1.214E-01 9.286E-01 2.974E+00 7.536E+05  7.5876 1.00000
  1.995E+06 1.997E+06 2.060E+00 3.620E-02 8.873E-01 1.366E-01 1.060E+00 3.120E+00 8.248E+05  7.8032 1.00000
  2.239E+06 2.240E+06 2.074E+00 4.142E-02 1.014E+00 1.538E-01 1.209E+00 3.283E+00 9.009E+05  8.0207 1.00000
  2.512E+06 2.514E+06 2.088E+00 4.737E-02 1.158E+00 1.733E-01 1.378E+00 3.467E+00 9.819E+05  8.2398 1.00000
  2.818E+06 2.820E+06 2.102E+00 5.416E-02 1.320E+00 1.955E-01 1.570E+00 3.672E+00 1.068E+06  8.4607 1.00000
  3.162E+06 3.164E+06 2.116E+00 6.189E-02 1.504E+00 2.206E-01 1.787E+00 3.903E+00 1.159E+06  8.6830 1.00000
  3.548E+06 3.550E+06 2.130E+00 7.070E-02 1.713E+00 2.493E-01 2.033E+00 4.163E+00 1.255E+06  8.9069 1.00000
  3.981E+06 3.983E+06 2.143E+00 8.074E-02 1.948E+00 2.818E-01 2.311E+00 4.454E+00 1.355E+06  9.1320 1.00000
  4.467E+06 4.469E+06 2.157E+00 9.216E-02 2.214E+00 3.188E-01 2.625E+00 4.782E+00 1.460E+06  9.3584 1.00000
  5.012E+06 5.014E+06 2.170E+00 1.052E-01 2.515E+00 3.609E-01 2.981E+00 5.150E+00 1.570E+06  9.5860 1.00000
  5.623E+06 5.625E+06 2.182E+00 1.200E-01 2.853E+00 4.088E-01 3.382E+00 5.565E+00 1.685E+06  9.8145 1.00000
  6.310E+06 6.311E+06 2.195E+00 1.368E-01 3.236E+00 4.634E-01 3.836E+00 6.031E+00 1.803E+06 10.0438 1.00000
  7.079E+06 7.081E+06 2.208E+00 1.559E-01 3.667E+00 5.255E-01 4.348E+00 6.556E+00 1.926E+06 10.2737 1.00000
  7.943E+06 7.945E+06 2.220E+00 1.777E-01 4.153E+00 5.963E-01 4.927E+00 7.147E+00 2.052E+06 10.5039 1.00000
  8.913E+06 8.914E+06 2.232E+00 2.024E-01 4.700E+00 6.769E-01 5.580E+00 7.812E+00 2.182E+06 10.7341 1.00000
  1.000E+07 1.000E+07 2.244E+00 2.305E-01 5.317E+00 7.688E-01 6.316E+00 8.560E+00 2.315E+06 10.9643 1.00000
  1.122E+07 1.122E+07 2.256E+00 2.623E-01 6.011E+00 8.734E-01 7.147E+00 9.403E+00 2.451E+06 11.1945 1.00000
  1.259E+07 1.259E+07 2.268E+00 2.985E-01 6.792E+00 9.928E-01 8.084E+00 1.035E+01 2.590E+06 11.4247 1.00000
  1.413E+07 1.413E+07 2.280E+00 3.396E-01 7.672E+00 1.129E+00 9.140E+00 1.142E+01 2.732E+06 11.6550 1.00000
  1.585E+07 1.585E+07 2.292E+00 3.862E-01 8.661E+00 1.284E+00 1.033E+01 1.262E+01 2.875E+06 11.8852 1.00000
  1.778E+07 1.778E+07 2.303E+00 4.390E-01 9.773E+00 1.461E+00 1.167E+01 1.398E+01 3.021E+06 12.1154 1.00000
  1.995E+07 1.995E+07 2.315E+00 4.989E-01 1.102E+01 1.663E+00 1.319E+01 1.550E+01 3.169E+06 12.3457 1.00000
  2.239E+07 2.239E+07 2.326E+00 5.667E-01 1.243E+01 1.893E+00 1.489E+01 1.722E+01 3.318E+06 12.5759 1.00000
  2.512E+07 2.512E+07 2.338E+00 6.436E-01 1.401E+01 2.155E+00 1.681E+01 1.915E+01 3.469E+06 12.8061 1.00000
  2.818E+07 2.819E+07 2.349E+00 7.307E-01 1.579E+01 2.455E+00 1.897E+01 2.132E+01 3.621E+06 13.0364 1.00000
  3.162E+07 3.162E+07 2.360E+00 8.293E-01 1.778E+01 2.797E+00 2.141E+01 2.377E+01 3.774E+06 13.2666 1.00000
  3.548E+07 3.548E+07 2.372E+00 9.409E-01 2.003E+01 3.187E+00 2.415E+01 2.653E+01 3.927E+06 13.4969 1.00000
  3.981E+07 3.981E+07 2.383E+00 1.067E+00 2.255E+01 3.632E+00 2.725E+01 2.963E+01 4.082E+06 13.7271 1.00000
  4.467E+07 4.467E+07 2.394E+00 1.210E+00 2.538E+01 4.140E+00 3.073E+01 3.312E+01 4.237E+06 13.9574 1.00000
  5.012E+07 5.012E+07 2.405E+00 1.371E+00 2.856E+01 4.720E+00 3.465E+01 3.705E+01 4.393E+06 14.1876 1.00000
  5.623E+07 5.624E+07 2.417E+00 1.554E+00 3.213E+01 5.382E+00 3.906E+01 4.148E+01 4.549E+06 14.4179 1.00000
  6.310E+07 6.310E+07 2.428E+00 1.760E+00 3.613E+01 6.138E+00 4.403E+01 4.646E+01 4.706E+06 14.6481 1.00000
  7.079E+07 7.080E+07 2.439E+00 1.993E+00 4.064E+01 7.001E+00 4.963E+01 5.207E+01 4.863E+06 14.8784 1.00000
  7.943E+07 7.943E+07 2.450E+00 2.257E+00 4.569E+01 7.987E+00 5.593E+01 5.838E+01 5.020E+06 15.1086 1.00000
  8.913E+07 8.913E+07 2.462E+00 2.554E+00 5.136E+01 9.112E+00 6.303E+01 6.549E+01 5.177E+06 15.3389 1.00000
  1.000E+08 1.000E+08 2.473E+00 2.889E+00 5.773E+01 1.040E+01 7.102E+01 7.349E+01 5.334E+06 15.5691 1.00000
  1.122E+08 1.122E+08 2.484E+00 3.268E+00 6.489E+01 1.186E+01 8.002E+01 8.250E+01 5.491E+06 15.7994 1.00000
  1.259E+08 1.259E+08 2.495E+00 3.695E+00 7.291E+01 1.354E+01 9.015E+01 9.264E+01 5.648E+06 16.0296 1.00000
  1.413E+08 1.413E+08 2.507E+00 4.177E+00 8.192E+01 1.545E+01 1.016E+02 1.041E+02 5.804E+06 16.2599 1.00000
  1.585E+08 1.585E+08 2.518E+00 4.720E+00 9.204E+01 1.764E+01 1.144E+02 1.169E+02 5.961E+06 16.4902 1.00000
  1.778E+08 1.778E+08 2.530E+00 5.332E+00 1.034E+02 2.014E+01 1.289E+02 1.314E+02 6.117E+06 16.7204 1.00000
  1.995E+08 1.995E+08 2.541E+00 6.021E+00 1.161E+02 2.299E+01 1.451E+02 1.477E+02 6.273E+06 16.9507 1.00000
  2.239E+08 2.239E+08 2.553E+00 6.799E+00 1.304E+02 2.625E+01 1.635E+02 1.660E+02 6.429E+06 17.1809 1.00000
  2.512E+08 2.512E+08 2.564E+00 7.674E+00 1.465E+02 2.997E+01 1.841E+02 1.867E+02 6.584E+06 17.4112 1.00000
  2.818E+08 2.818E+08 2.576E+00 8.660E+00 1.645E+02 3.423E+01 2.074E+02 2.099E+02 6.739E+06 17.6414 1.00000
  3.162E+08 3.162E+08 2.588E+00 9.770E+00 1.847E+02 3.909E+01 2.335E+02 2.361E+02 6.894E+06 17.8717 1.00000
  3.548E+08 3.548E+08 2.599E+00 1.102E+01 2.074E+02 4.464E+01 2.630E+02 2.656E+02 7.048E+06 18.1020 1.00000
  3.981E+08 3.981E+08 2.611E+00 1.242E+01 2.328E+02 5.099E+01 2.962E+02 2.988E+02 7.202E+06 18.3322 1.00000
  4.467E+08 4.467E+08 2.623E+00 1.401E+01 2.614E+02 5.824E+01 3.336E+02 3.363E+02 7.356E+06 18.5625 1.00000
  5.012E+08 5.012E+08 2.635E+00 1.579E+01 2.934E+02 6.653E+01 3.758E+02 3.784E+02 7.509E+06 18.7927 1.00000
  5.623E+08 5.623E+08 2.647E+00 1.779E+01 3.294E+02 7.601E+01 4.232E+02 4.258E+02 7.662E+06 19.0230 1.00000
  6.310E+08 6.310E+08 2.659E+00 2.004E+01 3.698E+02 8.683E+01 4.766E+02 4.793E+02 7.814E+06 19.2532 1.00000
  7.079E+08 7.079E+08 2.671E+00 2.257E+01 4.150E+02 9.921E+01 5.368E+02 5.395E+02 7.965E+06 19.4835 1.00000
  7.943E+08 7.943E+08 2.683E+00 2.542E+01 4.658E+02 1.134E+02 6.046E+02 6.073E+02 8.117E+06 19.7138 1.00000
  8.913E+08 8.913E+08 2.695E+00 2.862E+01 5.229E+02 1.295E+02 6.810E+02 6.837E+02 8.267E+06 19.9440 1.00000
  1.000E+09 1.000E+09 2.708E+00 3.221E+01 5.868E+02 1.480E+02 7.671E+02 7.698E+02 8.417E+06 20.1743 1.00000
  1.122E+09 1.122E+09 2.720E+00 3.625E+01 6.586E+02 1.692E+02 8.640E+02 8.668E+02 8.567E+06 20.4045 1.00000
  1.259E+09 1.259E+09 2.732E+00 4.079E+01 7.392E+02 1.933E+02 9.733E+02 9.760E+02 8.716E+06 20.6348 1.00000
  1.413E+09 1.413E+09 2.745E+00 4.589E+01 8.296E+02 2.210E+02 1.096E+03 1.099E+03 8.865E+06 20.8650 1.00000
  1.585E+09 1.585E+09 2.757E+00 5.162E+01 9.310E+02 2.526E+02 1.235E+03 1.238E+03 9.013E+06 21.0953 1.00000
  1.778E+09 1.778E+09 2.770E+00 5.806E+01 1.045E+03 2.887E+02 1.392E+03 1.394E+03 9.160E+06 21.3256 1.00000
  1.995E+09 1.995E+09 2.783E+00 6.529E+01 1.172E+03 3.300E+02 1.568E+03 1.571E+03 9.307E+06 21.5558 1.00000
  2.239E+09 2.239E+09 2.795E+00 7.341E+01 1.316E+03 3.773E+02 1.766E+03 1.769E+03 9.453E+06 21.7861 1.00000
  2.512E+09 2.512E+09 2.808E+00 8.253E+01 1.476E+03 4.313E+02 1.990E+03 1.993E+03 9.599E+06 22.0163 1.00000
  2.818E+09 2.818E+09 2.821E+00 9.277E+01 1.657E+03 4.931E+02 2.243E+03 2.246E+03 9.744E+06 22.2466 1.00000
  3.162E+09 3.162E+09 2.834E+00 1.043E+02 1.859E+03 5.639E+02 2.527E+03 2.530E+03 9.889E+06 22.4769 1.00000
  3.548E+09 3.548E+09 2.847E+00 1.172E+02 2.086E+03 6.447E+02 2.848E+03 2.851E+03 1.003E+07 22.7071 1.00000
  3.981E+09 3.981E+09 2.860E+00 1.317E+02 2.341E+03 7.373E+02 3.210E+03 3.213E+03 1.018E+07 22.9374 1.00000
  4.467E+09 4.467E+09 2.873E+00 1.480E+02 2.627E+03 8.431E+02 3.618E+03 3.621E+03 1.032E+07 23.1676 1.00000
  5.012E+09 5.012E+09 2.886E+00 1.662E+02 2.948E+03 9.642E+02 4.078E+03 4.081E+03 1.046E+07 23.3979 1.00000
  5.623E+09 5.623E+09 2.900E+00 1.867E+02 3.307E+03 1.103E+03 4.597E+03 4.600E+03 1.060E+07 23.6281 1.00000
  6.310E+09 6.310E+09 2.913E+00 2.097E+02 3.711E+03 1.261E+03 5.182E+03 5.185E+03 1.074E+07 23.8584 1.00000
  7.079E+09 7.079E+09 2.927E+00 2.356E+02 4.164E+03 1.443E+03 5.842E+03 5.845E+03 1.088E+07 24.0887 1.00000
  7.943E+09 7.943E+09 2.940E+00 2.646E+02 4.672E+03 1.650E+03 6.587E+03 6.590E+03 1.102E+07 24.3189 1.00000
  8.913E+09 8.913E+09 2.954E+00 2.971E+02 5.243E+03 1.888E+03 7.428E+03 7.430E+03 1.116E+07 24.5492 1.00000
  1.000E+10 1.000E+10 2.967E+00 3.337E+02 5.883E+03 2.159E+03 8.376E+03 8.379E+03 1.130E+07 24.7794 1.00000
  1.122E+10 1.122E+10 2.981E+00 3.747E+02 6.601E+03 2.471E+03 9.446E+03 9.449E+03 1.144E+07 25.0097 1.00000
  1.259E+10 1.259E+10 2.995E+00 4.207E+02 7.406E+03 2.827E+03 1.065E+04 1.066E+04 1.157E+07 25.2400 1.00000
  1.413E+10 1.413E+10 3.009E+00 4.723E+02 8.310E+03 3.234E+03 1.202E+04 1.202E+04 1.171E+07 25.4702 1.00000
  1.585E+10 1.585E+10 3.023E+00 5.303E+02 9.324E+03 3.700E+03 1.355E+04 1.356E+04 1.184E+07 25.7005 1.00000
  1.778E+10 1.778E+10 3.037E+00 5.953E+02 1.046E+04 4.234E+03 1.529E+04 1.529E+04 1.198E+07 25.9307 1.00000
  1.995E+10 1.995E+10 3.051E+00 6.683E+02 1.174E+04 4.846E+03 1.725E+04 1.726E+04 1.211E+07 26.1610 1.00000
  2.239E+10 2.239E+10 3.065E+00 7.502E+02 1.317E+04 5.545E+03 1.947E+04 1.947E+04 1.225E+07 26.3913 1.00000
  2.512E+10 2.512E+10 3.080E+00 8.421E+02 1.478E+04 6.346E+03 2.197E+04 2.197E+04 1.238E+07 26.6215 1.00000
  2.818E+10 2.818E+10 3.094E+00 9.452E+02 1.658E+04 7.264E+03 2.479E+04 2.479E+04 1.251E+07 26.8518 1.00000
  3.162E+10 3.162E+10 3.109E+00 1.061E+03 1.860E+04 8.314E+03 2.798E+04 2.798E+04 1.264E+07 27.0820 1.00000
  3.548E+10 3.548E+10 3.123E+00 1.191E+03 2.087E+04 9.516E+03 3.158E+04 3.158E+04 1.277E+07 27.3123 1.00000
  3.981E+10 3.981E+10 3.138E+00 1.336E+03 2.342E+04 1.089E+04 3.565E+04 3.565E+04 1.290E+07 27.5425 1.00000
  4.467E+10 4.467E+10 3.153E+00 1.500E+03 2.628E+04 1.247E+04 4.025E+04 4.025E+04 1.303E+07 27.7728 1.00000
  5.012E+10 5.012E+10 3.167E+00 1.683E+03 2.948E+04 1.428E+04 4.544E+04 4.545E+04 1.316E+07 28.0031 1.00000
  5.623E+10 5.623E+10 3.182E+00 1.889E+03 3.308E+04 1.635E+04 5.132E+04 5.132E+04 1.328E+07 28.2333 1.00000
  6.310E+10 6.310E+10 3.197E+00 2.120E+03 3.712E+04 1.871E+04 5.795E+04 5.795E+04 1.341E+07 28.4636 1.00000
  7.079E+10 7.079E+10 3.212E+00 2.380E+03 4.165E+04 2.143E+04 6.545E+04 6.546E+04 1.353E+07 28.6938 1.00000
  7.943E+10 7.943E+10 3.228E+00 2.670E+03 4.673E+04 2.454E+04 7.393E+04 7.394E+04 1.366E+07 28.9241 1.00000
  8.913E+10 8.913E+10 3.243E+00 2.997E+03 5.243E+04 2.810E+04 8.352E+04 8.352E+04 1.378E+07 29.1544 1.00000
  1.000E+11 1.000E+11 3.258E+00 3.363E+03 5.882E+04 3.218E+04 9.436E+04 9.436E+04 1.390E+07 29.3846 1.00000
  1.122E+11 1.122E+11 3.274E+00 3.774E+03 6.600E+04 3.685E+04 1.066E+05 1.066E+05 1.403E+07 29.6149 1.00000
  1.259E+11 1.259E+11 3.289E+00 4.235E+03 7.405E+04 4.220E+04 1.205E+05 1.205E+05 1.415E+07 29.8451 1.00000
  1.413E+11 1.413E+11 3.305E+00 4.752E+03 8.308E+04 4.834E+04 1.362E+05 1.362E+05 1.427E+07 30.0754 1.00000
  1.585E+11 1.585E+11 3.320E+00 5.332E+03 9.322E+04 5.537E+04 1.539E+05 1.539E+05 1.439E+07 30.3056 1.00000
  1.778E+11 1.778E+11 3.336E+00 5.983E+03 1.046E+05 6.342E+04 1.740E+05 1.740E+05 1.451E+07 30.5359 1.00000
  1.995E+11 1.995E+11 3.352E+00 6.714E+03 1.173E+05 7.266E+04 1.967E+05 1.967E+05 1.462E+07 30.7662 1.00000
  2.239E+11 2.239E+11 3.368E+00 7.534E+03 1.317E+05 8.323E+04 2.224E+05 2.224E+05 1.474E+07 30.9964 1.00000
  2.512E+11 2.512E+11 3.384E+00 8.454E+03 1.477E+05 9.536E+04 2.515E+05 2.515E+05 1.486E+07 31.2267 1.00000
  2.818E+11 2.818E+11 3.400E+00 9.486E+03 1.657E+05 1.093E+05 2.845E+05 2.845E+05 1.497E+07 31.4569 1.00000
  3.162E+11 3.162E+11 3.416E+00 1.064E+04 1.860E+05 1.252E+05 3.218E+05 3.218E+05 1.508E+07 31.6872 1.00000
  3.548E+11 3.548E+11 3.433E+00 1.194E+04 2.086E+05 1.434E+05 3.640E+05 3.640E+05 1.520E+07 31.9175 1.00000
  3.981E+11 3.981E+11 3.449E+00 1.340E+04 2.341E+05 1.644E+05 4.119E+05 4.119E+05 1.531E+07 32.1477 1.00000
  4.467E+11 4.467E+11 3.465E+00 1.504E+04 2.627E+05 1.884E+05 4.660E+05 4.660E+05 1.542E+07 32.3780 1.00000
  5.012E+11 5.012E+11 3.482E+00 1.687E+04 2.947E+05 2.159E+05 5.274E+05 5.274E+05 1.553E+07 32.6082 1.00000
  5.623E+11 5.623E+11 3.499E+00 1.893E+04 3.306E+05 2.474E+05 5.970E+05 5.970E+05 1.564E+07 32.8385 1.00000
  6.310E+11 6.310E+11 3.515E+00 2.124E+04 3.710E+05 2.835E+05 6.758E+05 6.758E+05 1.575E+07 33.0687 1.00000
  7.079E+11 7.079E+11 3.532E+00 2.384E+04 4.162E+05 3.250E+05 7.650E+05 7.651E+05 1.585E+07 33.2990 1.00000
  7.943E+11 7.943E+11 3.549E+00 2.674E+04 4.670E+05 3.725E+05 8.663E+05 8.663E+05 1.596E+07 33.5293 1.00000
  8.913E+11 8.913E+11 3.566E+00 3.001E+04 5.240E+05 4.270E+05 9.810E+05 9.810E+05 1.607E+07 33.7595 1.00000
  1.000E+12 1.000E+12 3.583E+00 3.367E+04 5.879E+05 4.895E+05 1.111E+06 1.111E+06 1.617E+07 33.9898 1.00000
  1.122E+12 1.122E+12 3.601E+00 3.778E+04 6.596E+05 5.612E+05 1.259E+06 1.259E+06 1.627E+07 34.2200 1.00000
  1.259E+12 1.259E+12 3.618E+00 4.239E+04 7.400E+05 6.434E+05 1.426E+06 1.426E+06 1.638E+07 34.4503 1.00000
  1.413E+12 1.413E+12 3.635E+00 4.756E+04 8.303E+05 7.377E+05 1.616E+06 1.616E+06 1.648E+07 34.6806 1.00000
  1.585E+12 1.585E+12 3.653E+00 5.337E+04 9.316E+05 8.459E+05 1.831E+06 1.831E+06 1.658E+07 34.9108 1.00000
  1.778E+12 1.778E+12 3.671E+00 5.988E+04 1.045E+06 9.699E+05 2.075E+06 2.075E+06 1.668E+07 35.1411 1.00000
  1.995E+12 1.995E+12 3.688E+00 6.719E+04 1.173E+06 1.112E+06 2.352E+06 2.352E+06 1.678E+07 35.3713 1.00000
  2.239E+12 2.239E+12 3.706E+00 7.539E+04 1.316E+06 1.275E+06 2.667E+06 2.667E+06 1.687E+07 35.6016 1.00000
  2.512E+12 2.512E+12 3.724E+00 8.458E+04 1.476E+06 1.463E+06 3.024E+06 3.024E+06 1.697E+07 35.8318 1.00000
  2.818E+12 2.818E+12 3.742E+00 9.491E+04 1.656E+06 1.678E+06 3.429E+06 3.429E+06 1.707E+07 36.0621 1.00000
  3.162E+12 3.162E+12 3.760E+00 1.065E+05 1.858E+06 1.924E+06 3.889E+06 3.889E+06 1.716E+07 36.2924 1.00000
  3.548E+12 3.548E+12 3.778E+00 1.195E+05 2.085E+06 2.207E+06 4.411E+06 4.411E+06 1.725E+07 36.5226 1.00000
  3.981E+12 3.981E+12 3.797E+00 1.341E+05 2.339E+06 2.532E+06 5.005E+06 5.005E+06 1.735E+07 36.7529 1.00000
  4.467E+12 4.467E+12 3.815E+00 1.504E+05 2.624E+06 2.904E+06 5.679E+06 5.679E+06 1.744E+07 36.9831 1.00000
  5.012E+12 5.012E+12 3.834E+00 1.688E+05 2.945E+06 3.331E+06 6.445E+06 6.445E+06 1.753E+07 37.2134 1.00000
  5.623E+12 5.623E+12 3.852E+00 1.894E+05 3.304E+06 3.822E+06 7.315E+06 7.315E+06 1.762E+07 37.4437 1.00000
  6.310E+12 6.310E+12 3.871E+00 2.125E+05 3.707E+06 4.385E+06 8.304E+06 8.304E+06 1.770E+07 37.6739 1.00000
  7.079E+12 7.079E+12 3.890E+00 2.384E+05 4.159E+06 5.031E+06 9.428E+06 9.428E+06 1.779E+07 37.9042 1.00000
  7.943E+12 7.943E+12 3.909E+00 2.675E+05 4.666E+06 5.773E+06 1.071E+07 1.071E+07 1.788E+07 38.1344 1.00000
  8.913E+12 8.913E+12 3.928E+00 3.001E+05 5.235E+06 6.624E+06 1.216E+07 1.216E+07 1.796E+07 38.3647 1.00000
  1.000E+13 1.000E+13 3.947E+00 3.368E+05 5.874E+06 7.601E+06 1.381E+07 1.381E+07 1.805E+07 38.5950 1.00000
  1.122E+13 1.122E+13 3.966E+00 3.778E+05 6.590E+06 8.723E+06 1.569E+07 1.569E+07 1.813E+07 38.8252 1.00000
  1.259E+13 1.259E+13 3.985E+00 4.240E+05 7.394E+06 1.001E+07 1.783E+07 1.783E+07 1.821E+07 39.0555 1.00000
  1.413E+13 1.413E+13 4.005E+00 4.757E+05 8.295E+06 1.149E+07 2.026E+07 2.026E+07 1.829E+07 39.2857 1.00000
  1.585E+13 1.585E+13 4.024E+00 5.337E+05 9.307E+06 1.319E+07 2.303E+07 2.303E+07 1.837E+07 39.5160 1.00000
  1.778E+13 1.778E+13 4.044E+00 5.988E+05 1.044E+07 1.514E+07 2.618E+07 2.618E+07 1.845E+07 39.7462 1.00000
  1.995E+13 1.995E+13 4.064E+00 6.719E+05 1.172E+07 1.737E+07 2.976E+07 2.976E+07 1.853E+07 39.9765 1.00000
  2.239E+13 2.239E+13 4.084E+00 7.539E+05 1.314E+07 1.994E+07 3.384E+07 3.384E+07 1.861E+07 40.2068 1.00000
  2.512E+13 2.512E+13 4.104E+00 8.459E+05 1.475E+07 2.289E+07 3.849E+07 3.849E+07 1.868E+07 40.4370 1.00000
  2.818E+13 2.818E+13 4.124E+00 9.491E+05 1.655E+07 2.628E+07 4.378E+07 4.378E+07 1.876E+07 40.6673 1.00000
  3.162E+13 3.162E+13 4.144E+00 1.065E+06 1.856E+07 3.017E+07 4.980E+07 4.980E+07 1.883E+07 40.8975 1.00000
  3.548E+13 3.548E+13 4.164E+00 1.195E+06 2.083E+07 3.464E+07 5.667E+07 5.667E+07 1.890E+07 41.1278 1.00000
  3.981E+13 3.981E+13 4.185E+00 1.341E+06 2.337E+07 3.978E+07 6.449E+07 6.449E+07 1.898E+07 41.3581 1.00000
  4.467E+13 4.467E+13 4.205E+00 1.504E+06 2.622E+07 4.567E+07 7.340E+07 7.340E+07 1.905E+07 41.5883 1.00000
  5.012E+13 5.012E+13 4.226E+00 1.688E+06 2.942E+07 5.245E+07 8.355E+07 8.355E+07 1.912E+07 41.8186 1.00000
  5.623E+13 5.623E+13 4.246E+00 1.894E+06 3.300E+07 6.023E+07 9.512E+07 9.512E+07 1.919E+07 42.0488 1.00000
  6.310E+13 6.310E+13 4.267E+00 2.125E+06 3.703E+07 6.916E+07 1.083E+08 1.083E+08 1.925E+07 42.2791 1.00000
  7.079E+13 7.079E+13 4.288E+00 2.384E+06 4.154E+07 7.943E+07 1.234E+08 1.234E+08 1.932E+07 42.5093 1.00000
  7.943E+13 7.943E+13 4.309E+00 2.675E+06 4.661E+07 9.123E+07 1.405E+08 1.405E+08 1.939E+07 42.7396 1.00000
  8.913E+13 8.913E+13 4.330E+00 3.001E+06 5.229E+07 1.048E+08 1.601E+08 1.601E+08 1.945E+07 42.9699 1.00000
