 Incident particle is a Tau with M = 1776.82000 MeV
 Index = 0: YttriumSiliconOxide
      Absorber with <Z/A> = 0.46171
 Sternheimer coef:  a     k=m_s   x_0    x_1    I[eV]   Cbar  delta0
                 0.1696  3.0000  0.2000  3.0000  258.1  4.6447 0.00

 *** Table generated with PUMAS v1.00 ***

      T         p     Ionization  brems     pair     photonuc  Radloss    dE/dx   CSDA Range  delta   beta
    [MeV]    [MeV/c]  -----------------------[MeV cm^2/g]------------------------  [g/cm^2]
  1.000E+05 1.018E+05 1.923E+00 4.361E-04 7.275E-03 7.945E-03 1.566E-02 1.939E+00 2.579E+04  3.7759 0.99985
  1.122E+05 1.140E+05 1.942E+00 5.049E-04 8.725E-03 8.945E-03 1.818E-02 1.960E+00 3.205E+04  3.9653 0.99988
  1.259E+05 1.277E+05 1.961E+00 5.842E-04 1.043E-02 1.002E-02 2.104E-02 1.982E+00 3.900E+04  4.1580 0.99990
  1.413E+05 1.430E+05 1.980E+00 6.757E-04 1.244E-02 1.122E-02 2.434E-02 2.004E+00 4.671E+04  4.3538 0.99992
  1.585E+05 1.603E+05 1.999E+00 7.810E-04 1.479E-02 1.257E-02 2.814E-02 2.027E+00 5.526E+04  4.5526 0.99994
  1.778E+05 1.796E+05 2.017E+00 9.022E-04 1.755E-02 1.407E-02 3.251E-02 2.050E+00 6.474E+04  4.7543 0.99995
  1.995E+05 2.013E+05 2.036E+00 1.042E-03 2.076E-02 1.577E-02 3.757E-02 2.073E+00 7.527E+04  4.9587 0.99996
  2.239E+05 2.256E+05 2.054E+00 1.202E-03 2.451E-02 1.762E-02 4.334E-02 2.097E+00 8.695E+04  5.1656 0.99997
  2.512E+05 2.530E+05 2.072E+00 1.387E-03 2.887E-02 1.970E-02 4.996E-02 2.122E+00 9.989E+04  5.3750 0.99998
  2.818E+05 2.836E+05 2.090E+00 1.598E-03 3.394E-02 2.203E-02 5.757E-02 2.148E+00 1.143E+05  5.5867 0.99998
  3.162E+05 3.180E+05 2.108E+00 1.842E-03 3.981E-02 2.466E-02 6.632E-02 2.174E+00 1.302E+05  5.8005 0.99998
  3.548E+05 3.566E+05 2.126E+00 2.121E-03 4.661E-02 2.761E-02 7.634E-02 2.202E+00 1.478E+05  6.0163 0.99999
  3.981E+05 3.999E+05 2.143E+00 2.441E-03 5.447E-02 3.089E-02 8.780E-02 2.231E+00 1.673E+05  6.2341 0.99999
  4.467E+05 4.485E+05 2.161E+00 2.809E-03 6.354E-02 3.456E-02 1.009E-01 2.262E+00 1.890E+05  6.4535 0.99999
  5.012E+05 5.030E+05 2.178E+00 3.230E-03 7.399E-02 3.868E-02 1.159E-01 2.294E+00 2.129E+05  6.6746 0.99999
  5.623E+05 5.641E+05 2.195E+00 3.712E-03 8.601E-02 4.313E-02 1.329E-01 2.328E+00 2.394E+05  6.8971 1.00000
  6.310E+05 6.327E+05 2.212E+00 4.265E-03 9.983E-02 4.815E-02 1.522E-01 2.365E+00 2.686E+05  7.1210 1.00000
  7.079E+05 7.097E+05 2.229E+00 4.897E-03 1.157E-01 5.380E-02 1.744E-01 2.404E+00 3.009E+05  7.3461 1.00000
  7.943E+05 7.961E+05 2.246E+00 5.621E-03 1.339E-01 6.017E-02 1.997E-01 2.446E+00 3.365E+05  7.5723 1.00000
  8.913E+05 8.930E+05 2.263E+00 6.449E-03 1.547E-01 6.736E-02 2.285E-01 2.491E+00 3.758E+05  7.7994 1.00000
  1.000E+06 1.002E+06 2.279E+00 7.396E-03 1.785E-01 7.548E-02 2.614E-01 2.541E+00 4.190E+05  8.0273 1.00000
  1.122E+06 1.124E+06 2.296E+00 8.479E-03 2.057E-01 8.467E-02 2.989E-01 2.594E+00 4.666E+05  8.2559 1.00000
  1.259E+06 1.261E+06 2.312E+00 9.716E-03 2.368E-01 9.506E-02 3.416E-01 2.653E+00 5.187E+05  8.4851 1.00000
  1.413E+06 1.414E+06 2.328E+00 1.113E-02 2.722E-01 1.068E-01 3.901E-01 2.718E+00 5.759E+05  8.7146 1.00000
  1.585E+06 1.587E+06 2.344E+00 1.274E-02 3.125E-01 1.202E-01 4.454E-01 2.789E+00 6.385E+05  8.9445 1.00000
  1.778E+06 1.780E+06 2.360E+00 1.459E-02 3.584E-01 1.353E-01 5.083E-01 2.868E+00 7.069E+05  9.1744 1.00000
  1.995E+06 1.997E+06 2.376E+00 1.669E-02 4.105E-01 1.524E-01 5.797E-01 2.955E+00 7.815E+05  9.4045 1.00000
  2.239E+06 2.240E+06 2.391E+00 1.909E-02 4.698E-01 1.719E-01 6.608E-01 3.052E+00 8.625E+05  9.6346 1.00000
  2.512E+06 2.514E+06 2.407E+00 2.183E-02 5.370E-01 1.940E-01 7.529E-01 3.160E+00 9.505E+05  9.8646 1.00000
  2.818E+06 2.820E+06 2.422E+00 2.495E-02 6.133E-01 2.191E-01 8.573E-01 3.280E+00 1.046E+06 10.0947 1.00000
  3.162E+06 3.164E+06 2.437E+00 2.850E-02 6.997E-01 2.477E-01 9.758E-01 3.413E+00 1.149E+06 10.3249 1.00000
  3.548E+06 3.550E+06 2.453E+00 3.256E-02 7.975E-01 2.801E-01 1.110E+00 3.563E+00 1.259E+06 10.5550 1.00000
  3.981E+06 3.983E+06 2.467E+00 3.717E-02 9.082E-01 3.170E-01 1.262E+00 3.730E+00 1.378E+06 10.7852 1.00000
  4.467E+06 4.469E+06 2.482E+00 4.243E-02 1.033E+00 3.590E-01 1.435E+00 3.917E+00 1.505E+06 11.0153 1.00000
  5.012E+06 5.014E+06 2.497E+00 4.842E-02 1.175E+00 4.068E-01 1.630E+00 4.127E+00 1.641E+06 11.2455 1.00000
  5.623E+06 5.625E+06 2.511E+00 5.523E-02 1.335E+00 4.612E-01 1.851E+00 4.363E+00 1.785E+06 11.4757 1.00000
  6.310E+06 6.311E+06 2.526E+00 6.298E-02 1.515E+00 5.232E-01 2.101E+00 4.627E+00 1.938E+06 11.7059 1.00000
  7.079E+06 7.081E+06 2.540E+00 7.179E-02 1.719E+00 5.937E-01 2.385E+00 4.925E+00 2.099E+06 11.9361 1.00000
  7.943E+06 7.945E+06 2.554E+00 8.182E-02 1.949E+00 6.741E-01 2.705E+00 5.259E+00 2.269E+06 12.1663 1.00000
  8.913E+06 8.914E+06 2.568E+00 9.321E-02 2.208E+00 7.657E-01 3.067E+00 5.635E+00 2.447E+06 12.3965 1.00000
  1.000E+07 1.000E+07 2.582E+00 1.062E-01 2.500E+00 8.701E-01 3.476E+00 6.058E+00 2.633E+06 12.6267 1.00000
  1.122E+07 1.122E+07 2.596E+00 1.209E-01 2.829E+00 9.890E-01 3.939E+00 6.534E+00 2.827E+06 12.8569 1.00000
  1.259E+07 1.259E+07 2.609E+00 1.376E-01 3.199E+00 1.125E+00 4.461E+00 7.070E+00 3.029E+06 13.0871 1.00000
  1.413E+07 1.413E+07 2.623E+00 1.565E-01 3.616E+00 1.279E+00 5.052E+00 7.675E+00 3.238E+06 13.3174 1.00000
  1.585E+07 1.585E+07 2.636E+00 1.780E-01 4.085E+00 1.456E+00 5.719E+00 8.355E+00 3.453E+06 13.5476 1.00000
  1.778E+07 1.778E+07 2.649E+00 2.024E-01 4.614E+00 1.657E+00 6.473E+00 9.122E+00 3.675E+06 13.7778 1.00000
  1.995E+07 1.995E+07 2.662E+00 2.301E-01 5.208E+00 1.886E+00 7.324E+00 9.987E+00 3.902E+06 14.0081 1.00000
  2.239E+07 2.239E+07 2.676E+00 2.615E-01 5.876E+00 2.148E+00 8.285E+00 1.096E+01 4.135E+06 14.2383 1.00000
  2.512E+07 2.512E+07 2.689E+00 2.971E-01 6.627E+00 2.447E+00 9.371E+00 1.206E+01 4.373E+06 14.4685 1.00000
  2.818E+07 2.819E+07 2.702E+00 3.374E-01 7.472E+00 2.787E+00 1.060E+01 1.330E+01 4.616E+06 14.6988 1.00000
  3.162E+07 3.162E+07 2.714E+00 3.831E-01 8.422E+00 3.176E+00 1.198E+01 1.470E+01 4.862E+06 14.9290 1.00000
  3.548E+07 3.548E+07 2.727E+00 4.348E-01 9.489E+00 3.620E+00 1.354E+01 1.627E+01 5.112E+06 15.1593 1.00000
  3.981E+07 3.981E+07 2.740E+00 4.934E-01 1.069E+01 4.126E+00 1.531E+01 1.805E+01 5.365E+06 15.3895 1.00000
  4.467E+07 4.467E+07 2.753E+00 5.597E-01 1.204E+01 4.704E+00 1.730E+01 2.005E+01 5.620E+06 15.6198 1.00000
  5.012E+07 5.012E+07 2.766E+00 6.347E-01 1.355E+01 5.364E+00 1.955E+01 2.231E+01 5.878E+06 15.8500 1.00000
  5.623E+07 5.624E+07 2.779E+00 7.195E-01 1.525E+01 6.117E+00 2.209E+01 2.486E+01 6.138E+06 16.0803 1.00000
  6.310E+07 6.310E+07 2.792E+00 8.154E-01 1.716E+01 6.977E+00 2.495E+01 2.774E+01 6.400E+06 16.3105 1.00000
  7.079E+07 7.080E+07 2.804E+00 9.239E-01 1.930E+01 7.958E+00 2.818E+01 3.099E+01 6.663E+06 16.5408 1.00000
  7.943E+07 7.943E+07 2.817E+00 1.046E+00 2.171E+01 9.079E+00 3.184E+01 3.465E+01 6.927E+06 16.7710 1.00000
  8.913E+07 8.913E+07 2.830E+00 1.185E+00 2.441E+01 1.036E+01 3.596E+01 3.879E+01 7.192E+06 17.0013 1.00000
  1.000E+08 1.000E+08 2.843E+00 1.341E+00 2.745E+01 1.182E+01 4.061E+01 4.345E+01 7.457E+06 17.2315 1.00000
  1.122E+08 1.122E+08 2.856E+00 1.518E+00 3.086E+01 1.349E+01 4.587E+01 4.872E+01 7.723E+06 17.4618 1.00000
  1.259E+08 1.259E+08 2.869E+00 1.717E+00 3.468E+01 1.540E+01 5.180E+01 5.467E+01 7.989E+06 17.6920 1.00000
  1.413E+08 1.413E+08 2.882E+00 1.942E+00 3.898E+01 1.757E+01 5.850E+01 6.138E+01 8.254E+06 17.9223 1.00000
  1.585E+08 1.585E+08 2.895E+00 2.196E+00 4.380E+01 2.006E+01 6.606E+01 6.895E+01 8.520E+06 18.1526 1.00000
  1.778E+08 1.778E+08 2.908E+00 2.482E+00 4.921E+01 2.290E+01 7.460E+01 7.750E+01 8.785E+06 18.3828 1.00000
  1.995E+08 1.995E+08 2.921E+00 2.805E+00 5.529E+01 2.615E+01 8.424E+01 8.716E+01 9.049E+06 18.6131 1.00000
  2.239E+08 2.239E+08 2.934E+00 3.168E+00 6.211E+01 2.985E+01 9.513E+01 9.806E+01 9.313E+06 18.8433 1.00000
  2.512E+08 2.512E+08 2.947E+00 3.578E+00 6.976E+01 3.409E+01 1.074E+02 1.104E+02 9.576E+06 19.0736 1.00000
  2.818E+08 2.818E+08 2.961E+00 4.040E+00 7.835E+01 3.893E+01 1.213E+02 1.243E+02 9.838E+06 19.3038 1.00000
  3.162E+08 3.162E+08 2.974E+00 4.561E+00 8.798E+01 4.446E+01 1.370E+02 1.400E+02 1.010E+07 19.5341 1.00000
  3.548E+08 3.548E+08 2.987E+00 5.147E+00 9.880E+01 5.078E+01 1.547E+02 1.577E+02 1.036E+07 19.7644 1.00000
  3.981E+08 3.981E+08 3.001E+00 5.807E+00 1.109E+02 5.800E+01 1.747E+02 1.777E+02 1.062E+07 19.9946 1.00000
  4.467E+08 4.467E+08 3.014E+00 6.550E+00 1.246E+02 6.625E+01 1.974E+02 2.004E+02 1.088E+07 20.2249 1.00000
  5.012E+08 5.012E+08 3.028E+00 7.387E+00 1.398E+02 7.568E+01 2.229E+02 2.259E+02 1.113E+07 20.4551 1.00000
  5.623E+08 5.623E+08 3.042E+00 8.328E+00 1.570E+02 8.646E+01 2.518E+02 2.548E+02 1.139E+07 20.6854 1.00000
  6.310E+08 6.310E+08 3.055E+00 9.387E+00 1.762E+02 9.878E+01 2.844E+02 2.875E+02 1.164E+07 20.9156 1.00000
  7.079E+08 7.079E+08 3.069E+00 1.058E+01 1.978E+02 1.129E+02 3.213E+02 3.244E+02 1.189E+07 21.1459 1.00000
  7.943E+08 7.943E+08 3.083E+00 1.192E+01 2.221E+02 1.290E+02 3.630E+02 3.660E+02 1.215E+07 21.3762 1.00000
  8.913E+08 8.913E+08 3.097E+00 1.343E+01 2.493E+02 1.474E+02 4.101E+02 4.132E+02 1.240E+07 21.6064 1.00000
  1.000E+09 1.000E+09 3.111E+00 1.512E+01 2.798E+02 1.684E+02 4.633E+02 4.664E+02 1.264E+07 21.8367 1.00000
  1.122E+09 1.122E+09 3.125E+00 1.703E+01 3.140E+02 1.924E+02 5.235E+02 5.266E+02 1.289E+07 22.0669 1.00000
  1.259E+09 1.259E+09 3.139E+00 1.917E+01 3.525E+02 2.199E+02 5.916E+02 5.947E+02 1.314E+07 22.2972 1.00000
  1.413E+09 1.413E+09 3.153E+00 2.157E+01 3.956E+02 2.514E+02 6.685E+02 6.717E+02 1.338E+07 22.5274 1.00000
  1.585E+09 1.585E+09 3.168E+00 2.428E+01 4.440E+02 2.873E+02 7.556E+02 7.587E+02 1.362E+07 22.7577 1.00000
  1.778E+09 1.778E+09 3.182E+00 2.732E+01 4.983E+02 3.284E+02 8.540E+02 8.572E+02 1.386E+07 22.9880 1.00000
  1.995E+09 1.995E+09 3.196E+00 3.073E+01 5.592E+02 3.754E+02 9.653E+02 9.685E+02 1.410E+07 23.2182 1.00000
  2.239E+09 2.239E+09 3.211E+00 3.457E+01 6.275E+02 4.292E+02 1.091E+03 1.094E+03 1.434E+07 23.4485 1.00000
  2.512E+09 2.512E+09 3.226E+00 3.888E+01 7.042E+02 4.907E+02 1.234E+03 1.237E+03 1.457E+07 23.6787 1.00000
  2.818E+09 2.818E+09 3.240E+00 4.372E+01 7.902E+02 5.610E+02 1.395E+03 1.398E+03 1.481E+07 23.9090 1.00000
  3.162E+09 3.162E+09 3.255E+00 4.916E+01 8.868E+02 6.415E+02 1.577E+03 1.581E+03 1.504E+07 24.1393 1.00000
  3.548E+09 3.548E+09 3.270E+00 5.526E+01 9.951E+02 7.335E+02 1.784E+03 1.787E+03 1.527E+07 24.3695 1.00000
  3.981E+09 3.981E+09 3.285E+00 6.212E+01 1.117E+03 8.387E+02 2.017E+03 2.021E+03 1.550E+07 24.5998 1.00000
  4.467E+09 4.467E+09 3.300E+00 6.982E+01 1.253E+03 9.591E+02 2.282E+03 2.285E+03 1.572E+07 24.8300 1.00000
  5.012E+09 5.012E+09 3.315E+00 7.847E+01 1.406E+03 1.097E+03 2.581E+03 2.585E+03 1.595E+07 25.0603 1.00000
  5.623E+09 5.623E+09 3.330E+00 8.817E+01 1.578E+03 1.254E+03 2.920E+03 2.924E+03 1.617E+07 25.2905 1.00000
  6.310E+09 6.310E+09 3.345E+00 9.907E+01 1.770E+03 1.435E+03 3.304E+03 3.308E+03 1.639E+07 25.5208 1.00000
  7.079E+09 7.079E+09 3.361E+00 1.113E+02 1.986E+03 1.641E+03 3.739E+03 3.742E+03 1.661E+07 25.7511 1.00000
  7.943E+09 7.943E+09 3.376E+00 1.250E+02 2.229E+03 1.877E+03 4.231E+03 4.235E+03 1.683E+07 25.9813 1.00000
  8.913E+09 8.913E+09 3.392E+00 1.405E+02 2.501E+03 2.147E+03 4.789E+03 4.792E+03 1.704E+07 26.2116 1.00000
  1.000E+10 1.000E+10 3.407E+00 1.578E+02 2.806E+03 2.457E+03 5.421E+03 5.424E+03 1.726E+07 26.4418 1.00000
  1.122E+10 1.122E+10 3.423E+00 1.772E+02 3.149E+03 2.811E+03 6.137E+03 6.140E+03 1.747E+07 26.6721 1.00000
  1.259E+10 1.259E+10 3.439E+00 1.990E+02 3.533E+03 3.216E+03 6.948E+03 6.951E+03 1.768E+07 26.9024 1.00000
  1.413E+10 1.413E+10 3.455E+00 2.235E+02 3.964E+03 3.679E+03 7.867E+03 7.870E+03 1.789E+07 27.1326 1.00000
  1.585E+10 1.585E+10 3.471E+00 2.509E+02 4.448E+03 4.210E+03 8.909E+03 8.912E+03 1.809E+07 27.3629 1.00000
  1.778E+10 1.778E+10 3.487E+00 2.817E+02 4.991E+03 4.817E+03 1.009E+04 1.009E+04 1.830E+07 27.5931 1.00000
  1.995E+10 1.995E+10 3.503E+00 3.163E+02 5.600E+03 5.513E+03 1.143E+04 1.143E+04 1.850E+07 27.8234 1.00000
  2.239E+10 2.239E+10 3.519E+00 3.551E+02 6.283E+03 6.309E+03 1.295E+04 1.295E+04 1.870E+07 28.0537 1.00000
  2.512E+10 2.512E+10 3.536E+00 3.987E+02 7.050E+03 7.220E+03 1.467E+04 1.467E+04 1.890E+07 28.2839 1.00000
  2.818E+10 2.818E+10 3.552E+00 4.476E+02 7.910E+03 8.264E+03 1.662E+04 1.662E+04 1.909E+07 28.5142 1.00000
  3.162E+10 3.162E+10 3.569E+00 5.025E+02 8.875E+03 9.458E+03 1.884E+04 1.884E+04 1.929E+07 28.7444 1.00000
  3.548E+10 3.548E+10 3.585E+00 5.640E+02 9.958E+03 1.083E+04 2.135E+04 2.135E+04 1.948E+07 28.9747 1.00000
  3.981E+10 3.981E+10 3.602E+00 6.331E+02 1.117E+04 1.239E+04 2.420E+04 2.420E+04 1.967E+07 29.2049 1.00000
  4.467E+10 4.467E+10 3.619E+00 7.106E+02 1.254E+04 1.419E+04 2.743E+04 2.744E+04 1.986E+07 29.4352 1.00000
  5.012E+10 5.012E+10 3.636E+00 7.976E+02 1.407E+04 1.624E+04 3.111E+04 3.111E+04 2.005E+07 29.6655 1.00000
  5.623E+10 5.623E+10 3.653E+00 8.953E+02 1.578E+04 1.860E+04 3.527E+04 3.528E+04 2.023E+07 29.8957 1.00000
  6.310E+10 6.310E+10 3.670E+00 1.005E+03 1.771E+04 2.129E+04 4.000E+04 4.001E+04 2.042E+07 30.1260 1.00000
  7.079E+10 7.079E+10 3.687E+00 1.128E+03 1.987E+04 2.438E+04 4.537E+04 4.538E+04 2.060E+07 30.3562 1.00000
  7.943E+10 7.943E+10 3.704E+00 1.266E+03 2.229E+04 2.791E+04 5.147E+04 5.148E+04 2.078E+07 30.5865 1.00000
  8.913E+10 8.913E+10 3.722E+00 1.420E+03 2.501E+04 3.196E+04 5.840E+04 5.840E+04 2.095E+07 30.8168 1.00000
  1.000E+11 1.000E+11 3.739E+00 1.594E+03 2.806E+04 3.661E+04 6.626E+04 6.627E+04 2.113E+07 31.0470 1.00000
  1.122E+11 1.122E+11 3.757E+00 1.789E+03 3.149E+04 4.192E+04 7.520E+04 7.520E+04 2.130E+07 31.2773 1.00000
  1.259E+11 1.259E+11 3.775E+00 2.008E+03 3.533E+04 4.801E+04 8.535E+04 8.535E+04 2.147E+07 31.5075 1.00000
  1.413E+11 1.413E+11 3.792E+00 2.253E+03 3.964E+04 5.499E+04 9.688E+04 9.689E+04 2.164E+07 31.7378 1.00000
  1.585E+11 1.585E+11 3.810E+00 2.528E+03 4.447E+04 6.299E+04 1.100E+05 1.100E+05 2.181E+07 31.9680 1.00000
  1.778E+11 1.778E+11 3.828E+00 2.837E+03 4.990E+04 7.215E+04 1.249E+05 1.249E+05 2.198E+07 32.1983 1.00000
  1.995E+11 1.995E+11 3.846E+00 3.184E+03 5.599E+04 8.266E+04 1.418E+05 1.418E+05 2.214E+07 32.4286 1.00000
  2.239E+11 2.239E+11 3.865E+00 3.572E+03 6.281E+04 9.469E+04 1.611E+05 1.611E+05 2.230E+07 32.6588 1.00000
  2.512E+11 2.512E+11 3.883E+00 4.009E+03 7.048E+04 1.085E+05 1.830E+05 1.830E+05 2.246E+07 32.8891 1.00000
  2.818E+11 2.818E+11 3.901E+00 4.498E+03 7.907E+04 1.243E+05 2.079E+05 2.079E+05 2.262E+07 33.1193 1.00000
  3.162E+11 3.162E+11 3.920E+00 5.048E+03 8.872E+04 1.424E+05 2.362E+05 2.362E+05 2.277E+07 33.3496 1.00000
  3.548E+11 3.548E+11 3.938E+00 5.664E+03 9.954E+04 1.632E+05 2.684E+05 2.684E+05 2.293E+07 33.5799 1.00000
  3.981E+11 3.981E+11 3.957E+00 6.355E+03 1.117E+05 1.870E+05 3.050E+05 3.050E+05 2.308E+07 33.8101 1.00000
  4.467E+11 4.467E+11 3.976E+00 7.131E+03 1.253E+05 2.143E+05 3.467E+05 3.467E+05 2.323E+07 34.0404 1.00000
  5.012E+11 5.012E+11 3.995E+00 8.002E+03 1.406E+05 2.456E+05 3.942E+05 3.942E+05 2.338E+07 34.2706 1.00000
  5.623E+11 5.623E+11 4.014E+00 8.979E+03 1.577E+05 2.814E+05 4.482E+05 4.482E+05 2.352E+07 34.5009 1.00000
  6.310E+11 6.310E+11 4.033E+00 1.007E+04 1.770E+05 3.226E+05 5.096E+05 5.096E+05 2.367E+07 34.7311 1.00000
  7.079E+11 7.079E+11 4.052E+00 1.130E+04 1.986E+05 3.697E+05 5.796E+05 5.796E+05 2.381E+07 34.9614 1.00000
  7.943E+11 7.943E+11 4.072E+00 1.268E+04 2.228E+05 4.238E+05 6.593E+05 6.593E+05 2.395E+07 35.1917 1.00000
  8.913E+11 8.913E+11 4.091E+00 1.423E+04 2.500E+05 4.858E+05 7.500E+05 7.500E+05 2.409E+07 35.4219 1.00000
  1.000E+12 1.000E+12 4.111E+00 1.597E+04 2.805E+05 5.569E+05 8.533E+05 8.534E+05 2.422E+07 35.6522 1.00000
  1.122E+12 1.122E+12 4.130E+00 1.792E+04 3.147E+05 6.385E+05 9.711E+05 9.711E+05 2.436E+07 35.8824 1.00000
  1.259E+12 1.259E+12 4.150E+00 2.011E+04 3.531E+05 7.320E+05 1.105E+06 1.105E+06 2.449E+07 36.1127 1.00000
  1.413E+12 1.413E+12 4.170E+00 2.256E+04 3.961E+05 8.393E+05 1.258E+06 1.258E+06 2.462E+07 36.3430 1.00000
  1.585E+12 1.585E+12 4.190E+00 2.531E+04 4.444E+05 9.623E+05 1.432E+06 1.432E+06 2.475E+07 36.5732 1.00000
  1.778E+12 1.778E+12 4.210E+00 2.840E+04 4.986E+05 1.103E+06 1.630E+06 1.630E+06 2.487E+07 36.8035 1.00000
  1.995E+12 1.995E+12 4.230E+00 3.187E+04 5.595E+05 1.265E+06 1.857E+06 1.857E+06 2.500E+07 37.0337 1.00000
  2.239E+12 2.239E+12 4.251E+00 3.576E+04 6.277E+05 1.451E+06 2.115E+06 2.115E+06 2.512E+07 37.2640 1.00000
  2.512E+12 2.512E+12 4.271E+00 4.012E+04 7.043E+05 1.664E+06 2.408E+06 2.409E+06 2.524E+07 37.4942 1.00000
  2.818E+12 2.818E+12 4.292E+00 4.502E+04 7.902E+05 1.909E+06 2.744E+06 2.744E+06 2.536E+07 37.7245 1.00000
  3.162E+12 3.162E+12 4.312E+00 5.051E+04 8.865E+05 2.189E+06 3.126E+06 3.126E+06 2.548E+07 37.9548 1.00000
  3.548E+12 3.548E+12 4.333E+00 5.667E+04 9.947E+05 2.511E+06 3.562E+06 3.562E+06 2.560E+07 38.1850 1.00000
  3.981E+12 3.981E+12 4.354E+00 6.359E+04 1.116E+06 2.880E+06 4.060E+06 4.060E+06 2.571E+07 38.4153 1.00000
  4.467E+12 4.467E+12 4.375E+00 7.135E+04 1.252E+06 3.304E+06 4.627E+06 4.627E+06 2.582E+07 38.6455 1.00000
  5.012E+12 5.012E+12 4.396E+00 8.006E+04 1.405E+06 3.790E+06 5.275E+06 5.275E+06 2.593E+07 38.8758 1.00000
  5.623E+12 5.623E+12 4.417E+00 8.982E+04 1.576E+06 4.348E+06 6.014E+06 6.014E+06 2.604E+07 39.1061 1.00000
  6.310E+12 6.310E+12 4.439E+00 1.008E+05 1.768E+06 4.989E+06 6.858E+06 6.858E+06 2.615E+07 39.3363 1.00000
  7.079E+12 7.079E+12 4.460E+00 1.131E+05 1.984E+06 5.724E+06 7.821E+06 7.821E+06 2.625E+07 39.5666 1.00000
  7.943E+12 7.943E+12 4.482E+00 1.269E+05 2.226E+06 6.567E+06 8.920E+06 8.920E+06 2.636E+07 39.7968 1.00000
  8.913E+12 8.913E+12 4.503E+00 1.424E+05 2.498E+06 7.536E+06 1.018E+07 1.018E+07 2.646E+07 40.0271 1.00000
  1.000E+13 1.000E+13 4.525E+00 1.597E+05 2.802E+06 8.647E+06 1.161E+07 1.161E+07 2.656E+07 40.2574 1.00000
  1.122E+13 1.122E+13 4.547E+00 1.792E+05 3.144E+06 9.923E+06 1.325E+07 1.325E+07 2.666E+07 40.4876 1.00000
  1.259E+13 1.259E+13 4.569E+00 2.011E+05 3.527E+06 1.139E+07 1.512E+07 1.512E+07 2.676E+07 40.7179 1.00000
  1.413E+13 1.413E+13 4.592E+00 2.256E+05 3.958E+06 1.307E+07 1.725E+07 1.725E+07 2.685E+07 40.9481 1.00000
  1.585E+13 1.585E+13 4.614E+00 2.532E+05 4.440E+06 1.500E+07 1.969E+07 1.969E+07 2.695E+07 41.1784 1.00000
  1.778E+13 1.778E+13 4.636E+00 2.841E+05 4.982E+06 1.722E+07 2.248E+07 2.248E+07 2.704E+07 41.4086 1.00000
  1.995E+13 1.995E+13 4.659E+00 3.187E+05 5.589E+06 1.976E+07 2.567E+07 2.567E+07 2.713E+07 41.6389 1.00000
  2.239E+13 2.239E+13 4.682E+00 3.576E+05 6.271E+06 2.269E+07 2.932E+07 2.932E+07 2.722E+07 41.8692 1.00000
  2.512E+13 2.512E+13 4.704E+00 4.012E+05 7.036E+06 2.604E+07 3.348E+07 3.348E+07 2.730E+07 42.0994 1.00000
  2.818E+13 2.818E+13 4.727E+00 4.502E+05 7.894E+06 2.990E+07 3.824E+07 3.824E+07 2.739E+07 42.3297 1.00000
  3.162E+13 3.162E+13 4.750E+00 5.051E+05 8.857E+06 3.433E+07 4.369E+07 4.369E+07 2.747E+07 42.5599 1.00000
  3.548E+13 3.548E+13 4.773E+00 5.668E+05 9.937E+06 3.941E+07 4.992E+07 4.992E+07 2.756E+07 42.7902 1.00000
  3.981E+13 3.981E+13 4.797E+00 6.359E+05 1.115E+07 4.525E+07 5.704E+07 5.704E+07 2.764E+07 43.0205 1.00000
  4.467E+13 4.467E+13 4.820E+00 7.135E+05 1.251E+07 5.196E+07 6.518E+07 6.518E+07 2.772E+07 43.2507 1.00000
  5.012E+13 5.012E+13 4.844E+00 8.006E+05 1.403E+07 5.966E+07 7.450E+07 7.450E+07 2.780E+07 43.4810 1.00000
  5.623E+13 5.623E+13 4.867E+00 8.983E+05 1.575E+07 6.852E+07 8.516E+07 8.516E+07 2.787E+07 43.7112 1.00000
  6.310E+13 6.310E+13 4.891E+00 1.008E+06 1.767E+07 7.868E+07 9.736E+07 9.736E+07 2.795E+07 43.9415 1.00000
  7.079E+13 7.079E+13 4.915E+00 1.131E+06 1.982E+07 9.036E+07 1.113E+08 1.113E+08 2.802E+07 44.1717 1.00000
  7.943E+13 7.943E+13 4.939E+00 1.269E+06 2.224E+07 1.038E+08 1.273E+08 1.273E+08 2.810E+07 44.4020 1.00000
  8.913E+13 8.913E+13 4.963E+00 1.424E+06 2.495E+07 1.192E+08 1.456E+08 1.456E+08 2.817E+07 44.6323 1.00000
