 Incident particle is a Tau with M = 1776.82000 MeV
 Index = 0: Yttrium
      Absorber with <Z/A> = 0.43867
 Sternheimer coef:  a     k=m_s   x_0    x_1    I[eV]   Cbar  delta0
                 0.0714  3.4585  0.3608  3.5542  379.0  5.4801 0.14

 *** Table generated with PUMAS v1.00 ***

      T         p     Ionization  brems     pair     photonuc  Radloss    dE/dx   CSDA Range  delta   beta
    [MeV]    [MeV/c]  -----------------------[MeV cm^2/g]------------------------  [g/cm^2]
  1.000E+05 1.018E+05 1.817E+00 5.891E-04 9.941E-03 7.773E-03 1.830E-02 1.835E+00 2.725E+04  3.1568 0.99985
  1.122E+05 1.140E+05 1.836E+00 6.822E-04 1.191E-02 8.739E-03 2.134E-02 1.857E+00 3.386E+04  3.3338 0.99988
  1.259E+05 1.277E+05 1.855E+00 7.897E-04 1.424E-02 9.775E-03 2.480E-02 1.880E+00 4.118E+04  3.5144 0.99990
  1.413E+05 1.430E+05 1.873E+00 9.136E-04 1.696E-02 1.094E-02 2.881E-02 1.902E+00 4.931E+04  3.6984 0.99992
  1.585E+05 1.603E+05 1.892E+00 1.056E-03 2.016E-02 1.223E-02 3.345E-02 1.926E+00 5.831E+04  3.8858 0.99994
  1.778E+05 1.796E+05 1.910E+00 1.221E-03 2.390E-02 1.367E-02 3.879E-02 1.949E+00 6.829E+04  4.0764 0.99995
  1.995E+05 2.013E+05 1.929E+00 1.410E-03 2.827E-02 1.530E-02 4.498E-02 1.974E+00 7.936E+04  4.2700 0.99996
  2.239E+05 2.256E+05 1.947E+00 1.627E-03 3.336E-02 1.708E-02 5.206E-02 1.999E+00 9.161E+04  4.4665 0.99997
  2.512E+05 2.530E+05 1.965E+00 1.877E-03 3.928E-02 1.906E-02 6.022E-02 2.025E+00 1.052E+05  4.6658 0.99998
  2.818E+05 2.836E+05 1.982E+00 2.165E-03 4.615E-02 2.129E-02 6.961E-02 2.052E+00 1.202E+05  4.8676 0.99998
  3.162E+05 3.180E+05 2.000E+00 2.495E-03 5.412E-02 2.380E-02 8.041E-02 2.081E+00 1.369E+05  5.0719 0.99998
  3.548E+05 3.566E+05 2.018E+00 2.874E-03 6.333E-02 2.660E-02 9.281E-02 2.110E+00 1.553E+05  5.2786 0.99999
  3.981E+05 3.999E+05 2.035E+00 3.309E-03 7.398E-02 2.973E-02 1.070E-01 2.142E+00 1.757E+05  5.4875 0.99999
  4.467E+05 4.485E+05 2.052E+00 3.807E-03 8.626E-02 3.322E-02 1.233E-01 2.175E+00 1.982E+05  5.6984 0.99999
  5.012E+05 5.030E+05 2.069E+00 4.379E-03 1.004E-01 3.713E-02 1.419E-01 2.211E+00 2.230E+05  5.9113 0.99999
  5.623E+05 5.641E+05 2.086E+00 5.034E-03 1.167E-01 4.136E-02 1.631E-01 2.249E+00 2.504E+05  6.1260 1.00000
  6.310E+05 6.327E+05 2.103E+00 5.784E-03 1.354E-01 4.611E-02 1.873E-01 2.290E+00 2.807E+05  6.3424 1.00000
  7.079E+05 7.097E+05 2.119E+00 6.643E-03 1.568E-01 5.146E-02 2.149E-01 2.334E+00 3.140E+05  6.5604 1.00000
  7.943E+05 7.961E+05 2.136E+00 7.626E-03 1.814E-01 5.748E-02 2.465E-01 2.382E+00 3.506E+05  6.7799 1.00000
  8.913E+05 8.930E+05 2.152E+00 8.750E-03 2.095E-01 6.428E-02 2.826E-01 2.434E+00 3.909E+05  7.0007 1.00000
  1.000E+06 1.002E+06 2.168E+00 1.004E-02 2.417E-01 7.196E-02 3.237E-01 2.492E+00 4.350E+05  7.2227 1.00000
  1.122E+06 1.124E+06 2.184E+00 1.151E-02 2.784E-01 8.063E-02 3.706E-01 2.554E+00 4.834E+05  7.4460 1.00000
  1.259E+06 1.261E+06 2.200E+00 1.319E-02 3.203E-01 9.044E-02 4.240E-01 2.624E+00 5.363E+05  7.6702 1.00000
  1.413E+06 1.414E+06 2.215E+00 1.511E-02 3.681E-01 1.015E-01 4.847E-01 2.700E+00 5.940E+05  7.8954 1.00000
  1.585E+06 1.587E+06 2.231E+00 1.730E-02 4.224E-01 1.141E-01 5.539E-01 2.784E+00 6.569E+05  8.1215 1.00000
  1.778E+06 1.780E+06 2.246E+00 1.980E-02 4.843E-01 1.284E-01 6.324E-01 2.878E+00 7.252E+05  8.3483 1.00000
  1.995E+06 1.997E+06 2.261E+00 2.265E-02 5.545E-01 1.445E-01 7.217E-01 2.983E+00 7.993E+05  8.5757 1.00000
  2.239E+06 2.240E+06 2.276E+00 2.591E-02 6.343E-01 1.629E-01 8.231E-01 3.099E+00 8.794E+05  8.8038 1.00000
  2.512E+06 2.514E+06 2.291E+00 2.962E-02 7.248E-01 1.837E-01 9.381E-01 3.229E+00 9.657E+05  9.0323 1.00000
  2.818E+06 2.820E+06 2.306E+00 3.386E-02 8.274E-01 2.073E-01 1.069E+00 3.374E+00 1.059E+06  9.2613 1.00000
  3.162E+06 3.164E+06 2.320E+00 3.869E-02 9.436E-01 2.342E-01 1.216E+00 3.537E+00 1.158E+06  9.4906 1.00000
  3.548E+06 3.550E+06 2.335E+00 4.418E-02 1.075E+00 2.647E-01 1.384E+00 3.719E+00 1.265E+06  9.7202 1.00000
  3.981E+06 3.983E+06 2.349E+00 5.045E-02 1.224E+00 2.995E-01 1.574E+00 3.923E+00 1.378E+06  9.9500 1.00000
  4.467E+06 4.469E+06 2.363E+00 5.758E-02 1.392E+00 3.390E-01 1.789E+00 4.152E+00 1.498E+06 10.1800 1.00000
  5.012E+06 5.014E+06 2.377E+00 6.569E-02 1.582E+00 3.839E-01 2.032E+00 4.409E+00 1.626E+06 10.4101 1.00000
  5.623E+06 5.625E+06 2.391E+00 7.493E-02 1.797E+00 4.351E-01 2.307E+00 4.698E+00 1.760E+06 10.6403 1.00000
  6.310E+06 6.311E+06 2.404E+00 8.543E-02 2.039E+00 4.933E-01 2.618E+00 5.022E+00 1.902E+06 10.8705 1.00000
  7.079E+06 7.081E+06 2.418E+00 9.738E-02 2.312E+00 5.597E-01 2.970E+00 5.387E+00 2.050E+06 11.1007 1.00000
  7.943E+06 7.945E+06 2.431E+00 1.110E-01 2.621E+00 6.353E-01 3.367E+00 5.798E+00 2.204E+06 11.3309 1.00000
  8.913E+06 8.914E+06 2.444E+00 1.264E-01 2.968E+00 7.214E-01 3.816E+00 6.260E+00 2.365E+06 11.5611 1.00000
  1.000E+07 1.000E+07 2.458E+00 1.439E-01 3.359E+00 8.195E-01 4.323E+00 6.780E+00 2.532E+06 11.7913 1.00000
  1.122E+07 1.122E+07 2.471E+00 1.638E-01 3.800E+00 9.313E-01 4.896E+00 7.366E+00 2.705E+06 12.0215 1.00000
  1.259E+07 1.259E+07 2.483E+00 1.865E-01 4.297E+00 1.059E+00 5.542E+00 8.026E+00 2.883E+06 12.2517 1.00000
  1.413E+07 1.413E+07 2.496E+00 2.121E-01 4.856E+00 1.204E+00 6.272E+00 8.768E+00 3.067E+06 12.4820 1.00000
  1.585E+07 1.585E+07 2.509E+00 2.412E-01 5.484E+00 1.370E+00 7.096E+00 9.605E+00 3.255E+06 12.7122 1.00000
  1.778E+07 1.778E+07 2.522E+00 2.743E-01 6.192E+00 1.559E+00 8.025E+00 1.055E+01 3.447E+06 12.9424 1.00000
  1.995E+07 1.995E+07 2.534E+00 3.117E-01 6.988E+00 1.775E+00 9.074E+00 1.161E+01 3.643E+06 13.1727 1.00000
  2.239E+07 2.239E+07 2.546E+00 3.542E-01 7.882E+00 2.021E+00 1.026E+01 1.280E+01 3.843E+06 13.4029 1.00000
  2.512E+07 2.512E+07 2.559E+00 4.023E-01 8.889E+00 2.301E+00 1.159E+01 1.415E+01 4.047E+06 13.6331 1.00000
  2.818E+07 2.819E+07 2.571E+00 4.568E-01 1.002E+01 2.621E+00 1.310E+01 1.567E+01 4.253E+06 13.8634 1.00000
  3.162E+07 3.162E+07 2.583E+00 5.186E-01 1.129E+01 2.987E+00 1.480E+01 1.738E+01 4.461E+06 14.0936 1.00000
  3.548E+07 3.548E+07 2.596E+00 5.885E-01 1.272E+01 3.404E+00 1.671E+01 1.931E+01 4.672E+06 14.3239 1.00000
  3.981E+07 3.981E+07 2.608E+00 6.676E-01 1.432E+01 3.879E+00 1.887E+01 2.148E+01 4.885E+06 14.5541 1.00000
  4.467E+07 4.467E+07 2.620E+00 7.572E-01 1.613E+01 4.422E+00 2.131E+01 2.393E+01 5.100E+06 14.7844 1.00000
  5.012E+07 5.012E+07 2.632E+00 8.584E-01 1.815E+01 5.042E+00 2.405E+01 2.668E+01 5.316E+06 15.0146 1.00000
  5.623E+07 5.624E+07 2.645E+00 9.730E-01 2.043E+01 5.750E+00 2.715E+01 2.979E+01 5.533E+06 15.2449 1.00000
  6.310E+07 6.310E+07 2.657E+00 1.102E+00 2.298E+01 6.558E+00 3.064E+01 3.330E+01 5.751E+06 15.4751 1.00000
  7.079E+07 7.080E+07 2.669E+00 1.249E+00 2.585E+01 7.480E+00 3.458E+01 3.725E+01 5.970E+06 15.7054 1.00000
  7.943E+07 7.943E+07 2.681E+00 1.414E+00 2.907E+01 8.533E+00 3.902E+01 4.170E+01 6.190E+06 15.9356 1.00000
  8.913E+07 8.913E+07 2.693E+00 1.601E+00 3.269E+01 9.736E+00 4.402E+01 4.672E+01 6.410E+06 16.1659 1.00000
  1.000E+08 1.000E+08 2.706E+00 1.812E+00 3.675E+01 1.111E+01 4.967E+01 5.237E+01 6.630E+06 16.3961 1.00000
  1.122E+08 1.122E+08 2.718E+00 2.050E+00 4.131E+01 1.268E+01 5.603E+01 5.875E+01 6.850E+06 16.6264 1.00000
  1.259E+08 1.259E+08 2.730E+00 2.318E+00 4.642E+01 1.447E+01 6.321E+01 6.594E+01 7.071E+06 16.8566 1.00000
  1.413E+08 1.413E+08 2.742E+00 2.621E+00 5.217E+01 1.651E+01 7.131E+01 7.405E+01 7.291E+06 17.0869 1.00000
  1.585E+08 1.585E+08 2.755E+00 2.963E+00 5.862E+01 1.885E+01 8.043E+01 8.319E+01 7.511E+06 17.3172 1.00000
  1.778E+08 1.778E+08 2.767E+00 3.349E+00 6.586E+01 2.152E+01 9.072E+01 9.349E+01 7.730E+06 17.5474 1.00000
  1.995E+08 1.995E+08 2.780E+00 3.783E+00 7.398E+01 2.457E+01 1.023E+02 1.051E+02 7.950E+06 17.7777 1.00000
  2.239E+08 2.239E+08 2.792E+00 4.273E+00 8.310E+01 2.805E+01 1.154E+02 1.182E+02 8.168E+06 18.0079 1.00000
  2.512E+08 2.512E+08 2.805E+00 4.825E+00 9.333E+01 3.203E+01 1.302E+02 1.330E+02 8.387E+06 18.2382 1.00000
  2.818E+08 2.818E+08 2.817E+00 5.447E+00 1.048E+02 3.658E+01 1.468E+02 1.497E+02 8.604E+06 18.4684 1.00000
  3.162E+08 3.162E+08 2.830E+00 6.147E+00 1.177E+02 4.178E+01 1.656E+02 1.685E+02 8.821E+06 18.6987 1.00000
  3.548E+08 3.548E+08 2.843E+00 6.935E+00 1.322E+02 4.771E+01 1.868E+02 1.897E+02 9.038E+06 18.9290 1.00000
  3.981E+08 3.981E+08 2.856E+00 7.823E+00 1.484E+02 5.450E+01 2.107E+02 2.136E+02 9.253E+06 19.1592 1.00000
  4.467E+08 4.467E+08 2.868E+00 8.822E+00 1.666E+02 6.225E+01 2.377E+02 2.406E+02 9.468E+06 19.3895 1.00000
  5.012E+08 5.012E+08 2.881E+00 9.947E+00 1.871E+02 7.111E+01 2.681E+02 2.710E+02 9.682E+06 19.6197 1.00000
  5.623E+08 5.623E+08 2.894E+00 1.121E+01 2.100E+02 8.124E+01 3.024E+02 3.053E+02 9.895E+06 19.8500 1.00000
  6.310E+08 6.310E+08 2.907E+00 1.263E+01 2.357E+02 9.281E+01 3.412E+02 3.441E+02 1.011E+07 20.0802 1.00000
  7.079E+08 7.079E+08 2.920E+00 1.424E+01 2.646E+02 1.060E+02 3.849E+02 3.878E+02 1.032E+07 20.3105 1.00000
  7.943E+08 7.943E+08 2.934E+00 1.604E+01 2.970E+02 1.212E+02 4.342E+02 4.372E+02 1.053E+07 20.5408 1.00000
  8.913E+08 8.913E+08 2.947E+00 1.806E+01 3.334E+02 1.384E+02 4.899E+02 4.929E+02 1.074E+07 20.7710 1.00000
  1.000E+09 1.000E+09 2.960E+00 2.033E+01 3.742E+02 1.582E+02 5.528E+02 5.557E+02 1.095E+07 21.0013 1.00000
  1.122E+09 1.122E+09 2.973E+00 2.289E+01 4.200E+02 1.808E+02 6.237E+02 6.267E+02 1.115E+07 21.2315 1.00000
  1.259E+09 1.259E+09 2.987E+00 2.577E+01 4.714E+02 2.066E+02 7.038E+02 7.068E+02 1.136E+07 21.4618 1.00000
  1.413E+09 1.413E+09 3.000E+00 2.900E+01 5.290E+02 2.362E+02 7.942E+02 7.972E+02 1.156E+07 21.6920 1.00000
  1.585E+09 1.585E+09 3.014E+00 3.263E+01 5.937E+02 2.700E+02 8.963E+02 8.993E+02 1.177E+07 21.9223 1.00000
  1.778E+09 1.778E+09 3.028E+00 3.671E+01 6.663E+02 3.086E+02 1.012E+03 1.015E+03 1.197E+07 22.1526 1.00000
  1.995E+09 1.995E+09 3.041E+00 4.129E+01 7.477E+02 3.527E+02 1.142E+03 1.145E+03 1.217E+07 22.3828 1.00000
  2.239E+09 2.239E+09 3.055E+00 4.643E+01 8.391E+02 4.033E+02 1.289E+03 1.292E+03 1.237E+07 22.6131 1.00000
  2.512E+09 2.512E+09 3.069E+00 5.221E+01 9.417E+02 4.610E+02 1.455E+03 1.458E+03 1.257E+07 22.8433 1.00000
  2.818E+09 2.818E+09 3.083E+00 5.871E+01 1.057E+03 5.271E+02 1.643E+03 1.646E+03 1.277E+07 23.0736 1.00000
  3.162E+09 3.162E+09 3.097E+00 6.600E+01 1.186E+03 6.027E+02 1.854E+03 1.858E+03 1.297E+07 23.3039 1.00000
  3.548E+09 3.548E+09 3.111E+00 7.418E+01 1.331E+03 6.891E+02 2.094E+03 2.097E+03 1.316E+07 23.5341 1.00000
  3.981E+09 3.981E+09 3.125E+00 8.338E+01 1.493E+03 7.880E+02 2.365E+03 2.368E+03 1.336E+07 23.7644 1.00000
  4.467E+09 4.467E+09 3.140E+00 9.370E+01 1.675E+03 9.012E+02 2.670E+03 2.673E+03 1.355E+07 23.9946 1.00000
  5.012E+09 5.012E+09 3.154E+00 1.053E+02 1.880E+03 1.031E+03 3.016E+03 3.019E+03 1.374E+07 24.2249 1.00000
  5.623E+09 5.623E+09 3.168E+00 1.183E+02 2.110E+03 1.179E+03 3.407E+03 3.410E+03 1.393E+07 24.4551 1.00000
  6.310E+09 6.310E+09 3.183E+00 1.329E+02 2.367E+03 1.348E+03 3.848E+03 3.851E+03 1.412E+07 24.6854 1.00000
  7.079E+09 7.079E+09 3.198E+00 1.493E+02 2.656E+03 1.542E+03 4.347E+03 4.351E+03 1.431E+07 24.9157 1.00000
  7.943E+09 7.943E+09 3.212E+00 1.677E+02 2.980E+03 1.764E+03 4.912E+03 4.915E+03 1.450E+07 25.1459 1.00000
  8.913E+09 8.913E+09 3.227E+00 1.884E+02 3.344E+03 2.018E+03 5.550E+03 5.553E+03 1.469E+07 25.3762 1.00000
  1.000E+10 1.000E+10 3.242E+00 2.115E+02 3.752E+03 2.308E+03 6.272E+03 6.275E+03 1.487E+07 25.6064 1.00000
  1.122E+10 1.122E+10 3.257E+00 2.376E+02 4.210E+03 2.641E+03 7.089E+03 7.092E+03 1.505E+07 25.8367 1.00000
  1.259E+10 1.259E+10 3.272E+00 2.668E+02 4.724E+03 3.021E+03 8.012E+03 8.015E+03 1.524E+07 26.0670 1.00000
  1.413E+10 1.413E+10 3.287E+00 2.996E+02 5.301E+03 3.457E+03 9.057E+03 9.060E+03 1.542E+07 26.2972 1.00000
  1.585E+10 1.585E+10 3.302E+00 3.363E+02 5.948E+03 3.955E+03 1.024E+04 1.024E+04 1.560E+07 26.5275 1.00000
  1.778E+10 1.778E+10 3.317E+00 3.776E+02 6.673E+03 4.526E+03 1.158E+04 1.158E+04 1.577E+07 26.7577 1.00000
  1.995E+10 1.995E+10 3.333E+00 4.240E+02 7.488E+03 5.179E+03 1.309E+04 1.309E+04 1.595E+07 26.9880 1.00000
  2.239E+10 2.239E+10 3.348E+00 4.760E+02 8.401E+03 5.927E+03 1.480E+04 1.481E+04 1.612E+07 27.2183 1.00000
  2.512E+10 2.512E+10 3.364E+00 5.343E+02 9.427E+03 6.784E+03 1.674E+04 1.675E+04 1.630E+07 27.4485 1.00000
  2.818E+10 2.818E+10 3.379E+00 5.998E+02 1.058E+04 7.764E+03 1.894E+04 1.894E+04 1.647E+07 27.6788 1.00000
  3.162E+10 3.162E+10 3.395E+00 6.733E+02 1.187E+04 8.887E+03 2.143E+04 2.143E+04 1.664E+07 27.9090 1.00000
  3.548E+10 3.548E+10 3.411E+00 7.557E+02 1.332E+04 1.017E+04 2.424E+04 2.425E+04 1.681E+07 28.1393 1.00000
  3.981E+10 3.981E+10 3.427E+00 8.483E+02 1.494E+04 1.164E+04 2.743E+04 2.744E+04 1.698E+07 28.3695 1.00000
  4.467E+10 4.467E+10 3.443E+00 9.521E+02 1.676E+04 1.333E+04 3.104E+04 3.105E+04 1.715E+07 28.5998 1.00000
  5.012E+10 5.012E+10 3.459E+00 1.069E+03 1.881E+04 1.526E+04 3.514E+04 3.514E+04 1.731E+07 28.8301 1.00000
  5.623E+10 5.623E+10 3.475E+00 1.199E+03 2.110E+04 1.747E+04 3.977E+04 3.978E+04 1.748E+07 29.0603 1.00000
  6.310E+10 6.310E+10 3.491E+00 1.346E+03 2.368E+04 2.000E+04 4.503E+04 4.503E+04 1.764E+07 29.2906 1.00000
  7.079E+10 7.079E+10 3.508E+00 1.511E+03 2.657E+04 2.290E+04 5.098E+04 5.098E+04 1.780E+07 29.5208 1.00000
  7.943E+10 7.943E+10 3.524E+00 1.695E+03 2.981E+04 2.623E+04 5.773E+04 5.773E+04 1.796E+07 29.7511 1.00000
  8.913E+10 8.913E+10 3.541E+00 1.903E+03 3.344E+04 3.003E+04 6.538E+04 6.538E+04 1.812E+07 29.9814 1.00000
  1.000E+11 1.000E+11 3.557E+00 2.135E+03 3.752E+04 3.439E+04 7.405E+04 7.405E+04 1.827E+07 30.2116 1.00000
  1.122E+11 1.122E+11 3.574E+00 2.396E+03 4.210E+04 3.939E+04 8.388E+04 8.389E+04 1.843E+07 30.4419 1.00000
  1.259E+11 1.259E+11 3.591E+00 2.689E+03 4.724E+04 4.511E+04 9.504E+04 9.504E+04 1.858E+07 30.6721 1.00000
  1.413E+11 1.413E+11 3.608E+00 3.017E+03 5.300E+04 5.167E+04 1.077E+05 1.077E+05 1.873E+07 30.9024 1.00000
  1.585E+11 1.585E+11 3.625E+00 3.386E+03 5.946E+04 5.918E+04 1.220E+05 1.220E+05 1.888E+07 31.1326 1.00000
  1.778E+11 1.778E+11 3.642E+00 3.800E+03 6.672E+04 6.779E+04 1.383E+05 1.383E+05 1.903E+07 31.3629 1.00000
  1.995E+11 1.995E+11 3.659E+00 4.264E+03 7.486E+04 7.766E+04 1.568E+05 1.568E+05 1.918E+07 31.5932 1.00000
  2.239E+11 2.239E+11 3.676E+00 4.784E+03 8.399E+04 8.897E+04 1.777E+05 1.777E+05 1.933E+07 31.8234 1.00000
  2.512E+11 2.512E+11 3.694E+00 5.369E+03 9.423E+04 1.019E+05 2.015E+05 2.015E+05 1.947E+07 32.0537 1.00000
  2.818E+11 2.818E+11 3.711E+00 6.024E+03 1.057E+05 1.168E+05 2.285E+05 2.285E+05 1.962E+07 32.2839 1.00000
  3.162E+11 3.162E+11 3.729E+00 6.760E+03 1.186E+05 1.338E+05 2.592E+05 2.592E+05 1.976E+07 32.5142 1.00000
  3.548E+11 3.548E+11 3.746E+00 7.585E+03 1.331E+05 1.533E+05 2.940E+05 2.940E+05 1.990E+07 32.7445 1.00000
  3.981E+11 3.981E+11 3.764E+00 8.511E+03 1.493E+05 1.757E+05 3.335E+05 3.335E+05 2.004E+07 32.9747 1.00000
  4.467E+11 4.467E+11 3.782E+00 9.550E+03 1.675E+05 2.013E+05 3.784E+05 3.784E+05 2.017E+07 33.2050 1.00000
  5.012E+11 5.012E+11 3.800E+00 1.072E+04 1.880E+05 2.307E+05 4.294E+05 4.294E+05 2.031E+07 33.4352 1.00000
  5.623E+11 5.623E+11 3.818E+00 1.202E+04 2.109E+05 2.644E+05 4.874E+05 4.874E+05 2.044E+07 33.6655 1.00000
  6.310E+11 6.310E+11 3.836E+00 1.349E+04 2.366E+05 3.031E+05 5.532E+05 5.532E+05 2.057E+07 33.8957 1.00000
  7.079E+11 7.079E+11 3.854E+00 1.514E+04 2.655E+05 3.474E+05 6.280E+05 6.280E+05 2.071E+07 34.1260 1.00000
  7.943E+11 7.943E+11 3.873E+00 1.699E+04 2.979E+05 3.982E+05 7.131E+05 7.131E+05 2.083E+07 34.3563 1.00000
  8.913E+11 8.913E+11 3.891E+00 1.906E+04 3.342E+05 4.564E+05 8.097E+05 8.097E+05 2.096E+07 34.5865 1.00000
  1.000E+12 1.000E+12 3.910E+00 2.138E+04 3.750E+05 5.232E+05 9.196E+05 9.196E+05 2.109E+07 34.8168 1.00000
  1.122E+12 1.122E+12 3.929E+00 2.399E+04 4.207E+05 5.999E+05 1.045E+06 1.045E+06 2.121E+07 35.0470 1.00000
  1.259E+12 1.259E+12 3.947E+00 2.692E+04 4.721E+05 6.877E+05 1.187E+06 1.187E+06 2.134E+07 35.2773 1.00000
  1.413E+12 1.413E+12 3.966E+00 3.021E+04 5.296E+05 7.885E+05 1.348E+06 1.348E+06 2.146E+07 35.5076 1.00000
  1.585E+12 1.585E+12 3.985E+00 3.390E+04 5.943E+05 9.041E+05 1.532E+06 1.532E+06 2.158E+07 35.7378 1.00000
  1.778E+12 1.778E+12 4.004E+00 3.803E+04 6.667E+05 1.037E+06 1.741E+06 1.741E+06 2.170E+07 35.9681 1.00000
  1.995E+12 1.995E+12 4.024E+00 4.267E+04 7.481E+05 1.189E+06 1.980E+06 1.980E+06 2.181E+07 36.1983 1.00000
  2.239E+12 2.239E+12 4.043E+00 4.788E+04 8.393E+05 1.363E+06 2.251E+06 2.251E+06 2.193E+07 36.4286 1.00000
  2.512E+12 2.512E+12 4.062E+00 5.372E+04 9.417E+05 1.564E+06 2.559E+06 2.559E+06 2.204E+07 36.6588 1.00000
  2.818E+12 2.818E+12 4.082E+00 6.028E+04 1.057E+06 1.793E+06 2.910E+06 2.910E+06 2.216E+07 36.8891 1.00000
  3.162E+12 3.162E+12 4.102E+00 6.763E+04 1.185E+06 2.057E+06 3.310E+06 3.310E+06 2.227E+07 37.1194 1.00000
  3.548E+12 3.548E+12 4.121E+00 7.589E+04 1.330E+06 2.359E+06 3.765E+06 3.765E+06 2.238E+07 37.3496 1.00000
  3.981E+12 3.981E+12 4.141E+00 8.515E+04 1.492E+06 2.706E+06 4.283E+06 4.283E+06 2.248E+07 37.5799 1.00000
  4.467E+12 4.467E+12 4.161E+00 9.554E+04 1.674E+06 3.104E+06 4.874E+06 4.874E+06 2.259E+07 37.8101 1.00000
  5.012E+12 5.012E+12 4.181E+00 1.072E+05 1.878E+06 3.561E+06 5.546E+06 5.546E+06 2.270E+07 38.0404 1.00000
  5.623E+12 5.623E+12 4.201E+00 1.203E+05 2.107E+06 4.085E+06 6.313E+06 6.313E+06 2.280E+07 38.2707 1.00000
  6.310E+12 6.310E+12 4.222E+00 1.350E+05 2.365E+06 4.687E+06 7.186E+06 7.186E+06 2.290E+07 38.5009 1.00000
  7.079E+12 7.079E+12 4.242E+00 1.514E+05 2.653E+06 5.378E+06 8.182E+06 8.182E+06 2.300E+07 38.7312 1.00000
  7.943E+12 7.943E+12 4.263E+00 1.699E+05 2.976E+06 6.170E+06 9.317E+06 9.317E+06 2.310E+07 38.9614 1.00000
  8.913E+12 8.913E+12 4.283E+00 1.906E+05 3.340E+06 7.080E+06 1.061E+07 1.061E+07 2.320E+07 39.1917 1.00000
  1.000E+13 1.000E+13 4.304E+00 2.139E+05 3.747E+06 8.125E+06 1.209E+07 1.209E+07 2.330E+07 39.4220 1.00000
  1.122E+13 1.122E+13 4.325E+00 2.400E+05 4.204E+06 9.324E+06 1.377E+07 1.377E+07 2.339E+07 39.6522 1.00000
  1.259E+13 1.259E+13 4.346E+00 2.693E+05 4.716E+06 1.070E+07 1.569E+07 1.569E+07 2.348E+07 39.8825 1.00000
  1.413E+13 1.413E+13 4.367E+00 3.021E+05 5.292E+06 1.228E+07 1.787E+07 1.787E+07 2.358E+07 40.1127 1.00000
  1.585E+13 1.585E+13 4.388E+00 3.390E+05 5.937E+06 1.409E+07 2.037E+07 2.037E+07 2.367E+07 40.3430 1.00000
  1.778E+13 1.778E+13 4.409E+00 3.804E+05 6.661E+06 1.618E+07 2.322E+07 2.322E+07 2.376E+07 40.5732 1.00000
  1.995E+13 1.995E+13 4.431E+00 4.268E+05 7.474E+06 1.857E+07 2.647E+07 2.647E+07 2.384E+07 40.8035 1.00000
  2.239E+13 2.239E+13 4.452E+00 4.788E+05 8.385E+06 2.132E+07 3.018E+07 3.018E+07 2.393E+07 41.0338 1.00000
  2.512E+13 2.512E+13 4.474E+00 5.373E+05 9.408E+06 2.447E+07 3.442E+07 3.442E+07 2.401E+07 41.2640 1.00000
  2.818E+13 2.818E+13 4.496E+00 6.028E+05 1.056E+07 2.809E+07 3.925E+07 3.925E+07 2.410E+07 41.4943 1.00000
  3.162E+13 3.162E+13 4.518E+00 6.764E+05 1.184E+07 3.225E+07 4.477E+07 4.477E+07 2.418E+07 41.7245 1.00000
  3.548E+13 3.548E+13 4.540E+00 7.589E+05 1.329E+07 3.703E+07 5.107E+07 5.107E+07 2.426E+07 41.9548 1.00000
  3.981E+13 3.981E+13 4.562E+00 8.515E+05 1.491E+07 4.252E+07 5.827E+07 5.827E+07 2.434E+07 42.1851 1.00000
  4.467E+13 4.467E+13 4.584E+00 9.554E+05 1.672E+07 4.882E+07 6.650E+07 6.650E+07 2.442E+07 42.4153 1.00000
  5.012E+13 5.012E+13 4.606E+00 1.072E+06 1.876E+07 5.606E+07 7.589E+07 7.589E+07 2.450E+07 42.6456 1.00000
  5.623E+13 5.623E+13 4.629E+00 1.203E+06 2.105E+07 6.437E+07 8.663E+07 8.663E+07 2.457E+07 42.8758 1.00000
  6.310E+13 6.310E+13 4.652E+00 1.350E+06 2.362E+07 7.393E+07 9.890E+07 9.890E+07 2.465E+07 43.1061 1.00000
  7.079E+13 7.079E+13 4.674E+00 1.514E+06 2.650E+07 8.490E+07 1.129E+08 1.129E+08 2.472E+07 43.3363 1.00000
  7.943E+13 7.943E+13 4.697E+00 1.699E+06 2.973E+07 9.751E+07 1.289E+08 1.289E+08 2.479E+07 43.5666 1.00000
  8.913E+13 8.913E+13 4.720E+00 1.906E+06 3.336E+07 1.120E+08 1.473E+08 1.473E+08 2.486E+07 43.7969 1.00000
