 Incident particle is a Tau with M = 1776.82000 MeV
 Index = 0: Zirconium
      Absorber with <Z/A> = 0.43848
 Sternheimer coef:  a     k=m_s   x_0    x_1    I[eV]   Cbar  delta0
                 0.0718  3.4533  0.2957  3.4890  393.0  5.1774 0.14

 *** Table generated with PUMAS v1.00 ***

      T         p     Ionization  brems     pair     photonuc  Radloss    dE/dx   CSDA Range  delta   beta
    [MeV]    [MeV/c]  -----------------------[MeV cm^2/g]------------------------  [g/cm^2]
  1.000E+05 1.018E+05 1.795E+00 6.027E-04 1.019E-02 7.766E-03 1.856E-02 1.814E+00 2.757E+04  3.3958 0.99985
  1.122E+05 1.140E+05 1.814E+00 6.980E-04 1.221E-02 8.731E-03 2.164E-02 1.835E+00 3.426E+04  3.5771 0.99988
  1.259E+05 1.277E+05 1.832E+00 8.080E-04 1.459E-02 9.765E-03 2.516E-02 1.858E+00 4.167E+04  3.7618 0.99990
  1.413E+05 1.430E+05 1.851E+00 9.348E-04 1.738E-02 1.092E-02 2.924E-02 1.880E+00 4.989E+04  3.9498 0.99992
  1.585E+05 1.603E+05 1.869E+00 1.081E-03 2.066E-02 1.221E-02 3.395E-02 1.903E+00 5.900E+04  4.1410 0.99994
  1.778E+05 1.796E+05 1.887E+00 1.249E-03 2.449E-02 1.365E-02 3.939E-02 1.927E+00 6.910E+04  4.3352 0.99995
  1.995E+05 2.013E+05 1.905E+00 1.443E-03 2.896E-02 1.528E-02 4.568E-02 1.951E+00 8.029E+04  4.5323 0.99996
  2.239E+05 2.256E+05 1.923E+00 1.665E-03 3.417E-02 1.705E-02 5.289E-02 1.976E+00 9.269E+04  4.7321 0.99997
  2.512E+05 2.530E+05 1.941E+00 1.921E-03 4.024E-02 1.903E-02 6.119E-02 2.002E+00 1.064E+05  4.9344 0.99998
  2.818E+05 2.836E+05 1.958E+00 2.216E-03 4.728E-02 2.126E-02 7.075E-02 2.029E+00 1.216E+05  5.1393 0.99998
  3.162E+05 3.180E+05 1.976E+00 2.554E-03 5.543E-02 2.376E-02 8.175E-02 2.058E+00 1.385E+05  5.3464 0.99998
  3.548E+05 3.566E+05 1.993E+00 2.941E-03 6.487E-02 2.656E-02 9.437E-02 2.088E+00 1.571E+05  5.5557 0.99999
  3.981E+05 3.999E+05 2.010E+00 3.386E-03 7.577E-02 2.968E-02 1.088E-01 2.119E+00 1.777E+05  5.7670 0.99999
  4.467E+05 4.485E+05 2.027E+00 3.897E-03 8.835E-02 3.316E-02 1.254E-01 2.153E+00 2.004E+05  5.9803 0.99999
  5.012E+05 5.030E+05 2.044E+00 4.482E-03 1.028E-01 3.707E-02 1.444E-01 2.189E+00 2.255E+05  6.1954 0.99999
  5.623E+05 5.641E+05 2.061E+00 5.153E-03 1.195E-01 4.128E-02 1.659E-01 2.227E+00 2.532E+05  6.4122 1.00000
  6.310E+05 6.327E+05 2.077E+00 5.921E-03 1.386E-01 4.603E-02 1.906E-01 2.268E+00 2.838E+05  6.6305 1.00000
  7.079E+05 7.097E+05 2.094E+00 6.800E-03 1.606E-01 5.136E-02 2.188E-01 2.313E+00 3.174E+05  6.8503 1.00000
  7.943E+05 7.961E+05 2.110E+00 7.806E-03 1.858E-01 5.738E-02 2.509E-01 2.361E+00 3.543E+05  7.0714 1.00000
  8.913E+05 8.930E+05 2.126E+00 8.958E-03 2.146E-01 6.416E-02 2.877E-01 2.414E+00 3.949E+05  7.2937 1.00000
  1.000E+06 1.002E+06 2.142E+00 1.027E-02 2.475E-01 7.182E-02 3.296E-01 2.472E+00 4.395E+05  7.5171 1.00000
  1.122E+06 1.124E+06 2.158E+00 1.178E-02 2.851E-01 8.047E-02 3.773E-01 2.535E+00 4.882E+05  7.7416 1.00000
  1.259E+06 1.261E+06 2.174E+00 1.350E-02 3.280E-01 9.026E-02 4.317E-01 2.605E+00 5.415E+05  7.9670 1.00000
  1.413E+06 1.414E+06 2.189E+00 1.546E-02 3.768E-01 1.013E-01 4.936E-01 2.683E+00 5.996E+05  8.1932 1.00000
  1.585E+06 1.587E+06 2.205E+00 1.771E-02 4.325E-01 1.139E-01 5.640E-01 2.769E+00 6.628E+05  8.4202 1.00000
  1.778E+06 1.780E+06 2.220E+00 2.027E-02 4.957E-01 1.281E-01 6.441E-01 2.864E+00 7.315E+05  8.6478 1.00000
  1.995E+06 1.997E+06 2.235E+00 2.319E-02 5.676E-01 1.442E-01 7.350E-01 2.970E+00 8.059E+05  8.8759 1.00000
  2.239E+06 2.240E+06 2.250E+00 2.653E-02 6.493E-01 1.625E-01 8.383E-01 3.088E+00 8.863E+05  9.1046 1.00000
  2.512E+06 2.514E+06 2.265E+00 3.033E-02 7.419E-01 1.833E-01 9.555E-01 3.220E+00 9.730E+05  9.3336 1.00000
  2.818E+06 2.820E+06 2.279E+00 3.467E-02 8.468E-01 2.069E-01 1.088E+00 3.368E+00 1.066E+06  9.5630 1.00000
  3.162E+06 3.164E+06 2.294E+00 3.961E-02 9.657E-01 2.337E-01 1.239E+00 3.533E+00 1.166E+06  9.7927 1.00000
  3.548E+06 3.550E+06 2.308E+00 4.524E-02 1.100E+00 2.641E-01 1.410E+00 3.718E+00 1.272E+06 10.0225 1.00000
  3.981E+06 3.983E+06 2.323E+00 5.165E-02 1.253E+00 2.988E-01 1.603E+00 3.926E+00 1.386E+06 10.2525 1.00000
  4.467E+06 4.469E+06 2.337E+00 5.895E-02 1.425E+00 3.382E-01 1.822E+00 4.158E+00 1.506E+06 10.4826 1.00000
  5.012E+06 5.014E+06 2.351E+00 6.726E-02 1.619E+00 3.830E-01 2.069E+00 4.420E+00 1.633E+06 10.7128 1.00000
  5.623E+06 5.625E+06 2.364E+00 7.671E-02 1.839E+00 4.340E-01 2.349E+00 4.714E+00 1.767E+06 10.9430 1.00000
  6.310E+06 6.311E+06 2.378E+00 8.747E-02 2.087E+00 4.922E-01 2.666E+00 5.044E+00 1.908E+06 11.1732 1.00000
  7.079E+06 7.081E+06 2.392E+00 9.970E-02 2.366E+00 5.583E-01 3.024E+00 5.416E+00 2.055E+06 11.4034 1.00000
  7.943E+06 7.945E+06 2.405E+00 1.136E-01 2.681E+00 6.337E-01 3.429E+00 5.834E+00 2.209E+06 11.6336 1.00000
  8.913E+06 8.914E+06 2.418E+00 1.294E-01 3.037E+00 7.196E-01 3.886E+00 6.304E+00 2.369E+06 11.8638 1.00000
  1.000E+07 1.000E+07 2.431E+00 1.474E-01 3.437E+00 8.175E-01 4.402E+00 6.833E+00 2.535E+06 12.0940 1.00000
  1.122E+07 1.122E+07 2.444E+00 1.677E-01 3.888E+00 9.290E-01 4.985E+00 7.429E+00 2.706E+06 12.3242 1.00000
  1.259E+07 1.259E+07 2.457E+00 1.909E-01 4.396E+00 1.056E+00 5.643E+00 8.100E+00 2.883E+06 12.5544 1.00000
  1.413E+07 1.413E+07 2.470E+00 2.172E-01 4.967E+00 1.201E+00 6.386E+00 8.856E+00 3.065E+06 12.7847 1.00000
  1.585E+07 1.585E+07 2.483E+00 2.470E-01 5.611E+00 1.367E+00 7.224E+00 9.707E+00 3.251E+06 13.0149 1.00000
  1.778E+07 1.778E+07 2.495E+00 2.808E-01 6.334E+00 1.555E+00 8.170E+00 1.067E+01 3.441E+06 13.2451 1.00000
  1.995E+07 1.995E+07 2.508E+00 3.191E-01 7.148E+00 1.770E+00 9.237E+00 1.175E+01 3.635E+06 13.4754 1.00000
  2.239E+07 2.239E+07 2.520E+00 3.626E-01 8.063E+00 2.015E+00 1.044E+01 1.296E+01 3.833E+06 13.7056 1.00000
  2.512E+07 2.512E+07 2.533E+00 4.119E-01 9.092E+00 2.295E+00 1.180E+01 1.433E+01 4.033E+06 13.9358 1.00000
  2.818E+07 2.819E+07 2.545E+00 4.677E-01 1.025E+01 2.615E+00 1.333E+01 1.588E+01 4.237E+06 14.1661 1.00000
  3.162E+07 3.162E+07 2.557E+00 5.309E-01 1.155E+01 2.979E+00 1.506E+01 1.762E+01 4.443E+06 14.3963 1.00000
  3.548E+07 3.548E+07 2.569E+00 6.024E-01 1.301E+01 3.395E+00 1.701E+01 1.958E+01 4.651E+06 14.6266 1.00000
  3.981E+07 3.981E+07 2.582E+00 6.834E-01 1.465E+01 3.870E+00 1.920E+01 2.179E+01 4.861E+06 14.8568 1.00000
  4.467E+07 4.467E+07 2.594E+00 7.751E-01 1.649E+01 4.411E+00 2.168E+01 2.428E+01 5.072E+06 15.0871 1.00000
  5.012E+07 5.012E+07 2.606E+00 8.788E-01 1.857E+01 5.030E+00 2.447E+01 2.708E+01 5.285E+06 15.3173 1.00000
  5.623E+07 5.624E+07 2.618E+00 9.960E-01 2.089E+01 5.735E+00 2.762E+01 3.024E+01 5.499E+06 15.5476 1.00000
  6.310E+07 6.310E+07 2.630E+00 1.128E+00 2.351E+01 6.541E+00 3.117E+01 3.381E+01 5.714E+06 15.7778 1.00000
  7.079E+07 7.080E+07 2.643E+00 1.278E+00 2.644E+01 7.461E+00 3.518E+01 3.782E+01 5.930E+06 16.0081 1.00000
  7.943E+07 7.943E+07 2.655E+00 1.447E+00 2.973E+01 8.512E+00 3.969E+01 4.235E+01 6.146E+06 16.2383 1.00000
  8.913E+07 8.913E+07 2.667E+00 1.639E+00 3.343E+01 9.711E+00 4.478E+01 4.745E+01 6.362E+06 16.4686 1.00000
  1.000E+08 1.000E+08 2.679E+00 1.854E+00 3.759E+01 1.108E+01 5.052E+01 5.320E+01 6.579E+06 16.6988 1.00000
  1.122E+08 1.122E+08 2.691E+00 2.098E+00 4.225E+01 1.265E+01 5.699E+01 5.968E+01 6.796E+06 16.9291 1.00000
  1.259E+08 1.259E+08 2.704E+00 2.373E+00 4.748E+01 1.443E+01 6.429E+01 6.699E+01 7.013E+06 17.1593 1.00000
  1.413E+08 1.413E+08 2.716E+00 2.683E+00 5.336E+01 1.647E+01 7.251E+01 7.523E+01 7.230E+06 17.3896 1.00000
  1.585E+08 1.585E+08 2.728E+00 3.033E+00 5.995E+01 1.880E+01 8.179E+01 8.452E+01 7.446E+06 17.6199 1.00000
  1.778E+08 1.778E+08 2.741E+00 3.427E+00 6.735E+01 2.147E+01 9.225E+01 9.499E+01 7.662E+06 17.8501 1.00000
  1.995E+08 1.995E+08 2.753E+00 3.872E+00 7.566E+01 2.451E+01 1.040E+02 1.068E+02 7.878E+06 18.0804 1.00000
  2.239E+08 2.239E+08 2.766E+00 4.373E+00 8.499E+01 2.798E+01 1.173E+02 1.201E+02 8.094E+06 18.3106 1.00000
  2.512E+08 2.512E+08 2.778E+00 4.938E+00 9.545E+01 3.195E+01 1.323E+02 1.351E+02 8.308E+06 18.5409 1.00000
  2.818E+08 2.818E+08 2.791E+00 5.574E+00 1.072E+02 3.649E+01 1.493E+02 1.520E+02 8.523E+06 18.7711 1.00000
  3.162E+08 3.162E+08 2.804E+00 6.291E+00 1.204E+02 4.167E+01 1.683E+02 1.711E+02 8.736E+06 19.0014 1.00000
  3.548E+08 3.548E+08 2.816E+00 7.098E+00 1.352E+02 4.759E+01 1.899E+02 1.927E+02 8.949E+06 19.2317 1.00000
  3.981E+08 3.981E+08 2.829E+00 8.006E+00 1.518E+02 5.436E+01 2.141E+02 2.170E+02 9.161E+06 19.4619 1.00000
  4.467E+08 4.467E+08 2.842E+00 9.028E+00 1.704E+02 6.209E+01 2.415E+02 2.444E+02 9.373E+06 19.6922 1.00000
  5.012E+08 5.012E+08 2.855E+00 1.018E+01 1.913E+02 7.093E+01 2.724E+02 2.753E+02 9.583E+06 19.9224 1.00000
  5.623E+08 5.623E+08 2.868E+00 1.147E+01 2.148E+02 8.103E+01 3.073E+02 3.101E+02 9.793E+06 20.1527 1.00000
  6.310E+08 6.310E+08 2.881E+00 1.293E+01 2.411E+02 9.257E+01 3.466E+02 3.495E+02 1.000E+07 20.3829 1.00000
  7.079E+08 7.079E+08 2.894E+00 1.457E+01 2.706E+02 1.058E+02 3.910E+02 3.939E+02 1.021E+07 20.6132 1.00000
  7.943E+08 7.943E+08 2.907E+00 1.641E+01 3.038E+02 1.209E+02 4.410E+02 4.439E+02 1.042E+07 20.8435 1.00000
  8.913E+08 8.913E+08 2.920E+00 1.848E+01 3.410E+02 1.381E+02 4.975E+02 5.005E+02 1.062E+07 21.0737 1.00000
  1.000E+09 1.000E+09 2.934E+00 2.081E+01 3.827E+02 1.578E+02 5.613E+02 5.642E+02 1.083E+07 21.3040 1.00000
  1.122E+09 1.122E+09 2.947E+00 2.342E+01 4.295E+02 1.803E+02 6.333E+02 6.362E+02 1.103E+07 21.5342 1.00000
  1.259E+09 1.259E+09 2.960E+00 2.636E+01 4.821E+02 2.061E+02 7.145E+02 7.175E+02 1.123E+07 21.7645 1.00000
  1.413E+09 1.413E+09 2.974E+00 2.967E+01 5.410E+02 2.356E+02 8.063E+02 8.092E+02 1.144E+07 21.9947 1.00000
  1.585E+09 1.585E+09 2.987E+00 3.338E+01 6.072E+02 2.693E+02 9.098E+02 9.128E+02 1.164E+07 22.2250 1.00000
  1.778E+09 1.778E+09 3.001E+00 3.756E+01 6.814E+02 3.078E+02 1.027E+03 1.030E+03 1.184E+07 22.4553 1.00000
  1.995E+09 1.995E+09 3.015E+00 4.224E+01 7.647E+02 3.518E+02 1.159E+03 1.162E+03 1.204E+07 22.6855 1.00000
  2.239E+09 2.239E+09 3.029E+00 4.751E+01 8.582E+02 4.022E+02 1.308E+03 1.311E+03 1.223E+07 22.9158 1.00000
  2.512E+09 2.512E+09 3.043E+00 5.342E+01 9.630E+02 4.598E+02 1.476E+03 1.479E+03 1.243E+07 23.1460 1.00000
  2.818E+09 2.818E+09 3.056E+00 6.006E+01 1.081E+03 5.257E+02 1.666E+03 1.670E+03 1.263E+07 23.3763 1.00000
  3.162E+09 3.162E+09 3.071E+00 6.752E+01 1.213E+03 6.011E+02 1.881E+03 1.884E+03 1.282E+07 23.6066 1.00000
  3.548E+09 3.548E+09 3.085E+00 7.590E+01 1.361E+03 6.874E+02 2.124E+03 2.127E+03 1.301E+07 23.8368 1.00000
  3.981E+09 3.981E+09 3.099E+00 8.530E+01 1.527E+03 7.860E+02 2.398E+03 2.401E+03 1.320E+07 24.0671 1.00000
  4.467E+09 4.467E+09 3.113E+00 9.586E+01 1.713E+03 8.988E+02 2.708E+03 2.711E+03 1.340E+07 24.2973 1.00000
  5.012E+09 5.012E+09 3.127E+00 1.077E+02 1.923E+03 1.028E+03 3.058E+03 3.061E+03 1.358E+07 24.5276 1.00000
  5.623E+09 5.623E+09 3.142E+00 1.210E+02 2.157E+03 1.176E+03 3.454E+03 3.457E+03 1.377E+07 24.7578 1.00000
  6.310E+09 6.310E+09 3.156E+00 1.360E+02 2.421E+03 1.345E+03 3.901E+03 3.905E+03 1.396E+07 24.9881 1.00000
  7.079E+09 7.079E+09 3.171E+00 1.527E+02 2.716E+03 1.538E+03 4.407E+03 4.410E+03 1.415E+07 25.2184 1.00000
  7.943E+09 7.943E+09 3.186E+00 1.716E+02 3.048E+03 1.759E+03 4.979E+03 4.982E+03 1.433E+07 25.4486 1.00000
  8.913E+09 8.913E+09 3.200E+00 1.927E+02 3.420E+03 2.012E+03 5.625E+03 5.628E+03 1.451E+07 25.6789 1.00000
  1.000E+10 1.000E+10 3.215E+00 2.164E+02 3.837E+03 2.302E+03 6.356E+03 6.359E+03 1.470E+07 25.9091 1.00000
  1.122E+10 1.122E+10 3.230E+00 2.430E+02 4.306E+03 2.634E+03 7.183E+03 7.186E+03 1.488E+07 26.1394 1.00000
  1.259E+10 1.259E+10 3.245E+00 2.729E+02 4.831E+03 3.013E+03 8.118E+03 8.121E+03 1.506E+07 26.3697 1.00000
  1.413E+10 1.413E+10 3.260E+00 3.064E+02 5.421E+03 3.448E+03 9.175E+03 9.179E+03 1.523E+07 26.5999 1.00000
  1.585E+10 1.585E+10 3.275E+00 3.441E+02 6.083E+03 3.945E+03 1.037E+04 1.037E+04 1.541E+07 26.8302 1.00000
  1.778E+10 1.778E+10 3.291E+00 3.863E+02 6.825E+03 4.514E+03 1.173E+04 1.173E+04 1.559E+07 27.0604 1.00000
  1.995E+10 1.995E+10 3.306E+00 4.337E+02 7.658E+03 5.166E+03 1.326E+04 1.326E+04 1.576E+07 27.2907 1.00000
  2.239E+10 2.239E+10 3.322E+00 4.869E+02 8.592E+03 5.912E+03 1.499E+04 1.499E+04 1.593E+07 27.5210 1.00000
  2.512E+10 2.512E+10 3.337E+00 5.466E+02 9.640E+03 6.766E+03 1.695E+04 1.696E+04 1.611E+07 27.7512 1.00000
  2.818E+10 2.818E+10 3.353E+00 6.136E+02 1.082E+04 7.744E+03 1.917E+04 1.918E+04 1.628E+07 27.9815 1.00000
  3.162E+10 3.162E+10 3.368E+00 6.887E+02 1.214E+04 8.864E+03 2.169E+04 2.169E+04 1.645E+07 28.2117 1.00000
  3.548E+10 3.548E+10 3.384E+00 7.731E+02 1.362E+04 1.015E+04 2.454E+04 2.454E+04 1.661E+07 28.4420 1.00000
  3.981E+10 3.981E+10 3.400E+00 8.677E+02 1.528E+04 1.161E+04 2.776E+04 2.776E+04 1.678E+07 28.6722 1.00000
  4.467E+10 4.467E+10 3.416E+00 9.739E+02 1.714E+04 1.330E+04 3.141E+04 3.142E+04 1.694E+07 28.9025 1.00000
  5.012E+10 5.012E+10 3.432E+00 1.093E+03 1.923E+04 1.522E+04 3.555E+04 3.555E+04 1.711E+07 29.1328 1.00000
  5.623E+10 5.623E+10 3.448E+00 1.227E+03 2.158E+04 1.743E+04 4.023E+04 4.024E+04 1.727E+07 29.3630 1.00000
  6.310E+10 6.310E+10 3.464E+00 1.377E+03 2.421E+04 1.995E+04 4.554E+04 4.555E+04 1.743E+07 29.5933 1.00000
  7.079E+10 7.079E+10 3.481E+00 1.545E+03 2.717E+04 2.284E+04 5.156E+04 5.156E+04 1.759E+07 29.8235 1.00000
  7.943E+10 7.943E+10 3.497E+00 1.734E+03 3.048E+04 2.616E+04 5.838E+04 5.838E+04 1.775E+07 30.0538 1.00000
  8.913E+10 8.913E+10 3.514E+00 1.946E+03 3.420E+04 2.996E+04 6.610E+04 6.611E+04 1.790E+07 30.2841 1.00000
  1.000E+11 1.000E+11 3.530E+00 2.184E+03 3.837E+04 3.430E+04 7.486E+04 7.487E+04 1.806E+07 30.5143 1.00000
  1.122E+11 1.122E+11 3.547E+00 2.451E+03 4.306E+04 3.929E+04 8.479E+04 8.480E+04 1.821E+07 30.7446 1.00000
  1.259E+11 1.259E+11 3.564E+00 2.751E+03 4.831E+04 4.500E+04 9.605E+04 9.606E+04 1.836E+07 30.9748 1.00000
  1.413E+11 1.413E+11 3.581E+00 3.087E+03 5.420E+04 5.154E+04 1.088E+05 1.088E+05 1.851E+07 31.2051 1.00000
  1.585E+11 1.585E+11 3.598E+00 3.464E+03 6.081E+04 5.903E+04 1.233E+05 1.233E+05 1.866E+07 31.4353 1.00000
  1.778E+11 1.778E+11 3.615E+00 3.887E+03 6.823E+04 6.762E+04 1.397E+05 1.397E+05 1.881E+07 31.6656 1.00000
  1.995E+11 1.995E+11 3.632E+00 4.361E+03 7.655E+04 7.746E+04 1.584E+05 1.584E+05 1.896E+07 31.8959 1.00000
  2.239E+11 2.239E+11 3.649E+00 4.894E+03 8.589E+04 8.874E+04 1.795E+05 1.795E+05 1.910E+07 32.1261 1.00000
  2.512E+11 2.512E+11 3.667E+00 5.492E+03 9.637E+04 1.017E+05 2.035E+05 2.035E+05 1.924E+07 32.3564 1.00000
  2.818E+11 2.818E+11 3.684E+00 6.162E+03 1.081E+05 1.165E+05 2.308E+05 2.308E+05 1.939E+07 32.5866 1.00000
  3.162E+11 3.162E+11 3.702E+00 6.915E+03 1.213E+05 1.335E+05 2.617E+05 2.617E+05 1.953E+07 32.8169 1.00000
  3.548E+11 3.548E+11 3.719E+00 7.759E+03 1.361E+05 1.529E+05 2.968E+05 2.968E+05 1.967E+07 33.0472 1.00000
  3.981E+11 3.981E+11 3.737E+00 8.706E+03 1.527E+05 1.752E+05 3.367E+05 3.367E+05 1.980E+07 33.2774 1.00000
  4.467E+11 4.467E+11 3.755E+00 9.769E+03 1.713E+05 2.008E+05 3.819E+05 3.819E+05 1.994E+07 33.5077 1.00000
  5.012E+11 5.012E+11 3.773E+00 1.096E+04 1.922E+05 2.301E+05 4.333E+05 4.333E+05 2.007E+07 33.7379 1.00000
  5.623E+11 5.623E+11 3.791E+00 1.230E+04 2.157E+05 2.637E+05 4.917E+05 4.918E+05 2.021E+07 33.9682 1.00000
  6.310E+11 6.310E+11 3.809E+00 1.380E+04 2.420E+05 3.023E+05 5.581E+05 5.581E+05 2.034E+07 34.1984 1.00000
  7.079E+11 7.079E+11 3.828E+00 1.549E+04 2.715E+05 3.465E+05 6.335E+05 6.335E+05 2.047E+07 34.4287 1.00000
  7.943E+11 7.943E+11 3.846E+00 1.738E+04 3.047E+05 3.972E+05 7.192E+05 7.192E+05 2.059E+07 34.6590 1.00000
  8.913E+11 8.913E+11 3.864E+00 1.950E+04 3.418E+05 4.553E+05 8.166E+05 8.166E+05 2.072E+07 34.8892 1.00000
  1.000E+12 1.000E+12 3.883E+00 2.188E+04 3.835E+05 5.219E+05 9.273E+05 9.273E+05 2.085E+07 35.1195 1.00000
  1.122E+12 1.122E+12 3.902E+00 2.454E+04 4.303E+05 5.983E+05 1.053E+06 1.053E+06 2.097E+07 35.3497 1.00000
  1.259E+12 1.259E+12 3.920E+00 2.754E+04 4.828E+05 6.860E+05 1.196E+06 1.196E+06 2.109E+07 35.5800 1.00000
  1.413E+12 1.413E+12 3.939E+00 3.090E+04 5.417E+05 7.865E+05 1.359E+06 1.359E+06 2.121E+07 35.8103 1.00000
  1.585E+12 1.585E+12 3.958E+00 3.467E+04 6.077E+05 9.018E+05 1.544E+06 1.544E+06 2.133E+07 36.0405 1.00000
  1.778E+12 1.778E+12 3.977E+00 3.890E+04 6.818E+05 1.034E+06 1.755E+06 1.755E+06 2.145E+07 36.2708 1.00000
  1.995E+12 1.995E+12 3.997E+00 4.365E+04 7.650E+05 1.186E+06 1.994E+06 1.994E+06 2.157E+07 36.5010 1.00000
  2.239E+12 2.239E+12 4.016E+00 4.898E+04 8.583E+05 1.360E+06 2.267E+06 2.267E+06 2.168E+07 36.7313 1.00000
  2.512E+12 2.512E+12 4.035E+00 5.495E+04 9.630E+05 1.559E+06 2.577E+06 2.577E+06 2.179E+07 36.9615 1.00000
  2.818E+12 2.818E+12 4.055E+00 6.166E+04 1.080E+06 1.789E+06 2.931E+06 2.931E+06 2.191E+07 37.1918 1.00000
  3.162E+12 3.162E+12 4.075E+00 6.918E+04 1.212E+06 2.051E+06 3.333E+06 3.333E+06 2.202E+07 37.4221 1.00000
  3.548E+12 3.548E+12 4.094E+00 7.763E+04 1.360E+06 2.353E+06 3.791E+06 3.791E+06 2.213E+07 37.6523 1.00000
  3.981E+12 3.981E+12 4.114E+00 8.710E+04 1.526E+06 2.699E+06 4.312E+06 4.312E+06 2.223E+07 37.8826 1.00000
  4.467E+12 4.467E+12 4.134E+00 9.773E+04 1.712E+06 3.096E+06 4.906E+06 4.906E+06 2.234E+07 38.1128 1.00000
  5.012E+12 5.012E+12 4.154E+00 1.097E+05 1.921E+06 3.552E+06 5.582E+06 5.582E+06 2.244E+07 38.3431 1.00000
  5.623E+12 5.623E+12 4.174E+00 1.230E+05 2.155E+06 4.075E+06 6.353E+06 6.353E+06 2.255E+07 38.5734 1.00000
  6.310E+12 6.310E+12 4.195E+00 1.380E+05 2.418E+06 4.675E+06 7.231E+06 7.231E+06 2.265E+07 38.8036 1.00000
  7.079E+12 7.079E+12 4.215E+00 1.549E+05 2.713E+06 5.364E+06 8.232E+06 8.232E+06 2.275E+07 39.0339 1.00000
  7.943E+12 7.943E+12 4.236E+00 1.738E+05 3.044E+06 6.154E+06 9.372E+06 9.372E+06 2.285E+07 39.2641 1.00000
  8.913E+12 8.913E+12 4.256E+00 1.950E+05 3.415E+06 7.062E+06 1.067E+07 1.067E+07 2.294E+07 39.4944 1.00000
  1.000E+13 1.000E+13 4.277E+00 2.188E+05 3.832E+06 8.104E+06 1.215E+07 1.215E+07 2.304E+07 39.7247 1.00000
  1.122E+13 1.122E+13 4.298E+00 2.455E+05 4.299E+06 9.300E+06 1.384E+07 1.384E+07 2.313E+07 39.9549 1.00000
  1.259E+13 1.259E+13 4.319E+00 2.754E+05 4.823E+06 1.067E+07 1.577E+07 1.577E+07 2.323E+07 40.1852 1.00000
  1.413E+13 1.413E+13 4.340E+00 3.091E+05 5.412E+06 1.225E+07 1.797E+07 1.797E+07 2.332E+07 40.4154 1.00000
  1.585E+13 1.585E+13 4.361E+00 3.468E+05 6.072E+06 1.406E+07 2.048E+07 2.048E+07 2.341E+07 40.6457 1.00000
  1.778E+13 1.778E+13 4.382E+00 3.891E+05 6.812E+06 1.614E+07 2.334E+07 2.334E+07 2.350E+07 40.8759 1.00000
  1.995E+13 1.995E+13 4.404E+00 4.366E+05 7.643E+06 1.852E+07 2.660E+07 2.660E+07 2.358E+07 41.1062 1.00000
  2.239E+13 2.239E+13 4.425E+00 4.898E+05 8.575E+06 2.126E+07 3.033E+07 3.033E+07 2.367E+07 41.3365 1.00000
  2.512E+13 2.512E+13 4.447E+00 5.496E+05 9.621E+06 2.441E+07 3.458E+07 3.458E+07 2.375E+07 41.5667 1.00000
  2.818E+13 2.818E+13 4.469E+00 6.167E+05 1.079E+07 2.802E+07 3.943E+07 3.943E+07 2.384E+07 41.7970 1.00000
  3.162E+13 3.162E+13 4.491E+00 6.919E+05 1.211E+07 3.217E+07 4.497E+07 4.497E+07 2.392E+07 42.0272 1.00000
  3.548E+13 3.548E+13 4.513E+00 7.763E+05 1.359E+07 3.693E+07 5.130E+07 5.130E+07 2.400E+07 42.2575 1.00000
  3.981E+13 3.981E+13 4.535E+00 8.710E+05 1.524E+07 4.241E+07 5.852E+07 5.852E+07 2.408E+07 42.4878 1.00000
  4.467E+13 4.467E+13 4.557E+00 9.773E+05 1.710E+07 4.869E+07 6.677E+07 6.677E+07 2.416E+07 42.7180 1.00000
  5.012E+13 5.012E+13 4.579E+00 1.097E+06 1.919E+07 5.591E+07 7.620E+07 7.620E+07 2.423E+07 42.9483 1.00000
  5.623E+13 5.623E+13 4.602E+00 1.230E+06 2.153E+07 6.421E+07 8.697E+07 8.697E+07 2.431E+07 43.1785 1.00000
  6.310E+13 6.310E+13 4.624E+00 1.381E+06 2.416E+07 7.374E+07 9.927E+07 9.927E+07 2.438E+07 43.4088 1.00000
  7.079E+13 7.079E+13 4.647E+00 1.549E+06 2.710E+07 8.468E+07 1.133E+08 1.133E+08 2.445E+07 43.6390 1.00000
  7.943E+13 7.943E+13 4.670E+00 1.738E+06 3.041E+07 9.726E+07 1.294E+08 1.294E+08 2.453E+07 43.8693 1.00000
  8.913E+13 8.913E+13 4.693E+00 1.950E+06 3.412E+07 1.117E+08 1.478E+08 1.478E+08 2.460E+07 44.0996 1.00000
