 Incident particle is a Muon with M = 105.65839 MeV
 Index = 0: A150TissueEquivalentPlastic
      Absorber with <Z/A> = 0.54896
 Sternheimer coef:  a     k=m_s   x_0    x_1    I[eV]   Cbar  delta0
                 0.1078  3.4442  0.1329  2.6234   65.1  3.1100 0.00

 *** Table generated with PUMAS v1.00 ***

      T         p     Ionization  brems     pair     photonuc  Radloss    dE/dx   CSDA Range  delta   beta
    [MeV]    [MeV/c]  -----------------------[MeV cm^2/g]------------------------  [g/cm^2]
  1.000E+00 1.457E+01 5.126E+01 6.640E-07 0.000E+00 0.000E+00 6.640E-07 5.126E+01 9.754E-03  0.0000 0.13661
  1.200E+00 1.597E+01 4.419E+01 7.600E-07 0.000E+00 0.000E+00 7.600E-07 4.419E+01 1.397E-02  0.0000 0.14944
  1.400E+00 1.726E+01 3.897E+01 8.518E-07 0.000E+00 0.000E+00 8.518E-07 3.897E+01 1.880E-02  0.0000 0.16119
  1.700E+00 1.903E+01 3.325E+01 9.827E-07 0.000E+00 0.000E+00 9.827E-07 3.325E+01 2.716E-02  0.0000 0.17725
  2.000E+00 2.066E+01 2.910E+01 1.107E-06 0.000E+00 0.000E+00 1.107E-06 2.910E+01 3.682E-02  0.0000 0.19186
  2.500E+00 2.312E+01 2.424E+01 1.302E-06 0.000E+00 0.000E+00 1.302E-06 2.424E+01 5.572E-02  0.0000 0.21376
  3.000E+00 2.536E+01 2.089E+01 1.484E-06 0.000E+00 0.000E+00 1.484E-06 2.089E+01 7.800E-02  0.0000 0.23336
  3.500E+00 2.742E+01 1.842E+01 1.657E-06 0.000E+00 0.000E+00 1.657E-06 1.842E+01 1.035E-01  0.0000 0.25120
  4.000E+00 2.935E+01 1.653E+01 1.820E-06 0.000E+00 0.000E+00 1.820E-06 1.653E+01 1.322E-01  0.0000 0.26763
  4.500E+00 3.116E+01 1.503E+01 1.977E-06 0.000E+00 0.000E+00 1.977E-06 1.503E+01 1.640E-01  0.0000 0.28290
  5.000E+00 3.289E+01 1.381E+01 2.127E-06 0.000E+00 0.000E+00 2.127E-06 1.381E+01 1.987E-01  0.0000 0.29720
  5.500E+00 3.453E+01 1.279E+01 2.271E-06 0.000E+00 0.000E+00 2.271E-06 1.279E+01 2.364E-01  0.0000 0.31066
  6.000E+00 3.611E+01 1.193E+01 2.411E-06 0.000E+00 0.000E+00 2.411E-06 1.193E+01 2.769E-01  0.0000 0.32339
  7.000E+00 3.909E+01 1.057E+01 2.676E-06 0.000E+00 0.000E+00 2.676E-06 1.057E+01 3.661E-01  0.0000 0.34700
  8.000E+00 4.189E+01 9.519E+00 2.927E-06 0.000E+00 0.000E+00 2.927E-06 9.519E+00 4.660E-01  0.0000 0.36854
  9.000E+00 4.453E+01 8.692E+00 3.165E-06 0.000E+00 0.000E+00 3.165E-06 8.692E+00 5.760E-01  0.0000 0.38836
  1.000E+01 4.704E+01 8.021E+00 3.392E-06 0.000E+00 0.000E+00 3.392E-06 8.021E+00 6.959E-01  0.0000 0.40675
  1.200E+01 5.177E+01 6.997E+00 3.819E-06 0.000E+00 0.000E+00 3.819E-06 6.997E+00 9.634E-01  0.0000 0.43998
  1.400E+01 5.616E+01 6.253E+00 4.218E-06 0.000E+00 0.000E+00 4.218E-06 6.253E+00 1.266E+00  0.0000 0.46937
  1.700E+01 6.230E+01 5.450E+00 4.774E-06 0.000E+00 0.000E+00 4.774E-06 5.450E+00 1.781E+00  0.0000 0.50792
  2.000E+01 6.802E+01 4.880E+00 5.293E-06 0.000E+00 0.000E+00 5.293E-06 4.880E+00 2.364E+00  0.0000 0.54129
  2.500E+01 7.686E+01 4.225E+00 6.100E-06 0.000E+00 0.000E+00 6.100E-06 4.225E+00 3.468E+00  0.0000 0.58827
  3.000E+01 8.509E+01 3.783E+00 6.856E-06 0.000E+00 0.000E+00 6.856E-06 3.783E+00 4.721E+00  0.0000 0.62720
  3.500E+01 9.285E+01 3.467E+00 7.578E-06 0.000E+00 0.000E+00 7.578E-06 3.467E+00 6.103E+00  0.0000 0.66011
  4.000E+01 1.003E+02 3.229E+00 8.279E-06 0.000E+00 0.000E+00 8.279E-06 3.229E+00 7.598E+00  0.0000 0.68834
  4.500E+01 1.074E+02 3.045E+00 8.965E-06 0.000E+00 0.000E+00 8.965E-06 3.045E+00 9.193E+00  0.0000 0.71286
  5.000E+01 1.143E+02 2.899E+00 9.641E-06 0.000E+00 0.000E+00 9.641E-06 2.899E+00 1.088E+01  0.0000 0.73434
  5.500E+01 1.210E+02 2.780E+00 1.031E-05 0.000E+00 0.000E+00 1.031E-05 2.780E+00 1.264E+01  0.0000 0.75332
  6.000E+01 1.276E+02 2.682E+00 1.098E-05 0.000E+00 0.000E+00 1.098E-05 2.682E+00 1.447E+01  0.0000 0.77019
  7.000E+01 1.403E+02 2.531E+00 1.232E-05 0.000E+00 0.000E+00 1.232E-05 2.531E+00 1.831E+01  0.0000 0.79887
  8.000E+01 1.527E+02 2.418E+00 1.366E-05 0.000E+00 0.000E+00 1.366E-05 2.418E+00 2.235E+01  0.0318 0.82227
  9.000E+01 1.647E+02 2.331E+00 1.503E-05 0.000E+00 0.000E+00 1.503E-05 2.331E+00 2.657E+01  0.0744 0.84166
  1.000E+02 1.764E+02 2.264E+00 1.641E-05 0.000E+00 0.000E+00 1.641E-05 2.264E+00 3.092E+01  0.1164 0.85794
  1.200E+02 1.994E+02 2.168E+00 1.924E-05 0.000E+00 0.000E+00 1.924E-05 2.168E+00 3.995E+01  0.1977 0.88361
  1.400E+02 2.218E+02 2.106E+00 2.217E-05 0.000E+00 0.000E+00 2.217E-05 2.106E+00 4.931E+01  0.2757 0.90278
  1.700E+02 2.546E+02 2.048E+00 2.675E-05 3.698E-14 0.000E+00 2.675E-05 2.048E+00 6.375E+01  0.3864 0.92363
  2.000E+02 2.868E+02 2.015E+00 3.155E-05 8.259E-12 0.000E+00 3.155E-05 2.015E+00 7.852E+01  0.4904 0.93835
  2.500E+02 3.396E+02 1.987E+00 4.002E-05 6.812E-08 0.000E+00 4.009E-05 1.987E+00 1.035E+02  0.6507 0.95485
  3.000E+02 3.917E+02 1.978E+00 4.903E-05 6.323E-07 0.000E+00 4.966E-05 1.978E+00 1.287E+02  0.7973 0.96548
  3.500E+02 4.432E+02 1.978E+00 5.854E-05 1.739E-06 0.000E+00 6.027E-05 1.978E+00 1.540E+02  0.9325 0.97274
  4.000E+02 4.945E+02 1.983E+00 6.849E-05 3.365E-06 0.000E+00 7.186E-05 1.983E+00 1.793E+02  1.0580 0.97793
  4.500E+02 5.455E+02 1.990E+00 7.887E-05 5.491E-06 0.000E+00 8.436E-05 1.990E+00 2.044E+02  1.1752 0.98176
  5.000E+02 5.964E+02 1.998E+00 8.963E-05 8.099E-06 0.000E+00 9.772E-05 1.999E+00 2.295E+02  1.2853 0.98467
  5.500E+02 6.471E+02 2.008E+00 1.007E-04 1.117E-05 0.000E+00 1.119E-04 2.008E+00 2.545E+02  1.3890 0.98693
  6.000E+02 6.977E+02 2.017E+00 1.122E-04 1.470E-05 0.000E+00 1.269E-04 2.017E+00 2.793E+02  1.4871 0.98873
  7.000E+02 7.987E+02 2.036E+00 1.361E-04 2.304E-05 0.000E+00 1.591E-04 2.036E+00 3.286E+02  1.6690 0.99136
  8.000E+02 8.995E+02 2.054E+00 1.610E-04 3.300E-05 0.000E+00 1.940E-04 2.054E+00 3.775E+02  1.8346 0.99317
  9.000E+02 1.000E+03 2.071E+00 1.871E-04 4.448E-05 0.000E+00 2.315E-04 2.071E+00 4.260E+02  1.9867 0.99447
  1.000E+03 1.101E+03 2.087E+00 2.140E-04 5.740E-05 0.000E+00 2.714E-04 2.087E+00 4.741E+02  2.1275 0.99542
  1.200E+03 1.301E+03 2.116E+00 2.705E-04 8.719E-05 2.257E-05 3.802E-04 2.116E+00 5.693E+02  2.3814 0.99672
  1.400E+03 1.502E+03 2.141E+00 3.299E-04 1.218E-04 6.187E-05 5.136E-04 2.142E+00 6.632E+02  2.6056 0.99753
  1.700E+03 1.803E+03 2.173E+00 4.240E-04 1.818E-04 1.329E-04 7.387E-04 2.174E+00 8.023E+02  2.8998 0.99829
  2.000E+03 2.103E+03 2.201E+00 5.231E-04 2.504E-04 2.170E-04 9.905E-04 2.202E+00 9.394E+02  3.1556 0.99874
  2.500E+03 2.604E+03 2.238E+00 6.980E-04 3.811E-04 3.802E-04 1.459E-03 2.240E+00 1.165E+03  3.5198 0.99918
  3.000E+03 3.104E+03 2.269E+00 8.831E-04 5.296E-04 5.525E-04 1.965E-03 2.271E+00 1.386E+03  3.8277 0.99942
  3.500E+03 3.604E+03 2.294E+00 1.077E-03 6.933E-04 7.356E-04 2.506E-03 2.297E+00 1.605E+03  4.0945 0.99957
  4.000E+03 4.104E+03 2.316E+00 1.278E-03 8.858E-04 9.319E-04 3.096E-03 2.319E+00 1.822E+03  4.3301 0.99967
  4.500E+03 4.604E+03 2.335E+00 1.487E-03 1.097E-03 1.137E-03 3.720E-03 2.339E+00 2.037E+03  4.5412 0.99974
  5.000E+03 5.105E+03 2.352E+00 1.701E-03 1.321E-03 1.334E-03 4.356E-03 2.356E+00 2.250E+03  4.7323 0.99979
  5.500E+03 5.605E+03 2.367E+00 1.921E-03 1.557E-03 1.547E-03 5.024E-03 2.372E+00 2.461E+03  4.9069 0.99982
  6.000E+03 6.105E+03 2.381E+00 2.146E-03 1.803E-03 1.745E-03 5.694E-03 2.386E+00 2.671E+03  5.0678 0.99985
  7.000E+03 7.105E+03 2.404E+00 2.609E-03 2.325E-03 2.167E-03 7.101E-03 2.411E+00 3.088E+03  5.3557 0.99989
  8.000E+03 8.105E+03 2.425E+00 3.089E-03 2.881E-03 2.587E-03 8.557E-03 2.433E+00 3.501E+03  5.6080 0.99992
  9.000E+03 9.105E+03 2.442E+00 3.583E-03 3.467E-03 2.982E-03 1.003E-02 2.452E+00 3.910E+03  5.8325 0.99993
  1.000E+04 1.011E+04 2.458E+00 4.090E-03 4.081E-03 3.392E-03 1.156E-02 2.469E+00 4.317E+03  6.0347 0.99995
  1.200E+04 1.211E+04 2.484E+00 5.139E-03 5.378E-03 4.223E-03 1.474E-02 2.499E+00 5.122E+03  6.3874 0.99996
  1.400E+04 1.411E+04 2.506E+00 6.226E-03 6.758E-03 5.059E-03 1.804E-02 2.524E+00 5.918E+03  6.6879 0.99997
  1.700E+04 1.711E+04 2.533E+00 7.919E-03 8.955E-03 6.300E-03 2.317E-02 2.556E+00 7.100E+03  7.0690 0.99998
  2.000E+04 2.011E+04 2.554E+00 9.675E-03 1.128E-02 7.521E-03 2.848E-02 2.583E+00 8.267E+03  7.3898 0.99999
  2.500E+04 2.511E+04 2.584E+00 1.272E-02 1.539E-02 9.533E-03 3.764E-02 2.621E+00 1.019E+04  7.8321 0.99999
  3.000E+04 3.011E+04 2.607E+00 1.588E-02 1.973E-02 1.151E-02 4.712E-02 2.654E+00 1.208E+04  8.1947 0.99999
  3.500E+04 3.511E+04 2.627E+00 1.913E-02 2.426E-02 1.352E-02 5.692E-02 2.683E+00 1.396E+04  8.5018 1.00000
  4.000E+04 4.011E+04 2.643E+00 2.247E-02 2.896E-02 1.551E-02 6.694E-02 2.710E+00 1.581E+04  8.7681 1.00000
  4.500E+04 4.511E+04 2.658E+00 2.589E-02 3.379E-02 1.747E-02 7.715E-02 2.735E+00 1.765E+04  9.0031 1.00000
  5.000E+04 5.011E+04 2.670E+00 2.936E-02 3.874E-02 1.944E-02 8.754E-02 2.758E+00 1.947E+04  9.2134 1.00000
  5.500E+04 5.511E+04 2.682E+00 3.289E-02 4.380E-02 2.142E-02 9.812E-02 2.780E+00 2.128E+04  9.4036 1.00000
  6.000E+04 6.011E+04 2.692E+00 3.648E-02 4.895E-02 2.338E-02 1.088E-01 2.801E+00 2.307E+04  9.5773 1.00000
  7.000E+04 7.011E+04 2.710E+00 4.378E-02 5.950E-02 2.729E-02 1.306E-01 2.841E+00 2.661E+04  9.8851 1.00000
  8.000E+04 8.011E+04 2.726E+00 5.124E-02 7.032E-02 3.121E-02 1.528E-01 2.879E+00 3.011E+04 10.1518 1.00000
  9.000E+04 9.011E+04 2.740E+00 5.884E-02 8.138E-02 3.513E-02 1.754E-01 2.915E+00 3.356E+04 10.3871 1.00000
  1.000E+05 1.001E+05 2.752E+00 6.656E-02 9.264E-02 3.899E-02 1.982E-01 2.950E+00 3.697E+04 10.5975 1.00000
  1.200E+05 1.201E+05 2.773E+00 8.229E-02 1.157E-01 4.684E-02 2.448E-01 3.017E+00 4.368E+04 10.9618 1.00000
  1.400E+05 1.401E+05 2.790E+00 9.837E-02 1.392E-01 5.471E-02 2.923E-01 3.082E+00 5.023E+04 11.2699 1.00000
  1.700E+05 1.701E+05 2.812E+00 1.230E-01 1.754E-01 6.653E-02 3.650E-01 3.177E+00 5.982E+04 11.6579 1.00000
  2.000E+05 2.001E+05 2.830E+00 1.482E-01 2.124E-01 7.844E-02 4.390E-01 3.269E+00 6.913E+04 11.9828 1.00000
  2.500E+05 2.501E+05 2.856E+00 1.910E-01 2.752E-01 9.836E-02 5.646E-01 3.420E+00 8.409E+04 12.4289 1.00000
  3.000E+05 3.001E+05 2.876E+00 2.347E-01 3.393E-01 1.184E-01 6.925E-01 3.569E+00 9.840E+04 12.7934 1.00000
  3.500E+05 3.501E+05 2.893E+00 2.791E-01 4.044E-01 1.388E-01 8.223E-01 3.716E+00 1.121E+05 13.1016 1.00000
  4.000E+05 4.001E+05 2.908E+00 3.242E-01 4.701E-01 1.593E-01 9.536E-01 3.862E+00 1.253E+05 13.3685 1.00000
  4.500E+05 4.501E+05 2.922E+00 3.696E-01 5.365E-01 1.798E-01 1.086E+00 4.008E+00 1.380E+05 13.6041 1.00000
  5.000E+05 5.001E+05 2.934E+00 4.156E-01 6.034E-01 2.006E-01 1.220E+00 4.153E+00 1.503E+05 13.8147 1.00000
  5.500E+05 5.501E+05 2.944E+00 4.619E-01 6.707E-01 2.212E-01 1.354E+00 4.298E+00 1.621E+05 14.0053 1.00000
  6.000E+05 6.001E+05 2.954E+00 5.086E-01 7.383E-01 2.419E-01 1.489E+00 4.443E+00 1.736E+05 14.1793 1.00000
  7.000E+05 7.001E+05 2.972E+00 6.027E-01 8.746E-01 2.838E-01 1.761E+00 4.733E+00 1.954E+05 14.4876 1.00000
  8.000E+05 8.001E+05 2.987E+00 6.978E-01 1.012E+00 3.261E-01 2.036E+00 5.023E+00 2.159E+05 14.7546 1.00000
  9.000E+05 9.001E+05 3.000E+00 7.937E-01 1.150E+00 3.688E-01 2.312E+00 5.313E+00 2.353E+05 14.9901 1.00000
  1.000E+06 1.000E+06 3.012E+00 8.902E-01 1.289E+00 4.120E-01 2.591E+00 5.603E+00 2.536E+05 15.2008 1.00000
  1.200E+06 1.200E+06 3.033E+00 1.085E+00 1.568E+00 4.993E-01 3.152E+00 6.185E+00 2.876E+05 15.5654 1.00000
  1.400E+06 1.400E+06 3.051E+00 1.282E+00 1.848E+00 5.879E-01 3.718E+00 6.769E+00 3.186E+05 15.8737 1.00000
  1.700E+06 1.700E+06 3.074E+00 1.579E+00 2.272E+00 7.228E-01 4.574E+00 7.648E+00 3.604E+05 16.2620 1.00000
  2.000E+06 2.000E+06 3.093E+00 1.879E+00 2.697E+00 8.600E-01 5.436E+00 8.529E+00 3.976E+05 16.5870 1.00000
  2.500E+06 2.500E+06 3.119E+00 2.383E+00 3.410E+00 1.093E+00 6.886E+00 1.001E+01 4.519E+05 17.0333 1.00000
  3.000E+06 3.000E+06 3.141E+00 2.891E+00 4.125E+00 1.330E+00 8.347E+00 1.149E+01 4.986E+05 17.3979 1.00000
  3.500E+06 3.500E+06 3.160E+00 3.402E+00 4.843E+00 1.571E+00 9.817E+00 1.298E+01 5.396E+05 17.7062 1.00000
  4.000E+06 4.000E+06 3.176E+00 3.916E+00 5.562E+00 1.816E+00 1.129E+01 1.447E+01 5.762E+05 17.9732 1.00000
  4.500E+06 4.500E+06 3.190E+00 4.431E+00 6.283E+00 2.064E+00 1.278E+01 1.597E+01 6.091E+05 18.2088 1.00000
  5.000E+06 5.000E+06 3.203E+00 4.948E+00 7.004E+00 2.314E+00 1.427E+01 1.747E+01 6.391E+05 18.4195 1.00000
  5.500E+06 5.500E+06 3.215E+00 5.466E+00 7.727E+00 2.568E+00 1.576E+01 1.897E+01 6.666E+05 18.6101 1.00000
  6.000E+06 6.000E+06 3.225E+00 5.985E+00 8.450E+00 2.823E+00 1.726E+01 2.048E+01 6.919E+05 18.7842 1.00000
  7.000E+06 7.000E+06 3.244E+00 7.027E+00 9.898E+00 3.341E+00 2.027E+01 2.351E+01 7.376E+05 19.0924 1.00000
  8.000E+06 8.000E+06 3.261E+00 8.072E+00 1.135E+01 3.866E+00 2.328E+01 2.655E+01 7.777E+05 19.3595 1.00000
  9.000E+06 9.000E+06 3.276E+00 9.119E+00 1.280E+01 4.398E+00 2.632E+01 2.959E+01 8.135E+05 19.5951 1.00000
  1.000E+07 1.000E+07 3.289E+00 1.017E+01 1.425E+01 4.936E+00 2.935E+01 3.264E+01 8.457E+05 19.8058 1.00000
  1.200E+07 1.200E+07 3.312E+00 1.227E+01 1.716E+01 6.030E+00 3.546E+01 3.877E+01 9.021E+05 20.1704 1.00000
  1.400E+07 1.400E+07 3.332E+00 1.438E+01 2.007E+01 7.143E+00 4.159E+01 4.492E+01 9.501E+05 20.4787 1.00000
  1.700E+07 1.700E+07 3.357E+00 1.755E+01 2.444E+01 8.844E+00 5.083E+01 5.419E+01 1.011E+06 20.8670 1.00000
  2.000E+07 2.000E+07 3.378E+00 2.073E+01 2.881E+01 1.058E+01 6.011E+01 6.349E+01 1.063E+06 21.1921 1.00000
  2.500E+07 2.500E+07 3.407E+00 2.603E+01 3.610E+01 1.353E+01 7.566E+01 7.906E+01 1.134E+06 21.6384 1.00000
  3.000E+07 3.000E+07 3.431E+00 3.134E+01 4.339E+01 1.655E+01 9.128E+01 9.471E+01 1.192E+06 22.0030 1.00000
  3.500E+07 3.500E+07 3.451E+00 3.666E+01 5.069E+01 1.962E+01 1.070E+02 1.104E+02 1.241E+06 22.3113 1.00000
  4.000E+07 4.000E+07 3.469E+00 4.198E+01 5.799E+01 2.274E+01 1.227E+02 1.262E+02 1.283E+06 22.5784 1.00000
  4.500E+07 4.500E+07 3.485E+00 4.731E+01 6.529E+01 2.590E+01 1.385E+02 1.420E+02 1.320E+06 22.8139 1.00000
  5.000E+07 5.000E+07 3.499E+00 5.264E+01 7.260E+01 2.911E+01 1.543E+02 1.578E+02 1.354E+06 23.0246 1.00000
  5.500E+07 5.500E+07 3.512E+00 5.797E+01 7.990E+01 3.235E+01 1.702E+02 1.737E+02 1.384E+06 23.2153 1.00000
  6.000E+07 6.000E+07 3.524E+00 6.331E+01 8.720E+01 3.562E+01 1.861E+02 1.897E+02 1.412E+06 23.3893 1.00000
  7.000E+07 7.000E+07 3.546E+00 7.398E+01 1.018E+02 4.226E+01 2.181E+02 2.216E+02 1.461E+06 23.6976 1.00000
  8.000E+07 8.000E+07 3.564E+00 8.467E+01 1.164E+02 4.900E+01 2.501E+02 2.537E+02 1.503E+06 23.9647 1.00000
  9.000E+07 9.000E+07 3.580E+00 9.535E+01 1.310E+02 5.584E+01 2.822E+02 2.858E+02 1.540E+06 24.2002 1.00000
  1.000E+08 1.000E+08 3.595E+00 1.060E+02 1.457E+02 6.277E+01 3.145E+02 3.181E+02 1.573E+06 24.4109 1.00000
  1.200E+08 1.200E+08 3.621E+00 1.274E+02 1.749E+02 7.685E+01 3.792E+02 3.828E+02 1.631E+06 24.7756 1.00000
  1.400E+08 1.400E+08 3.643E+00 1.488E+02 2.041E+02 9.120E+01 4.442E+02 4.478E+02 1.679E+06 25.0839 1.00000
  1.700E+08 1.700E+08 3.671E+00 1.809E+02 2.480E+02 1.132E+02 5.421E+02 5.457E+02 1.740E+06 25.4722 1.00000
  2.000E+08 2.000E+08 3.694E+00 2.130E+02 2.919E+02 1.356E+02 6.405E+02 6.442E+02 1.791E+06 25.7972 1.00000
  2.500E+08 2.500E+08 3.727E+00 2.666E+02 3.650E+02 1.738E+02 8.053E+02 8.090E+02 1.861E+06 26.2435 1.00000
  3.000E+08 3.000E+08 3.753E+00 3.201E+02 4.381E+02 2.129E+02 9.710E+02 9.748E+02 1.917E+06 26.6082 1.00000
  3.500E+08 3.500E+08 3.776E+00 3.737E+02 5.112E+02 2.527E+02 1.138E+03 1.141E+03 1.965E+06 26.9165 1.00000
  4.000E+08 4.000E+08 3.796E+00 4.272E+02 5.843E+02 2.932E+02 1.305E+03 1.309E+03 2.006E+06 27.1835 1.00000
  4.500E+08 4.500E+08 3.814E+00 4.808E+02 6.574E+02 3.344E+02 1.473E+03 1.476E+03 2.042E+06 27.4191 1.00000
  5.000E+08 5.000E+08 3.830E+00 5.343E+02 7.305E+02 3.760E+02 1.641E+03 1.645E+03 2.074E+06 27.6298 1.00000
  5.500E+08 5.500E+08 3.844E+00 5.879E+02 8.036E+02 4.182E+02 1.810E+03 1.814E+03 2.103E+06 27.8204 1.00000
  6.000E+08 6.000E+08 3.858E+00 6.415E+02 8.768E+02 4.608E+02 1.979E+03 1.983E+03 2.129E+06 27.9945 1.00000
  7.000E+08 7.000E+08 3.881E+00 7.486E+02 1.023E+03 5.472E+02 2.319E+03 2.323E+03 2.176E+06 28.3028 1.00000
  8.000E+08 8.000E+08 3.902E+00 8.558E+02 1.169E+03 6.351E+02 2.660E+03 2.664E+03 2.216E+06 28.5698 1.00000
  9.000E+08 9.000E+08 3.920E+00 9.629E+02 1.315E+03 7.244E+02 3.003E+03 3.007E+03 2.252E+06 28.8054 1.00000
  1.000E+09 1.000E+09 3.937E+00 1.070E+03 1.462E+03 8.148E+02 3.347E+03 3.350E+03 2.283E+06 29.0161 1.00000
