 Incident particle is a Muon with M = 105.65839 MeV
 Index = 0: Actinium
      Absorber with <Z/A> = 0.39202
 Sternheimer coef:  a     k=m_s   x_0    x_1    I[eV]   Cbar  delta0
                 0.0857  3.2683  0.4559  3.7966  841.0  6.3742 0.14

 *** Table generated with PUMAS v1.00 ***

      T         p     Ionization  brems     pair     photonuc  Radloss    dE/dx   CSDA Range  delta   beta
    [MeV]    [MeV/c]  -----------------------[MeV cm^2/g]------------------------  [g/cm^2]
  1.000E+00 1.457E+01 2.010E+01 5.939E-06 0.000E+00 0.000E+00 5.939E-06 2.010E+01 2.487E-02  0.0003 0.13661
  1.200E+00 1.597E+01 1.777E+01 6.819E-06 0.000E+00 0.000E+00 6.819E-06 1.777E+01 3.547E-02  0.0004 0.14944
  1.400E+00 1.726E+01 1.597E+01 7.651E-06 0.000E+00 0.000E+00 7.651E-06 1.597E+01 4.736E-02  0.0005 0.16119
  1.700E+00 1.903E+01 1.394E+01 8.825E-06 0.000E+00 0.000E+00 8.825E-06 1.394E+01 6.752E-02  0.0006 0.17725
  2.000E+00 2.066E+01 1.242E+01 9.927E-06 0.000E+00 0.000E+00 9.927E-06 1.242E+01 9.036E-02  0.0007 0.19186
  2.500E+00 2.312E+01 1.057E+01 1.163E-05 0.000E+00 0.000E+00 1.163E-05 1.057E+01 1.341E-01  0.0008 0.21376
  3.000E+00 2.536E+01 9.259E+00 1.320E-05 0.000E+00 0.000E+00 1.320E-05 9.259E+00 1.848E-01  0.0010 0.23336
  3.500E+00 2.742E+01 8.273E+00 1.467E-05 0.000E+00 0.000E+00 1.467E-05 8.273E+00 2.420E-01  0.0012 0.25120
  4.000E+00 2.935E+01 7.502E+00 1.605E-05 0.000E+00 0.000E+00 1.605E-05 7.502E+00 3.056E-01  0.0013 0.26763
  4.500E+00 3.116E+01 6.882E+00 1.735E-05 0.000E+00 0.000E+00 1.735E-05 6.882E+00 3.752E-01  0.0015 0.28290
  5.000E+00 3.289E+01 6.371E+00 1.858E-05 0.000E+00 0.000E+00 1.858E-05 6.371E+00 4.508E-01  0.0017 0.29720
  5.500E+00 3.453E+01 5.942E+00 1.976E-05 0.000E+00 0.000E+00 1.976E-05 5.942E+00 5.321E-01  0.0018 0.31066
  6.000E+00 3.611E+01 5.577E+00 2.089E-05 0.000E+00 0.000E+00 2.089E-05 5.577E+00 6.190E-01  0.0020 0.32339
  7.000E+00 3.909E+01 4.986E+00 2.302E-05 0.000E+00 0.000E+00 2.302E-05 4.986E+00 8.089E-01  0.0023 0.34700
  8.000E+00 4.189E+01 4.529E+00 2.500E-05 0.000E+00 0.000E+00 2.500E-05 4.529E+00 1.020E+00  0.0027 0.36854
  9.000E+00 4.453E+01 4.164E+00 2.687E-05 0.000E+00 0.000E+00 2.687E-05 4.164E+00 1.250E+00  0.0030 0.38836
  1.000E+01 4.704E+01 3.865E+00 2.863E-05 0.000E+00 0.000E+00 2.863E-05 3.865E+00 1.500E+00  0.0034 0.40675
  1.200E+01 5.177E+01 3.405E+00 3.192E-05 0.000E+00 0.000E+00 3.192E-05 3.405E+00 2.052E+00  0.0041 0.43998
  1.400E+01 5.616E+01 3.066E+00 3.495E-05 0.000E+00 0.000E+00 3.495E-05 3.066E+00 2.672E+00  0.0048 0.46937
  1.700E+01 6.230E+01 2.697E+00 3.914E-05 0.000E+00 0.000E+00 3.914E-05 2.697E+00 3.717E+00  0.0060 0.50792
  2.000E+01 6.802E+01 2.432E+00 4.302E-05 0.000E+00 0.000E+00 4.302E-05 2.432E+00 4.890E+00  0.0071 0.54129
  2.500E+01 7.686E+01 2.125E+00 4.903E-05 0.000E+00 0.000E+00 4.903E-05 2.125E+00 7.094E+00  0.0091 0.58827
  3.000E+01 8.509E+01 1.917E+00 5.465E-05 0.000E+00 0.000E+00 5.465E-05 1.917E+00 9.575E+00  0.0111 0.62720
  3.500E+01 9.285E+01 1.767E+00 6.004E-05 0.000E+00 0.000E+00 6.004E-05 1.767E+00 1.229E+01  0.0132 0.66011
  4.000E+01 1.003E+02 1.654E+00 6.529E-05 0.000E+00 0.000E+00 6.529E-05 1.654E+00 1.522E+01  0.0154 0.68834
  4.500E+01 1.074E+02 1.566E+00 7.044E-05 0.000E+00 0.000E+00 7.044E-05 1.566E+00 1.833E+01  0.0177 0.71286
  5.000E+01 1.143E+02 1.497E+00 7.555E-05 0.000E+00 0.000E+00 7.555E-05 1.497E+00 2.159E+01  0.0201 0.73434
  5.500E+01 1.210E+02 1.440E+00 8.065E-05 0.000E+00 0.000E+00 8.065E-05 1.440E+00 2.500E+01  0.0225 0.75332
  6.000E+01 1.276E+02 1.394E+00 8.574E-05 0.000E+00 0.000E+00 8.574E-05 1.394E+00 2.853E+01  0.0250 0.77019
  7.000E+01 1.403E+02 1.322E+00 9.599E-05 0.000E+00 0.000E+00 9.599E-05 1.322E+00 3.590E+01  0.0303 0.79887
  8.000E+01 1.527E+02 1.271E+00 1.064E-04 0.000E+00 0.000E+00 1.064E-04 1.271E+00 4.361E+01  0.0358 0.82227
  9.000E+01 1.647E+02 1.233E+00 1.169E-04 0.000E+00 0.000E+00 1.169E-04 1.233E+00 5.161E+01  0.0417 0.84166
  1.000E+02 1.764E+02 1.204E+00 1.277E-04 0.000E+00 0.000E+00 1.277E-04 1.204E+00 5.981E+01  0.0478 0.85794
  1.200E+02 1.994E+02 1.165E+00 1.500E-04 0.000E+00 0.000E+00 1.500E-04 1.165E+00 7.671E+01  0.0611 0.88361
  1.400E+02 2.218E+02 1.141E+00 1.731E-04 0.000E+00 0.000E+00 1.731E-04 1.141E+00 9.406E+01  0.0756 0.90278
  1.700E+02 2.546E+02 1.122E+00 2.096E-04 0.000E+00 0.000E+00 2.096E-04 1.122E+00 1.206E+02  0.0996 0.92363
  2.000E+02 2.868E+02 1.114E+00 2.482E-04 0.000E+00 0.000E+00 2.482E-04 1.114E+00 1.474E+02  0.1264 0.93835
  2.500E+02 3.396E+02 1.114E+00 3.167E-04 0.000E+00 0.000E+00 3.167E-04 1.114E+00 1.923E+02  0.1598 0.95485
  3.000E+02 3.917E+02 1.121E+00 3.901E-04 0.000E+00 0.000E+00 3.901E-04 1.122E+00 2.370E+02  0.1921 0.96548
  3.500E+02 4.432E+02 1.132E+00 4.681E-04 0.000E+00 0.000E+00 4.681E-04 1.132E+00 2.814E+02  0.2289 0.97274
  4.000E+02 4.945E+02 1.144E+00 5.502E-04 0.000E+00 0.000E+00 5.502E-04 1.144E+00 3.253E+02  0.2680 0.97793
  4.500E+02 5.455E+02 1.156E+00 6.362E-04 0.000E+00 0.000E+00 6.362E-04 1.156E+00 3.688E+02  0.3083 0.98176
  5.000E+02 5.964E+02 1.168E+00 7.257E-04 6.539E-05 0.000E+00 7.911E-04 1.168E+00 4.118E+02  0.3491 0.98467
  5.500E+02 6.471E+02 1.179E+00 8.186E-04 1.160E-04 0.000E+00 9.346E-04 1.180E+00 4.544E+02  0.3899 0.98693
  6.000E+02 6.977E+02 1.190E+00 9.146E-04 1.567E-04 0.000E+00 1.071E-03 1.192E+00 4.965E+02  0.4303 0.98873
  7.000E+02 7.987E+02 1.212E+00 1.115E-03 2.494E-04 0.000E+00 1.365E-03 1.213E+00 5.797E+02  0.5098 0.99136
  8.000E+02 8.995E+02 1.231E+00 1.327E-03 3.603E-04 0.000E+00 1.687E-03 1.232E+00 6.615E+02  0.5866 0.99317
  9.000E+02 1.000E+03 1.248E+00 1.548E-03 4.885E-04 0.000E+00 2.036E-03 1.250E+00 7.421E+02  0.6607 0.99447
  1.000E+03 1.101E+03 1.264E+00 1.778E-03 6.329E-04 0.000E+00 2.411E-03 1.267E+00 8.216E+02  0.7318 0.99542
  1.200E+03 1.301E+03 1.293E+00 2.262E-03 9.666E-04 2.244E-05 3.251E-03 1.296E+00 9.777E+02  0.8660 0.99672
  1.400E+03 1.502E+03 1.317E+00 2.774E-03 1.355E-03 6.080E-05 4.190E-03 1.321E+00 1.130E+03  0.9902 0.99753
  1.700E+03 1.803E+03 1.348E+00 3.588E-03 2.029E-03 1.286E-04 5.745E-03 1.354E+00 1.355E+03  1.1605 0.99829
  2.000E+03 2.103E+03 1.374E+00 4.449E-03 2.799E-03 2.072E-04 7.455E-03 1.381E+00 1.574E+03  1.3147 0.99874
  2.500E+03 2.604E+03 1.409E+00 5.975E-03 4.268E-03 3.570E-04 1.060E-02 1.420E+00 1.931E+03  1.5431 0.99918
  3.000E+03 3.104E+03 1.437E+00 7.596E-03 5.935E-03 5.117E-04 1.404E-02 1.451E+00 2.280E+03  1.7437 0.99942
  3.500E+03 3.604E+03 1.461E+00 9.297E-03 7.773E-03 6.736E-04 1.774E-02 1.479E+00 2.621E+03  1.9228 0.99957
  4.000E+03 4.104E+03 1.481E+00 1.107E-02 9.767E-03 8.451E-04 2.168E-02 1.503E+00 2.957E+03  2.0847 0.99967
  4.500E+03 4.604E+03 1.498E+00 1.290E-02 1.190E-02 1.022E-03 2.582E-02 1.524E+00 3.287E+03  2.2325 0.99974
  5.000E+03 5.105E+03 1.514E+00 1.479E-02 1.415E-02 1.191E-03 3.013E-02 1.544E+00 3.613E+03  2.3687 0.99979
  5.500E+03 5.605E+03 1.527E+00 1.672E-02 1.651E-02 1.373E-03 3.460E-02 1.562E+00 3.935E+03  2.4949 0.99982
  6.000E+03 6.105E+03 1.540E+00 1.870E-02 1.897E-02 1.541E-03 3.921E-02 1.579E+00 4.253E+03  2.6127 0.99985
  7.000E+03 7.105E+03 1.561E+00 2.279E-02 2.414E-02 1.896E-03 4.883E-02 1.610E+00 4.881E+03  2.8270 0.99989
  8.000E+03 8.105E+03 1.579E+00 2.701E-02 2.963E-02 2.246E-03 5.889E-02 1.638E+00 5.496E+03  3.0183 0.99992
  9.000E+03 9.105E+03 1.595E+00 3.137E-02 3.539E-02 2.574E-03 6.933E-02 1.664E+00 6.102E+03  3.1913 0.99993
  1.000E+04 1.011E+04 1.609E+00 3.583E-02 4.138E-02 2.910E-03 8.012E-02 1.689E+00 6.699E+03  3.3493 0.99995
  1.200E+04 1.211E+04 1.632E+00 4.504E-02 5.399E-02 3.590E-03 1.026E-01 1.734E+00 7.867E+03  3.6295 0.99996
  1.400E+04 1.411E+04 1.651E+00 5.459E-02 6.730E-02 4.266E-03 1.262E-01 1.777E+00 9.007E+03  3.8730 0.99997
  1.700E+04 1.711E+04 1.674E+00 6.943E-02 8.834E-02 5.263E-03 1.630E-01 1.837E+00 1.067E+04  4.1877 0.99998
  2.000E+04 2.011E+04 1.693E+00 8.478E-02 1.104E-01 6.236E-03 2.015E-01 1.894E+00 1.228E+04  4.4576 0.99999
  2.500E+04 2.511E+04 1.717E+00 1.113E-01 1.492E-01 7.823E-03 2.683E-01 1.986E+00 1.485E+04  4.8371 0.99999
  3.000E+04 3.011E+04 1.737E+00 1.388E-01 1.898E-01 9.374E-03 3.379E-01 2.075E+00 1.732E+04  5.1544 0.99999
  3.500E+04 3.511E+04 1.753E+00 1.670E-01 2.318E-01 1.093E-02 4.098E-01 2.162E+00 1.968E+04  5.4273 1.00000
  4.000E+04 4.011E+04 1.766E+00 1.959E-01 2.751E-01 1.247E-02 4.835E-01 2.250E+00 2.195E+04  5.6669 1.00000
  4.500E+04 4.511E+04 1.778E+00 2.254E-01 3.194E-01 1.398E-02 5.587E-01 2.336E+00 2.413E+04  5.8806 1.00000
  5.000E+04 5.011E+04 1.788E+00 2.553E-01 3.645E-01 1.549E-02 6.353E-01 2.423E+00 2.623E+04  6.0735 1.00000
  5.500E+04 5.511E+04 1.797E+00 2.857E-01 4.104E-01 1.701E-02 7.131E-01 2.510E+00 2.826E+04  6.2494 1.00000
  6.000E+04 6.011E+04 1.805E+00 3.165E-01 4.570E-01 1.851E-02 7.920E-01 2.597E+00 3.022E+04  6.4110 1.00000
  7.000E+04 7.011E+04 1.819E+00 3.790E-01 5.517E-01 2.147E-02 9.523E-01 2.771E+00 3.395E+04  6.6997 1.00000
  8.000E+04 8.011E+04 1.831E+00 4.427E-01 6.484E-01 2.444E-02 1.116E+00 2.947E+00 3.745E+04  6.9521 1.00000
  9.000E+04 9.011E+04 1.842E+00 5.074E-01 7.466E-01 2.741E-02 1.281E+00 3.123E+00 4.074E+04  7.1764 1.00000
  1.000E+05 1.001E+05 1.851E+00 5.730E-01 8.461E-01 3.031E-02 1.449E+00 3.300E+00 4.386E+04  7.3781 1.00000
  1.200E+05 1.201E+05 1.867E+00 7.063E-01 1.048E+00 3.621E-02 1.791E+00 3.657E+00 4.962E+04  7.7298 1.00000
  1.400E+05 1.401E+05 1.880E+00 8.420E-01 1.254E+00 4.210E-02 2.138E+00 4.018E+00 5.485E+04  8.0293 1.00000
  1.700E+05 1.701E+05 1.896E+00 1.049E+00 1.567E+00 5.092E-02 2.667E+00 4.563E+00 6.187E+04  8.4090 1.00000
  2.000E+05 2.001E+05 1.909E+00 1.260E+00 1.885E+00 5.977E-02 3.204E+00 5.114E+00 6.809E+04  8.7286 1.00000
  2.500E+05 2.501E+05 1.927E+00 1.617E+00 2.422E+00 7.455E-02 4.113E+00 6.040E+00 7.712E+04  9.1698 1.00000
  3.000E+05 3.001E+05 1.942E+00 1.980E+00 2.965E+00 8.941E-02 5.034E+00 6.977E+00 8.484E+04  9.5318 1.00000
  3.500E+05 3.501E+05 1.955E+00 2.347E+00 3.514E+00 1.044E-01 5.965E+00 7.920E+00 9.158E+04  9.8386 1.00000
  4.000E+05 4.001E+05 1.965E+00 2.718E+00 4.066E+00 1.195E-01 6.904E+00 8.869E+00 9.755E+04 10.1049 1.00000
  4.500E+05 4.501E+05 1.975E+00 3.092E+00 4.622E+00 1.347E-01 7.849E+00 9.824E+00 1.029E+05 10.3401 1.00000
  5.000E+05 5.001E+05 1.983E+00 3.469E+00 5.180E+00 1.499E-01 8.799E+00 1.078E+01 1.078E+05 10.5506 1.00000
  5.500E+05 5.501E+05 1.991E+00 3.848E+00 5.740E+00 1.651E-01 9.753E+00 1.174E+01 1.122E+05 10.7411 1.00000
  6.000E+05 6.001E+05 1.998E+00 4.228E+00 6.302E+00 1.803E-01 1.071E+01 1.271E+01 1.163E+05 10.9151 1.00000
  7.000E+05 7.001E+05 2.011E+00 4.995E+00 7.431E+00 2.110E-01 1.264E+01 1.465E+01 1.237E+05 11.2234 1.00000
  8.000E+05 8.001E+05 2.021E+00 5.766E+00 8.564E+00 2.420E-01 1.457E+01 1.659E+01 1.301E+05 11.4904 1.00000
  9.000E+05 9.001E+05 2.031E+00 6.542E+00 9.701E+00 2.733E-01 1.652E+01 1.855E+01 1.358E+05 11.7259 1.00000
  1.000E+06 1.000E+06 2.040E+00 7.322E+00 1.084E+01 3.049E-01 1.847E+01 2.051E+01 1.409E+05 11.9366 1.00000
  1.200E+06 1.200E+06 2.055E+00 8.890E+00 1.313E+01 3.687E-01 2.239E+01 2.444E+01 1.499E+05 12.3012 1.00000
  1.400E+06 1.400E+06 2.067E+00 1.047E+01 1.542E+01 4.335E-01 2.633E+01 2.839E+01 1.575E+05 12.6095 1.00000
  1.700E+06 1.700E+06 2.084E+00 1.285E+01 1.888E+01 5.321E-01 3.226E+01 3.434E+01 1.672E+05 12.9978 1.00000
  2.000E+06 2.000E+06 2.097E+00 1.524E+01 2.234E+01 6.323E-01 3.821E+01 4.031E+01 1.753E+05 13.3228 1.00000
  2.500E+06 2.500E+06 2.116E+00 1.925E+01 2.813E+01 8.023E-01 4.818E+01 5.029E+01 1.864E+05 13.7691 1.00000
  3.000E+06 3.000E+06 2.132E+00 2.327E+01 3.393E+01 9.755E-01 5.817E+01 6.031E+01 1.956E+05 14.1337 1.00000
  3.500E+06 3.500E+06 2.145E+00 2.731E+01 3.973E+01 1.152E+00 6.820E+01 7.034E+01 2.033E+05 14.4420 1.00000
  4.000E+06 4.000E+06 2.156E+00 3.136E+01 4.555E+01 1.330E+00 7.824E+01 8.040E+01 2.099E+05 14.7090 1.00000
  4.500E+06 4.500E+06 2.167E+00 3.542E+01 5.137E+01 1.511E+00 8.830E+01 9.047E+01 2.158E+05 14.9446 1.00000
  5.000E+06 5.000E+06 2.176E+00 3.948E+01 5.719E+01 1.693E+00 9.837E+01 1.005E+02 2.210E+05 15.1553 1.00000
  5.500E+06 5.500E+06 2.184E+00 4.355E+01 6.302E+01 1.878E+00 1.085E+02 1.106E+02 2.258E+05 15.3459 1.00000
  6.000E+06 6.000E+06 2.192E+00 4.763E+01 6.885E+01 2.064E+00 1.185E+02 1.207E+02 2.301E+05 15.5200 1.00000
  7.000E+06 7.000E+06 2.205E+00 5.579E+01 8.052E+01 2.441E+00 1.388E+02 1.410E+02 2.378E+05 15.8282 1.00000
  8.000E+06 8.000E+06 2.217E+00 6.396E+01 9.220E+01 2.824E+00 1.590E+02 1.612E+02 2.445E+05 16.0953 1.00000
  9.000E+06 9.000E+06 2.228E+00 7.214E+01 1.039E+02 3.212E+00 1.792E+02 1.815E+02 2.503E+05 16.3309 1.00000
  1.000E+07 1.000E+07 2.237E+00 8.033E+01 1.156E+02 3.604E+00 1.995E+02 2.017E+02 2.555E+05 16.5416 1.00000
  1.200E+07 1.200E+07 2.254E+00 9.673E+01 1.390E+02 4.401E+00 2.401E+02 2.423E+02 2.646E+05 16.9062 1.00000
  1.400E+07 1.400E+07 2.268E+00 1.131E+02 1.624E+02 5.211E+00 2.807E+02 2.830E+02 2.723E+05 17.2145 1.00000
  1.700E+07 1.700E+07 2.286E+00 1.378E+02 1.975E+02 6.450E+00 3.417E+02 3.440E+02 2.819E+05 17.6028 1.00000
  2.000E+07 2.000E+07 2.301E+00 1.625E+02 2.326E+02 7.713E+00 4.028E+02 4.051E+02 2.900E+05 17.9279 1.00000
  2.500E+07 2.500E+07 2.321E+00 2.036E+02 2.912E+02 9.862E+00 5.046E+02 5.070E+02 3.011E+05 18.3742 1.00000
  3.000E+07 3.000E+07 2.339E+00 2.448E+02 3.497E+02 1.206E+01 6.066E+02 6.089E+02 3.101E+05 18.7388 1.00000
  3.500E+07 3.500E+07 2.353E+00 2.860E+02 4.083E+02 1.430E+01 7.086E+02 7.110E+02 3.178E+05 19.0471 1.00000
  4.000E+07 4.000E+07 2.366E+00 3.272E+02 4.669E+02 1.657E+01 8.107E+02 8.131E+02 3.244E+05 19.3142 1.00000
  4.500E+07 4.500E+07 2.377E+00 3.685E+02 5.255E+02 1.887E+01 9.129E+02 9.152E+02 3.302E+05 19.5497 1.00000
  5.000E+07 5.000E+07 2.388E+00 4.097E+02 5.841E+02 2.121E+01 1.015E+03 1.017E+03 3.354E+05 19.7604 1.00000
  5.500E+07 5.500E+07 2.397E+00 4.510E+02 6.427E+02 2.357E+01 1.117E+03 1.120E+03 3.400E+05 19.9511 1.00000
  6.000E+07 6.000E+07 2.405E+00 4.922E+02 7.014E+02 2.595E+01 1.220E+03 1.222E+03 3.443E+05 20.1251 1.00000
  7.000E+07 7.000E+07 2.420E+00 5.748E+02 8.186E+02 3.078E+01 1.424E+03 1.427E+03 3.519E+05 20.4334 1.00000
  8.000E+07 8.000E+07 2.434E+00 6.573E+02 9.358E+02 3.569E+01 1.629E+03 1.631E+03 3.585E+05 20.7005 1.00000
  9.000E+07 9.000E+07 2.445E+00 7.399E+02 1.053E+03 4.067E+01 1.834E+03 1.836E+03 3.643E+05 20.9360 1.00000
  1.000E+08 1.000E+08 2.456E+00 8.224E+02 1.170E+03 4.572E+01 2.038E+03 2.041E+03 3.695E+05 21.1467 1.00000
  1.200E+08 1.200E+08 2.474E+00 9.876E+02 1.405E+03 5.597E+01 2.448E+03 2.451E+03 3.784E+05 21.5114 1.00000
  1.400E+08 1.400E+08 2.490E+00 1.153E+03 1.639E+03 6.642E+01 2.859E+03 2.861E+03 3.860E+05 21.8197 1.00000
  1.700E+08 1.700E+08 2.510E+00 1.401E+03 1.991E+03 8.241E+01 3.474E+03 3.477E+03 3.956E+05 22.2080 1.00000
  2.000E+08 2.000E+08 2.526E+00 1.648E+03 2.343E+03 9.873E+01 4.090E+03 4.093E+03 4.035E+05 22.5330 1.00000
  2.500E+08 2.500E+08 2.550E+00 2.061E+03 2.929E+03 1.265E+02 5.117E+03 5.120E+03 4.145E+05 22.9793 1.00000
  3.000E+08 3.000E+08 2.569E+00 2.475E+03 3.516E+03 1.550E+02 6.145E+03 6.148E+03 4.235E+05 23.3440 1.00000
  3.500E+08 3.500E+08 2.585E+00 2.888E+03 4.102E+03 1.840E+02 7.174E+03 7.176E+03 4.310E+05 23.6523 1.00000
  4.000E+08 4.000E+08 2.599E+00 3.301E+03 4.688E+03 2.135E+02 8.203E+03 8.205E+03 4.376E+05 23.9193 1.00000
  4.500E+08 4.500E+08 2.612E+00 3.714E+03 5.275E+03 2.435E+02 9.232E+03 9.235E+03 4.433E+05 24.1549 1.00000
  5.000E+08 5.000E+08 2.623E+00 4.127E+03 5.861E+03 2.738E+02 1.026E+04 1.026E+04 4.485E+05 24.3656 1.00000
  5.500E+08 5.500E+08 2.634E+00 4.540E+03 6.447E+03 3.045E+02 1.129E+04 1.129E+04 4.531E+05 24.5562 1.00000
  6.000E+08 6.000E+08 2.643E+00 4.953E+03 7.034E+03 3.355E+02 1.232E+04 1.233E+04 4.574E+05 24.7303 1.00000
  7.000E+08 7.000E+08 2.660E+00 5.780E+03 8.206E+03 3.985E+02 1.438E+04 1.439E+04 4.649E+05 25.0386 1.00000
  8.000E+08 8.000E+08 2.675E+00 6.606E+03 9.379E+03 4.625E+02 1.645E+04 1.645E+04 4.714E+05 25.3056 1.00000
  9.000E+08 9.000E+08 2.688E+00 7.432E+03 1.055E+04 5.275E+02 1.851E+04 1.851E+04 4.771E+05 25.5412 1.00000
  1.000E+09 1.000E+09 2.700E+00 8.259E+03 1.172E+04 5.933E+02 2.058E+04 2.058E+04 4.823E+05 25.7519 1.00000
