 Incident particle is a Muon with M = 105.65839 MeV
 Index = 0: AluminumOxideSapphire
      Absorber with <Z/A> = 0.49038
 Sternheimer coef:  a     k=m_s   x_0    x_1    I[eV]   Cbar  delta0
                 0.0850  3.5458  0.0402  2.8665  145.2  3.5682 0.00

 *** Table generated with PUMAS v1.00 ***

      T         p     Ionization  brems     pair     photonuc  Radloss    dE/dx   CSDA Range  delta   beta
    [MeV]    [MeV/c]  -----------------------[MeV cm^2/g]------------------------  [g/cm^2]
  1.000E+00 1.457E+01 3.932E+01 1.068E-06 0.000E+00 0.000E+00 1.068E-06 3.932E+01 1.272E-02  0.0000 0.13661
  1.200E+00 1.597E+01 3.407E+01 1.227E-06 0.000E+00 0.000E+00 1.227E-06 3.407E+01 1.819E-02  0.0000 0.14944
  1.400E+00 1.726E+01 3.016E+01 1.378E-06 0.000E+00 0.000E+00 1.378E-06 3.016E+01 2.444E-02  0.0000 0.16119
  1.700E+00 1.903E+01 2.585E+01 1.593E-06 0.000E+00 0.000E+00 1.593E-06 2.585E+01 3.522E-02  0.0000 0.17725
  2.000E+00 2.066E+01 2.272E+01 1.797E-06 0.000E+00 0.000E+00 1.797E-06 2.272E+01 4.762E-02  0.0000 0.19186
  2.500E+00 2.312E+01 1.901E+01 2.116E-06 0.000E+00 0.000E+00 2.116E-06 1.901E+01 7.178E-02  0.0000 0.21376
  3.000E+00 2.536E+01 1.644E+01 2.413E-06 0.000E+00 0.000E+00 2.413E-06 1.644E+01 1.001E-01  0.0000 0.23336
  3.500E+00 2.742E+01 1.454E+01 2.694E-06 0.000E+00 0.000E+00 2.694E-06 1.454E+01 1.325E-01  0.0000 0.25120
  4.000E+00 2.935E+01 1.308E+01 2.960E-06 0.000E+00 0.000E+00 2.960E-06 1.308E+01 1.688E-01  0.0000 0.26763
  4.500E+00 3.116E+01 1.191E+01 3.213E-06 0.000E+00 0.000E+00 3.213E-06 1.191E+01 2.089E-01  0.0000 0.28290
  5.000E+00 3.289E+01 1.096E+01 3.456E-06 0.000E+00 0.000E+00 3.456E-06 1.096E+01 2.527E-01  0.0000 0.29720
  5.500E+00 3.453E+01 1.017E+01 3.689E-06 0.000E+00 0.000E+00 3.689E-06 1.017E+01 3.001E-01  0.0000 0.31066
  6.000E+00 3.611E+01 9.506E+00 3.914E-06 0.000E+00 0.000E+00 3.914E-06 9.506E+00 3.510E-01  0.0000 0.32339
  7.000E+00 3.909E+01 8.435E+00 4.341E-06 0.000E+00 0.000E+00 4.341E-06 8.435E+00 4.628E-01  0.0000 0.34700
  8.000E+00 4.189E+01 7.614E+00 4.743E-06 0.000E+00 0.000E+00 4.743E-06 7.614E+00 5.878E-01  0.0000 0.36854
  9.000E+00 4.453E+01 6.964E+00 5.124E-06 0.000E+00 0.000E+00 5.124E-06 6.964E+00 7.252E-01  0.0000 0.38836
  1.000E+01 4.704E+01 6.435E+00 5.487E-06 0.000E+00 0.000E+00 5.487E-06 6.435E+00 8.747E-01  0.0000 0.40675
  1.200E+01 5.177E+01 5.627E+00 6.169E-06 0.000E+00 0.000E+00 6.169E-06 5.627E+00 1.208E+00  0.0000 0.43998
  1.400E+01 5.616E+01 5.037E+00 6.803E-06 0.000E+00 0.000E+00 6.803E-06 5.037E+00 1.584E+00  0.0000 0.46937
  1.700E+01 6.230E+01 4.401E+00 7.686E-06 0.000E+00 0.000E+00 7.686E-06 4.401E+00 2.223E+00  0.0000 0.50792
  2.000E+01 6.802E+01 3.947E+00 8.509E-06 0.000E+00 0.000E+00 8.509E-06 3.947E+00 2.944E+00  0.0000 0.54129
  2.500E+01 7.686E+01 3.425E+00 9.784E-06 0.000E+00 0.000E+00 9.784E-06 3.425E+00 4.307E+00  0.0000 0.58827
  3.000E+01 8.509E+01 3.073E+00 1.098E-05 0.000E+00 0.000E+00 1.098E-05 3.073E+00 5.851E+00  0.0000 0.62720
  3.500E+01 9.285E+01 2.820E+00 1.212E-05 0.000E+00 0.000E+00 1.212E-05 2.820E+00 7.551E+00  0.0000 0.66011
  4.000E+01 1.003E+02 2.630E+00 1.323E-05 0.000E+00 0.000E+00 1.323E-05 2.630E+00 9.388E+00  0.0000 0.68834
  4.500E+01 1.074E+02 2.482E+00 1.431E-05 0.000E+00 0.000E+00 1.431E-05 2.482E+00 1.135E+01  0.0000 0.71286
  5.000E+01 1.143E+02 2.365E+00 1.538E-05 0.000E+00 0.000E+00 1.538E-05 2.365E+00 1.341E+01  0.0000 0.73434
  5.500E+01 1.210E+02 2.269E+00 1.645E-05 0.000E+00 0.000E+00 1.645E-05 2.269E+00 1.557E+01  0.0077 0.75332
  6.000E+01 1.276E+02 2.190E+00 1.751E-05 0.000E+00 0.000E+00 1.751E-05 2.190E+00 1.781E+01  0.0186 0.77019
  7.000E+01 1.403E+02 2.067E+00 1.963E-05 0.000E+00 0.000E+00 1.963E-05 2.067E+00 2.251E+01  0.0432 0.79887
  8.000E+01 1.527E+02 1.977E+00 2.177E-05 0.000E+00 0.000E+00 2.177E-05 1.977E+00 2.746E+01  0.0702 0.82227
  9.000E+01 1.647E+02 1.909E+00 2.393E-05 0.000E+00 0.000E+00 2.393E-05 1.909E+00 3.261E+01  0.0985 0.84166
  1.000E+02 1.764E+02 1.857E+00 2.613E-05 0.000E+00 0.000E+00 2.613E-05 1.857E+00 3.792E+01  0.1277 0.85794
  1.200E+02 1.994E+02 1.783E+00 3.064E-05 0.000E+00 0.000E+00 3.064E-05 1.783E+00 4.891E+01  0.1868 0.88361
  1.400E+02 2.218E+02 1.736E+00 3.532E-05 0.000E+00 0.000E+00 3.532E-05 1.736E+00 6.028E+01  0.2460 0.90278
  1.700E+02 2.546E+02 1.693E+00 4.264E-05 2.379E-14 0.000E+00 4.264E-05 1.693E+00 7.778E+01  0.3331 0.92363
  2.000E+02 2.868E+02 1.669E+00 5.033E-05 5.321E-12 0.000E+00 5.033E-05 1.669E+00 9.563E+01  0.4173 0.93835
  2.500E+02 3.396E+02 1.651E+00 6.390E-05 1.138E-07 0.000E+00 6.402E-05 1.651E+00 1.258E+02  0.5506 0.95485
  3.000E+02 3.917E+02 1.647E+00 7.836E-05 1.053E-06 0.000E+00 7.942E-05 1.647E+00 1.561E+02  0.6753 0.96548
  3.500E+02 4.432E+02 1.651E+00 9.363E-05 2.927E-06 0.000E+00 9.656E-05 1.651E+00 1.864E+02  0.7921 0.97274
  4.000E+02 4.945E+02 1.657E+00 1.096E-04 5.696E-06 0.000E+00 1.153E-04 1.657E+00 2.166E+02  0.9019 0.97793
  4.500E+02 5.455E+02 1.666E+00 1.263E-04 9.326E-06 0.000E+00 1.356E-04 1.666E+00 2.467E+02  1.0053 0.98176
  5.000E+02 5.964E+02 1.675E+00 1.436E-04 1.379E-05 0.000E+00 1.574E-04 1.675E+00 2.767E+02  1.1032 0.98467
  5.500E+02 6.471E+02 1.684E+00 1.615E-04 1.905E-05 0.000E+00 1.806E-04 1.685E+00 3.064E+02  1.1961 0.98693
  6.000E+02 6.977E+02 1.694E+00 1.800E-04 2.508E-05 0.000E+00 2.051E-04 1.694E+00 3.360E+02  1.2844 0.98873
  7.000E+02 7.987E+02 1.713E+00 2.184E-04 3.937E-05 0.000E+00 2.578E-04 1.713E+00 3.947E+02  1.4491 0.99136
  8.000E+02 8.995E+02 1.730E+00 2.587E-04 5.646E-05 0.000E+00 3.152E-04 1.731E+00 4.528E+02  1.6002 0.99317
  9.000E+02 1.000E+03 1.747E+00 3.007E-04 7.616E-05 0.000E+00 3.769E-04 1.747E+00 5.103E+02  1.7399 0.99447
  1.000E+03 1.101E+03 1.762E+00 3.442E-04 9.833E-05 0.000E+00 4.425E-04 1.762E+00 5.673E+02  1.8698 0.99542
  1.200E+03 1.301E+03 1.789E+00 4.353E-04 1.495E-04 2.254E-05 6.073E-04 1.790E+00 6.799E+02  2.1052 0.99672
  1.400E+03 1.502E+03 1.813E+00 5.313E-04 2.089E-04 6.160E-05 8.018E-04 1.814E+00 7.909E+02  2.3145 0.99753
  1.700E+03 1.803E+03 1.844E+00 6.832E-04 3.119E-04 1.318E-04 1.127E-03 1.845E+00 9.549E+02  2.5907 0.99829
  2.000E+03 2.103E+03 1.869E+00 8.432E-04 4.297E-04 2.145E-04 1.487E-03 1.871E+00 1.116E+03  2.8321 0.99874
  2.500E+03 2.604E+03 1.904E+00 1.125E-03 6.542E-04 3.742E-04 2.154E-03 1.906E+00 1.381E+03  3.1777 0.99918
  3.000E+03 3.104E+03 1.932E+00 1.424E-03 9.092E-04 5.417E-04 2.875E-03 1.935E+00 1.642E+03  3.4714 0.99942
  3.500E+03 3.604E+03 1.956E+00 1.736E-03 1.190E-03 7.191E-04 3.645E-03 1.960E+00 1.898E+03  3.7269 0.99957
  4.000E+03 4.104E+03 1.976E+00 2.060E-03 1.508E-03 9.087E-04 4.477E-03 1.981E+00 2.152E+03  3.9533 0.99967
  4.500E+03 4.604E+03 1.994E+00 2.395E-03 1.852E-03 1.106E-03 5.353E-03 1.999E+00 2.403E+03  4.1566 0.99974
  5.000E+03 5.105E+03 2.009E+00 2.740E-03 2.216E-03 1.295E-03 6.251E-03 2.016E+00 2.652E+03  4.3411 0.99979
  5.500E+03 5.605E+03 2.023E+00 3.093E-03 2.599E-03 1.500E-03 7.191E-03 2.031E+00 2.900E+03  4.5101 0.99982
  6.000E+03 6.105E+03 2.036E+00 3.454E-03 2.998E-03 1.690E-03 8.142E-03 2.044E+00 3.145E+03  4.6660 0.99985
  7.000E+03 7.105E+03 2.058E+00 4.197E-03 3.843E-03 2.093E-03 1.013E-02 2.068E+00 3.631E+03  4.9457 0.99989
  8.000E+03 8.105E+03 2.076E+00 4.965E-03 4.741E-03 2.494E-03 1.220E-02 2.089E+00 4.113E+03  5.1914 0.99992
  9.000E+03 9.105E+03 2.093E+00 5.755E-03 5.686E-03 2.871E-03 1.431E-02 2.107E+00 4.589E+03  5.4105 0.99993
  1.000E+04 1.011E+04 2.107E+00 6.566E-03 6.673E-03 3.260E-03 1.650E-02 2.123E+00 5.062E+03  5.6083 0.99995
  1.200E+04 1.211E+04 2.131E+00 8.238E-03 8.758E-03 4.050E-03 2.105E-02 2.152E+00 5.998E+03  5.9540 0.99996
  1.400E+04 1.411E+04 2.151E+00 9.969E-03 1.097E-02 4.842E-03 2.578E-02 2.176E+00 6.922E+03  6.2494 0.99997
  1.700E+04 1.711E+04 2.175E+00 1.266E-02 1.448E-02 6.016E-03 3.316E-02 2.208E+00 8.290E+03  6.6249 0.99998
  2.000E+04 2.011E+04 2.195E+00 1.545E-02 1.819E-02 7.168E-03 4.081E-02 2.236E+00 9.641E+03  6.9417 0.99999
  2.500E+04 2.511E+04 2.221E+00 2.026E-02 2.473E-02 9.063E-03 5.406E-02 2.275E+00 1.186E+04  7.3799 0.99999
  3.000E+04 3.011E+04 2.242E+00 2.525E-02 3.163E-02 1.092E-02 6.781E-02 2.310E+00 1.404E+04  7.7400 0.99999
  3.500E+04 3.511E+04 2.260E+00 3.039E-02 3.882E-02 1.281E-02 8.202E-02 2.342E+00 1.619E+04  8.0456 1.00000
  4.000E+04 4.011E+04 2.275E+00 3.565E-02 4.625E-02 1.467E-02 9.657E-02 2.371E+00 1.831E+04  8.3109 1.00000
  4.500E+04 4.511E+04 2.288E+00 4.102E-02 5.389E-02 1.651E-02 1.114E-01 2.399E+00 2.041E+04  8.5454 1.00000
  5.000E+04 5.011E+04 2.299E+00 4.648E-02 6.170E-02 1.835E-02 1.265E-01 2.426E+00 2.248E+04  8.7554 1.00000
  5.500E+04 5.511E+04 2.309E+00 5.203E-02 6.968E-02 2.020E-02 1.419E-01 2.451E+00 2.453E+04  8.9455 1.00000
  6.000E+04 6.011E+04 2.319E+00 5.765E-02 7.779E-02 2.203E-02 1.575E-01 2.476E+00 2.656E+04  9.1191 1.00000
  7.000E+04 7.011E+04 2.335E+00 6.909E-02 9.437E-02 2.568E-02 1.891E-01 2.524E+00 3.056E+04  9.4269 1.00000
  8.000E+04 8.011E+04 2.349E+00 8.076E-02 1.114E-01 2.933E-02 2.214E-01 2.570E+00 3.449E+04  9.6936 1.00000
  9.000E+04 9.011E+04 2.361E+00 9.262E-02 1.287E-01 3.299E-02 2.543E-01 2.615E+00 3.834E+04  9.9289 1.00000
  1.000E+05 1.001E+05 2.372E+00 1.047E-01 1.463E-01 3.658E-02 2.876E-01 2.659E+00 4.214E+04 10.1393 1.00000
  1.200E+05 1.201E+05 2.390E+00 1.292E-01 1.823E-01 4.389E-02 3.554E-01 2.746E+00 4.954E+04 10.5036 1.00000
  1.400E+05 1.401E+05 2.406E+00 1.542E-01 2.191E-01 5.120E-02 4.245E-01 2.831E+00 5.671E+04 10.8117 1.00000
  1.700E+05 1.701E+05 2.426E+00 1.925E-01 2.754E-01 6.219E-02 5.301E-01 2.956E+00 6.709E+04 11.1997 1.00000
  2.000E+05 2.001E+05 2.442E+00 2.315E-01 3.328E-01 7.324E-02 6.375E-01 3.080E+00 7.703E+04 11.5246 1.00000
  2.500E+05 2.501E+05 2.465E+00 2.978E-01 4.303E-01 9.172E-02 8.198E-01 3.284E+00 9.276E+04 11.9707 1.00000
  3.000E+05 3.001E+05 2.483E+00 3.654E-01 5.294E-01 1.104E-01 1.005E+00 3.488E+00 1.075E+05 12.3352 1.00000
  3.500E+05 3.501E+05 2.498E+00 4.340E-01 6.299E-01 1.292E-01 1.193E+00 3.691E+00 1.215E+05 12.6434 1.00000
  4.000E+05 4.001E+05 2.512E+00 5.034E-01 7.313E-01 1.482E-01 1.383E+00 3.895E+00 1.347E+05 12.9103 1.00000
  4.500E+05 4.501E+05 2.524E+00 5.735E-01 8.336E-01 1.672E-01 1.574E+00 4.098E+00 1.472E+05 13.1459 1.00000
  5.000E+05 5.001E+05 2.534E+00 6.443E-01 9.365E-01 1.864E-01 1.767E+00 4.301E+00 1.591E+05 13.3565 1.00000
  5.500E+05 5.501E+05 2.544E+00 7.155E-01 1.040E+00 2.055E-01 1.961E+00 4.505E+00 1.705E+05 13.5471 1.00000
  6.000E+05 6.001E+05 2.553E+00 7.872E-01 1.144E+00 2.247E-01 2.156E+00 4.709E+00 1.813E+05 13.7211 1.00000
  7.000E+05 7.001E+05 2.568E+00 9.318E-01 1.353E+00 2.634E-01 2.548E+00 5.117E+00 2.017E+05 14.0294 1.00000
  8.000E+05 8.001E+05 2.582E+00 1.078E+00 1.564E+00 3.026E-01 2.944E+00 5.526E+00 2.205E+05 14.2964 1.00000
  9.000E+05 9.001E+05 2.594E+00 1.225E+00 1.775E+00 3.421E-01 3.342E+00 5.936E+00 2.380E+05 14.5319 1.00000
  1.000E+06 1.000E+06 2.605E+00 1.372E+00 1.988E+00 3.820E-01 3.742E+00 6.347E+00 2.543E+05 14.7426 1.00000
  1.200E+06 1.200E+06 2.624E+00 1.670E+00 2.415E+00 4.627E-01 4.548E+00 7.172E+00 2.840E+05 15.1072 1.00000
  1.400E+06 1.400E+06 2.639E+00 1.971E+00 2.844E+00 5.447E-01 5.360E+00 7.999E+00 3.105E+05 15.4155 1.00000
  1.700E+06 1.700E+06 2.660E+00 2.425E+00 3.491E+00 6.694E-01 6.585E+00 9.245E+00 3.454E+05 15.8038 1.00000
  2.000E+06 2.000E+06 2.677E+00 2.882E+00 4.140E+00 7.962E-01 7.819E+00 1.050E+01 3.759E+05 16.1288 1.00000
  2.500E+06 2.500E+06 2.700E+00 3.650E+00 5.227E+00 1.011E+00 9.889E+00 1.259E+01 4.196E+05 16.5751 1.00000
  3.000E+06 3.000E+06 2.720E+00 4.423E+00 6.317E+00 1.231E+00 1.197E+01 1.469E+01 4.565E+05 16.9397 1.00000
  3.500E+06 3.500E+06 2.736E+00 5.200E+00 7.410E+00 1.454E+00 1.406E+01 1.680E+01 4.884E+05 17.2480 1.00000
  4.000E+06 4.000E+06 2.751E+00 5.980E+00 8.505E+00 1.680E+00 1.617E+01 1.892E+01 5.165E+05 17.5150 1.00000
  4.500E+06 4.500E+06 2.763E+00 6.763E+00 9.602E+00 1.909E+00 1.827E+01 2.104E+01 5.416E+05 17.7506 1.00000
  5.000E+06 5.000E+06 2.775E+00 7.547E+00 1.070E+01 2.140E+00 2.039E+01 2.316E+01 5.643E+05 17.9613 1.00000
  5.500E+06 5.500E+06 2.785E+00 8.333E+00 1.180E+01 2.374E+00 2.251E+01 2.529E+01 5.849E+05 18.1519 1.00000
  6.000E+06 6.000E+06 2.795E+00 9.121E+00 1.290E+01 2.610E+00 2.463E+01 2.743E+01 6.039E+05 18.3260 1.00000
  7.000E+06 7.000E+06 2.812E+00 1.070E+01 1.510E+01 3.089E+00 2.889E+01 3.170E+01 6.380E+05 18.6342 1.00000
  8.000E+06 8.000E+06 2.827E+00 1.228E+01 1.731E+01 3.574E+00 3.316E+01 3.599E+01 6.676E+05 18.9013 1.00000
  9.000E+06 9.000E+06 2.840E+00 1.387E+01 1.951E+01 4.065E+00 3.745E+01 4.029E+01 6.939E+05 19.1369 1.00000
  1.000E+07 1.000E+07 2.852E+00 1.546E+01 2.172E+01 4.563E+00 4.174E+01 4.459E+01 7.175E+05 19.3476 1.00000
  1.200E+07 1.200E+07 2.872E+00 1.864E+01 2.614E+01 5.573E+00 5.035E+01 5.322E+01 7.588E+05 19.7122 1.00000
  1.400E+07 1.400E+07 2.890E+00 2.183E+01 3.056E+01 6.601E+00 5.899E+01 6.188E+01 7.937E+05 20.0205 1.00000
  1.700E+07 1.700E+07 2.912E+00 2.662E+01 3.720E+01 8.172E+00 7.199E+01 7.490E+01 8.380E+05 20.4088 1.00000
  2.000E+07 2.000E+07 2.931E+00 3.142E+01 4.384E+01 9.774E+00 8.503E+01 8.796E+01 8.751E+05 20.7339 1.00000
  2.500E+07 2.500E+07 2.957E+00 3.943E+01 5.492E+01 1.250E+01 1.068E+02 1.098E+02 9.262E+05 21.1802 1.00000
  3.000E+07 3.000E+07 2.979E+00 4.745E+01 6.600E+01 1.529E+01 1.287E+02 1.317E+02 9.680E+05 21.5448 1.00000
  3.500E+07 3.500E+07 2.997E+00 5.548E+01 7.709E+01 1.813E+01 1.507E+02 1.537E+02 1.003E+06 21.8531 1.00000
  4.000E+07 4.000E+07 3.013E+00 6.351E+01 8.817E+01 2.101E+01 1.727E+02 1.757E+02 1.034E+06 22.1202 1.00000
  4.500E+07 4.500E+07 3.027E+00 7.155E+01 9.926E+01 2.393E+01 1.947E+02 1.978E+02 1.061E+06 22.3557 1.00000
  5.000E+07 5.000E+07 3.040E+00 7.959E+01 1.104E+02 2.689E+01 2.168E+02 2.199E+02 1.085E+06 22.5664 1.00000
  5.500E+07 5.500E+07 3.051E+00 8.764E+01 1.214E+02 2.989E+01 2.390E+02 2.420E+02 1.106E+06 22.7571 1.00000
  6.000E+07 6.000E+07 3.062E+00 9.568E+01 1.325E+02 3.291E+01 2.611E+02 2.642E+02 1.126E+06 22.9311 1.00000
  7.000E+07 7.000E+07 3.081E+00 1.118E+02 1.547E+02 3.904E+01 3.056E+02 3.086E+02 1.161E+06 23.2394 1.00000
  8.000E+07 8.000E+07 3.097E+00 1.279E+02 1.769E+02 4.527E+01 3.501E+02 3.532E+02 1.192E+06 23.5065 1.00000
  9.000E+07 9.000E+07 3.112E+00 1.440E+02 1.991E+02 5.159E+01 3.947E+02 3.978E+02 1.218E+06 23.7420 1.00000
  1.000E+08 1.000E+08 3.125E+00 1.601E+02 2.213E+02 5.798E+01 4.394E+02 4.425E+02 1.242E+06 23.9527 1.00000
  1.200E+08 1.200E+08 3.148E+00 1.924E+02 2.657E+02 7.099E+01 5.291E+02 5.322E+02 1.284E+06 24.3174 1.00000
  1.400E+08 1.400E+08 3.168E+00 2.246E+02 3.101E+02 8.425E+01 6.190E+02 6.221E+02 1.318E+06 24.6257 1.00000
  1.700E+08 1.700E+08 3.193E+00 2.730E+02 3.767E+02 1.045E+02 7.542E+02 7.574E+02 1.362E+06 25.0140 1.00000
  2.000E+08 2.000E+08 3.214E+00 3.214E+02 4.433E+02 1.252E+02 8.900E+02 8.932E+02 1.399E+06 25.3390 1.00000
  2.500E+08 2.500E+08 3.243E+00 4.021E+02 5.543E+02 1.605E+02 1.117E+03 1.120E+03 1.449E+06 25.7853 1.00000
  3.000E+08 3.000E+08 3.267E+00 4.827E+02 6.654E+02 1.966E+02 1.345E+03 1.348E+03 1.490E+06 26.1500 1.00000
  3.500E+08 3.500E+08 3.287E+00 5.634E+02 7.764E+02 2.335E+02 1.573E+03 1.577E+03 1.525E+06 26.4583 1.00000
  4.000E+08 4.000E+08 3.305E+00 6.441E+02 8.874E+02 2.709E+02 1.802E+03 1.806E+03 1.554E+06 26.7253 1.00000
  4.500E+08 4.500E+08 3.321E+00 7.249E+02 9.984E+02 3.089E+02 2.032E+03 2.035E+03 1.580E+06 26.9609 1.00000
  5.000E+08 5.000E+08 3.335E+00 8.056E+02 1.109E+03 3.474E+02 2.262E+03 2.266E+03 1.604E+06 27.1716 1.00000
  5.500E+08 5.500E+08 3.348E+00 8.863E+02 1.220E+03 3.863E+02 2.493E+03 2.496E+03 1.625E+06 27.3622 1.00000
  6.000E+08 6.000E+08 3.360E+00 9.670E+02 1.331E+03 4.257E+02 2.724E+03 2.727E+03 1.644E+06 27.5363 1.00000
  7.000E+08 7.000E+08 3.381E+00 1.128E+03 1.554E+03 5.055E+02 3.187E+03 3.191E+03 1.678E+06 27.8446 1.00000
  8.000E+08 8.000E+08 3.399E+00 1.290E+03 1.776E+03 5.867E+02 3.652E+03 3.656E+03 1.707E+06 28.1116 1.00000
  9.000E+08 9.000E+08 3.416E+00 1.451E+03 1.998E+03 6.691E+02 4.118E+03 4.121E+03 1.733E+06 28.3472 1.00000
  1.000E+09 1.000E+09 3.430E+00 1.613E+03 2.220E+03 7.527E+02 4.585E+03 4.588E+03 1.756E+06 28.5579 1.00000
