 Incident particle is a Muon with M = 105.65839 MeV
 Index = 0: Amber
      Absorber with <Z/A> = 0.55170
 Sternheimer coef:  a     k=m_s   x_0    x_1    I[eV]   Cbar  delta0
                 0.1193  3.4098  0.1335  2.5610   63.2  3.0701 0.00

 *** Table generated with PUMAS v1.00 ***

      T         p     Ionization  brems     pair     photonuc  Radloss    dE/dx   CSDA Range  delta   beta
    [MeV]    [MeV/c]  -----------------------[MeV cm^2/g]------------------------  [g/cm^2]
  1.000E+00 1.457E+01 5.179E+01 6.415E-07 0.000E+00 0.000E+00 6.415E-07 5.179E+01 9.655E-03  0.0000 0.13661
  1.200E+00 1.597E+01 4.464E+01 7.341E-07 0.000E+00 0.000E+00 7.341E-07 4.464E+01 1.383E-02  0.0000 0.14944
  1.400E+00 1.726E+01 3.936E+01 8.226E-07 0.000E+00 0.000E+00 8.226E-07 3.936E+01 1.861E-02  0.0000 0.16119
  1.700E+00 1.903E+01 3.357E+01 9.488E-07 0.000E+00 0.000E+00 9.488E-07 3.357E+01 2.689E-02  0.0000 0.17725
  2.000E+00 2.066E+01 2.939E+01 1.069E-06 0.000E+00 0.000E+00 1.069E-06 2.939E+01 3.646E-02  0.0000 0.19186
  2.500E+00 2.312E+01 2.447E+01 1.257E-06 0.000E+00 0.000E+00 1.257E-06 2.447E+01 5.518E-02  0.0000 0.21376
  3.000E+00 2.536E+01 2.108E+01 1.433E-06 0.000E+00 0.000E+00 1.433E-06 2.108E+01 7.725E-02  0.0000 0.23336
  3.500E+00 2.742E+01 1.859E+01 1.599E-06 0.000E+00 0.000E+00 1.599E-06 1.859E+01 1.026E-01  0.0000 0.25120
  4.000E+00 2.935E+01 1.668E+01 1.758E-06 0.000E+00 0.000E+00 1.758E-06 1.668E+01 1.310E-01  0.0000 0.26763
  4.500E+00 3.116E+01 1.516E+01 1.909E-06 0.000E+00 0.000E+00 1.909E-06 1.516E+01 1.625E-01  0.0000 0.28290
  5.000E+00 3.289E+01 1.393E+01 2.054E-06 0.000E+00 0.000E+00 2.054E-06 1.393E+01 1.969E-01  0.0000 0.29720
  5.500E+00 3.453E+01 1.291E+01 2.193E-06 0.000E+00 0.000E+00 2.193E-06 1.291E+01 2.342E-01  0.0000 0.31066
  6.000E+00 3.611E+01 1.204E+01 2.328E-06 0.000E+00 0.000E+00 2.328E-06 1.204E+01 2.743E-01  0.0000 0.32339
  7.000E+00 3.909E+01 1.066E+01 2.585E-06 0.000E+00 0.000E+00 2.585E-06 1.066E+01 3.628E-01  0.0000 0.34700
  8.000E+00 4.189E+01 9.604E+00 2.827E-06 0.000E+00 0.000E+00 2.827E-06 9.604E+00 4.617E-01  0.0000 0.36854
  9.000E+00 4.453E+01 8.769E+00 3.057E-06 0.000E+00 0.000E+00 3.057E-06 8.769E+00 5.708E-01  0.0000 0.38836
  1.000E+01 4.704E+01 8.091E+00 3.277E-06 0.000E+00 0.000E+00 3.277E-06 8.091E+00 6.896E-01  0.0000 0.40675
  1.200E+01 5.177E+01 7.058E+00 3.691E-06 0.000E+00 0.000E+00 3.691E-06 7.058E+00 9.549E-01  0.0000 0.43998
  1.400E+01 5.616E+01 6.307E+00 4.076E-06 0.000E+00 0.000E+00 4.076E-06 6.307E+00 1.255E+00  0.0000 0.46937
  1.700E+01 6.230E+01 5.497E+00 4.615E-06 0.000E+00 0.000E+00 4.615E-06 5.497E+00 1.766E+00  0.0000 0.50792
  2.000E+01 6.802E+01 4.921E+00 5.118E-06 0.000E+00 0.000E+00 5.118E-06 4.921E+00 2.344E+00  0.0000 0.54129
  2.500E+01 7.686E+01 4.260E+00 5.899E-06 0.000E+00 0.000E+00 5.899E-06 4.260E+00 3.438E+00  0.0000 0.58827
  3.000E+01 8.509E+01 3.815E+00 6.631E-06 0.000E+00 0.000E+00 6.631E-06 3.815E+00 4.680E+00  0.0000 0.62720
  3.500E+01 9.285E+01 3.495E+00 7.332E-06 0.000E+00 0.000E+00 7.332E-06 3.495E+00 6.051E+00  0.0000 0.66011
  4.000E+01 1.003E+02 3.256E+00 8.010E-06 0.000E+00 0.000E+00 8.010E-06 3.256E+00 7.534E+00  0.0000 0.68834
  4.500E+01 1.074E+02 3.070E+00 8.675E-06 0.000E+00 0.000E+00 8.675E-06 3.070E+00 9.116E+00  0.0000 0.71286
  5.000E+01 1.143E+02 2.922E+00 9.330E-06 0.000E+00 0.000E+00 9.330E-06 2.922E+00 1.079E+01  0.0000 0.73434
  5.500E+01 1.210E+02 2.803E+00 9.980E-06 0.000E+00 0.000E+00 9.980E-06 2.803E+00 1.253E+01  0.0000 0.75332
  6.000E+01 1.276E+02 2.704E+00 1.063E-05 0.000E+00 0.000E+00 1.063E-05 2.704E+00 1.435E+01  0.0000 0.77019
  7.000E+01 1.403E+02 2.552E+00 1.192E-05 0.000E+00 0.000E+00 1.192E-05 2.552E+00 1.816E+01  0.0000 0.79887
  8.000E+01 1.527E+02 2.437E+00 1.322E-05 0.000E+00 0.000E+00 1.322E-05 2.438E+00 2.217E+01  0.0308 0.82227
  9.000E+01 1.647E+02 2.350E+00 1.454E-05 0.000E+00 0.000E+00 1.454E-05 2.350E+00 2.635E+01  0.0736 0.84166
  1.000E+02 1.764E+02 2.282E+00 1.588E-05 0.000E+00 0.000E+00 1.588E-05 2.282E+00 3.067E+01  0.1158 0.85794
  1.200E+02 1.994E+02 2.186E+00 1.862E-05 0.000E+00 0.000E+00 1.862E-05 2.186E+00 3.962E+01  0.1976 0.88361
  1.400E+02 2.218E+02 2.123E+00 2.145E-05 0.000E+00 0.000E+00 2.145E-05 2.123E+00 4.891E+01  0.2760 0.90278
  1.700E+02 2.546E+02 2.064E+00 2.588E-05 3.775E-14 0.000E+00 2.588E-05 2.064E+00 6.324E+01  0.3874 0.92363
  2.000E+02 2.868E+02 2.030E+00 3.053E-05 8.430E-12 0.000E+00 3.053E-05 2.030E+00 7.790E+01  0.4920 0.93835
  2.500E+02 3.396E+02 2.002E+00 3.872E-05 6.952E-08 0.000E+00 3.879E-05 2.002E+00 1.027E+02  0.6534 0.95485
  3.000E+02 3.917E+02 1.993E+00 4.744E-05 6.101E-07 0.000E+00 4.805E-05 1.993E+00 1.277E+02  0.8010 0.96548
  3.500E+02 4.432E+02 1.993E+00 5.663E-05 1.673E-06 0.000E+00 5.830E-05 1.993E+00 1.528E+02  0.9371 0.97274
  4.000E+02 4.945E+02 1.997E+00 6.625E-05 3.235E-06 0.000E+00 6.949E-05 1.998E+00 1.779E+02  1.0634 0.97793
  4.500E+02 5.455E+02 2.005E+00 7.628E-05 5.276E-06 0.000E+00 8.156E-05 2.005E+00 2.029E+02  1.1815 0.98176
  5.000E+02 5.964E+02 2.013E+00 8.668E-05 7.780E-06 0.000E+00 9.446E-05 2.013E+00 2.277E+02  1.2923 0.98467
  5.500E+02 6.471E+02 2.022E+00 9.743E-05 1.073E-05 0.000E+00 1.082E-04 2.022E+00 2.525E+02  1.3968 0.98693
  6.000E+02 6.977E+02 2.032E+00 1.085E-04 1.411E-05 0.000E+00 1.226E-04 2.032E+00 2.772E+02  1.4956 0.98873
  7.000E+02 7.987E+02 2.050E+00 1.316E-04 2.211E-05 0.000E+00 1.537E-04 2.051E+00 3.262E+02  1.6787 0.99136
  8.000E+02 8.995E+02 2.068E+00 1.557E-04 3.167E-05 0.000E+00 1.874E-04 2.069E+00 3.747E+02  1.8455 0.99317
  9.000E+02 1.000E+03 2.086E+00 1.808E-04 4.269E-05 0.000E+00 2.235E-04 2.086E+00 4.229E+02  1.9987 0.99447
  1.000E+03 1.101E+03 2.101E+00 2.069E-04 5.509E-05 0.000E+00 2.620E-04 2.102E+00 4.706E+02  2.1405 0.99542
  1.200E+03 1.301E+03 2.130E+00 2.614E-04 8.367E-05 2.257E-05 3.677E-04 2.131E+00 5.652E+02  2.3961 0.99672
  1.400E+03 1.502E+03 2.155E+00 3.189E-04 1.169E-04 6.188E-05 4.976E-04 2.156E+00 6.585E+02  2.6219 0.99753
  1.700E+03 1.803E+03 2.188E+00 4.097E-04 1.744E-04 1.330E-04 7.172E-04 2.188E+00 7.966E+02  2.9181 0.99829
  2.000E+03 2.103E+03 2.215E+00 5.055E-04 2.402E-04 2.171E-04 9.628E-04 2.216E+00 9.328E+02  3.1755 0.99874
  2.500E+03 2.604E+03 2.252E+00 6.745E-04 3.656E-04 3.805E-04 1.421E-03 2.254E+00 1.157E+03  3.5421 0.99918
  3.000E+03 3.104E+03 2.283E+00 8.533E-04 5.081E-04 5.529E-04 1.914E-03 2.285E+00 1.377E+03  3.8518 0.99942
  3.500E+03 3.604E+03 2.308E+00 1.041E-03 6.652E-04 7.363E-04 2.442E-03 2.311E+00 1.595E+03  4.1203 0.99957
  4.000E+03 4.104E+03 2.330E+00 1.235E-03 8.506E-04 9.329E-04 3.019E-03 2.333E+00 1.810E+03  4.3572 0.99967
  4.500E+03 4.604E+03 2.349E+00 1.436E-03 1.054E-03 1.138E-03 3.629E-03 2.353E+00 2.023E+03  4.5694 0.99974
  5.000E+03 5.105E+03 2.366E+00 1.643E-03 1.270E-03 1.335E-03 4.249E-03 2.370E+00 2.235E+03  4.7615 0.99979
  5.500E+03 5.605E+03 2.381E+00 1.856E-03 1.498E-03 1.549E-03 4.902E-03 2.386E+00 2.445E+03  4.9371 0.99982
  6.000E+03 6.105E+03 2.395E+00 2.073E-03 1.735E-03 1.747E-03 5.556E-03 2.400E+00 2.654E+03  5.0987 0.99985
  7.000E+03 7.105E+03 2.419E+00 2.521E-03 2.239E-03 2.170E-03 6.930E-03 2.426E+00 3.069E+03  5.3880 0.99989
  8.000E+03 8.105E+03 2.439E+00 2.985E-03 2.775E-03 2.591E-03 8.351E-03 2.447E+00 3.479E+03  5.6414 0.99992
  9.000E+03 9.105E+03 2.456E+00 3.463E-03 3.341E-03 2.987E-03 9.791E-03 2.466E+00 3.886E+03  5.8668 0.99993
  1.000E+04 1.011E+04 2.472E+00 3.953E-03 3.933E-03 3.397E-03 1.128E-02 2.483E+00 4.290E+03  6.0697 0.99995
  1.200E+04 1.211E+04 2.498E+00 4.967E-03 5.187E-03 4.230E-03 1.438E-02 2.513E+00 5.091E+03  6.4236 0.99996
  1.400E+04 1.411E+04 2.520E+00 6.018E-03 6.519E-03 5.068E-03 1.760E-02 2.538E+00 5.883E+03  6.7251 0.99997
  1.700E+04 1.711E+04 2.547E+00 7.656E-03 8.641E-03 6.312E-03 2.261E-02 2.570E+00 7.058E+03  7.1072 0.99998
  2.000E+04 2.011E+04 2.569E+00 9.354E-03 1.089E-02 7.536E-03 2.778E-02 2.597E+00 8.219E+03  7.4285 0.99999
  2.500E+04 2.511E+04 2.598E+00 1.230E-02 1.486E-02 9.552E-03 3.671E-02 2.635E+00 1.013E+04  7.8715 0.99999
  3.000E+04 3.011E+04 2.622E+00 1.535E-02 1.906E-02 1.154E-02 4.595E-02 2.668E+00 1.202E+04  8.2345 0.99999
  3.500E+04 3.511E+04 2.641E+00 1.851E-02 2.344E-02 1.355E-02 5.549E-02 2.697E+00 1.388E+04  8.5417 1.00000
  4.000E+04 4.011E+04 2.658E+00 2.174E-02 2.798E-02 1.554E-02 6.526E-02 2.723E+00 1.573E+04  8.8080 1.00000
  4.500E+04 4.511E+04 2.672E+00 2.504E-02 3.265E-02 1.751E-02 7.521E-02 2.748E+00 1.755E+04  9.0430 1.00000
  5.000E+04 5.011E+04 2.685E+00 2.841E-02 3.745E-02 1.948E-02 8.533E-02 2.771E+00 1.937E+04  9.2533 1.00000
  5.500E+04 5.511E+04 2.697E+00 3.183E-02 4.234E-02 2.147E-02 9.564E-02 2.792E+00 2.116E+04  9.4435 1.00000
  6.000E+04 6.011E+04 2.707E+00 3.530E-02 4.732E-02 2.344E-02 1.061E-01 2.813E+00 2.295E+04  9.6172 1.00000
  7.000E+04 7.011E+04 2.725E+00 4.237E-02 5.753E-02 2.735E-02 1.273E-01 2.853E+00 2.648E+04  9.9250 1.00000
  8.000E+04 8.011E+04 2.741E+00 4.960E-02 6.801E-02 3.128E-02 1.489E-01 2.890E+00 2.996E+04 10.1917 1.00000
  9.000E+04 9.011E+04 2.755E+00 5.695E-02 7.871E-02 3.522E-02 1.709E-01 2.926E+00 3.340E+04 10.4270 1.00000
  1.000E+05 1.001E+05 2.767E+00 6.443E-02 8.962E-02 3.909E-02 1.931E-01 2.960E+00 3.680E+04 10.6374 1.00000
  1.200E+05 1.201E+05 2.788E+00 7.967E-02 1.119E-01 4.697E-02 2.385E-01 3.027E+00 4.348E+04 11.0017 1.00000
  1.400E+05 1.401E+05 2.806E+00 9.525E-02 1.347E-01 5.485E-02 2.849E-01 3.091E+00 5.002E+04 11.3098 1.00000
  1.700E+05 1.701E+05 2.828E+00 1.191E-01 1.698E-01 6.671E-02 3.556E-01 3.183E+00 5.958E+04 11.6978 1.00000
  2.000E+05 2.001E+05 2.846E+00 1.435E-01 2.056E-01 7.865E-02 4.277E-01 3.274E+00 6.888E+04 12.0227 1.00000
  2.500E+05 2.501E+05 2.871E+00 1.850E-01 2.665E-01 9.863E-02 5.502E-01 3.422E+00 8.382E+04 12.4688 1.00000
  3.000E+05 3.001E+05 2.892E+00 2.274E-01 3.287E-01 1.188E-01 6.749E-01 3.567E+00 9.814E+04 12.8333 1.00000
  3.500E+05 3.501E+05 2.909E+00 2.705E-01 3.917E-01 1.392E-01 8.014E-01 3.711E+00 1.119E+05 13.1415 1.00000
  4.000E+05 4.001E+05 2.925E+00 3.141E-01 4.555E-01 1.597E-01 9.293E-01 3.854E+00 1.251E+05 13.4084 1.00000
  4.500E+05 4.501E+05 2.938E+00 3.583E-01 5.198E-01 1.803E-01 1.058E+00 3.996E+00 1.378E+05 13.6440 1.00000
  5.000E+05 5.001E+05 2.950E+00 4.028E-01 5.847E-01 2.012E-01 1.189E+00 4.138E+00 1.501E+05 13.8546 1.00000
  5.500E+05 5.501E+05 2.961E+00 4.478E-01 6.500E-01 2.218E-01 1.320E+00 4.280E+00 1.620E+05 14.0452 1.00000
  6.000E+05 6.001E+05 2.971E+00 4.930E-01 7.156E-01 2.426E-01 1.451E+00 4.422E+00 1.735E+05 14.2192 1.00000
  7.000E+05 7.001E+05 2.988E+00 5.843E-01 8.477E-01 2.846E-01 1.717E+00 4.705E+00 1.955E+05 14.5275 1.00000
  8.000E+05 8.001E+05 3.003E+00 6.766E-01 9.809E-01 3.271E-01 1.985E+00 4.988E+00 2.161E+05 14.7945 1.00000
  9.000E+05 9.001E+05 3.017E+00 7.696E-01 1.115E+00 3.699E-01 2.254E+00 5.271E+00 2.356E+05 15.0300 1.00000
  1.000E+06 1.000E+06 3.029E+00 8.633E-01 1.249E+00 4.132E-01 2.526E+00 5.555E+00 2.541E+05 15.2407 1.00000
  1.200E+06 1.200E+06 3.050E+00 1.052E+00 1.520E+00 5.008E-01 3.073E+00 6.124E+00 2.884E+05 15.6053 1.00000
  1.400E+06 1.400E+06 3.068E+00 1.243E+00 1.793E+00 5.896E-01 3.625E+00 6.694E+00 3.197E+05 15.9136 1.00000
  1.700E+06 1.700E+06 3.091E+00 1.532E+00 2.204E+00 7.250E-01 4.460E+00 7.551E+00 3.620E+05 16.3019 1.00000
  2.000E+06 2.000E+06 3.110E+00 1.823E+00 2.617E+00 8.626E-01 5.302E+00 8.412E+00 3.997E+05 16.6269 1.00000
  2.500E+06 2.500E+06 3.137E+00 2.312E+00 3.308E+00 1.096E+00 6.716E+00 9.853E+00 4.548E+05 17.0732 1.00000
  3.000E+06 3.000E+06 3.159E+00 2.806E+00 4.003E+00 1.334E+00 8.142E+00 1.130E+01 5.023E+05 17.4378 1.00000
  3.500E+06 3.500E+06 3.177E+00 3.302E+00 4.699E+00 1.576E+00 9.577E+00 1.275E+01 5.440E+05 17.7461 1.00000
  4.000E+06 4.000E+06 3.193E+00 3.800E+00 5.397E+00 1.822E+00 1.102E+01 1.421E+01 5.812E+05 18.0131 1.00000
  4.500E+06 4.500E+06 3.208E+00 4.301E+00 6.097E+00 2.070E+00 1.247E+01 1.568E+01 6.147E+05 18.2487 1.00000
  5.000E+06 5.000E+06 3.221E+00 4.803E+00 6.797E+00 2.322E+00 1.392E+01 1.714E+01 6.452E+05 18.4594 1.00000
  5.500E+06 5.500E+06 3.232E+00 5.306E+00 7.499E+00 2.576E+00 1.538E+01 1.861E+01 6.733E+05 18.6500 1.00000
  6.000E+06 6.000E+06 3.243E+00 5.810E+00 8.201E+00 2.832E+00 1.684E+01 2.009E+01 6.991E+05 18.8241 1.00000
  7.000E+06 7.000E+06 3.262E+00 6.822E+00 9.606E+00 3.351E+00 1.978E+01 2.304E+01 7.457E+05 19.1323 1.00000
  8.000E+06 8.000E+06 3.279E+00 7.837E+00 1.101E+01 3.878E+00 2.273E+01 2.601E+01 7.867E+05 19.3994 1.00000
  9.000E+06 9.000E+06 3.294E+00 8.854E+00 1.242E+01 4.411E+00 2.569E+01 2.898E+01 8.231E+05 19.6350 1.00000
  1.000E+07 1.000E+07 3.307E+00 9.873E+00 1.383E+01 4.952E+00 2.866E+01 3.196E+01 8.560E+05 19.8457 1.00000
  1.200E+07 1.200E+07 3.330E+00 1.192E+01 1.666E+01 6.048E+00 3.462E+01 3.795E+01 9.137E+05 20.2103 1.00000
  1.400E+07 1.400E+07 3.350E+00 1.396E+01 1.948E+01 7.165E+00 4.061E+01 4.396E+01 9.628E+05 20.5186 1.00000
  1.700E+07 1.700E+07 3.375E+00 1.704E+01 2.372E+01 8.871E+00 4.964E+01 5.301E+01 1.025E+06 20.9069 1.00000
  2.000E+07 2.000E+07 3.396E+00 2.013E+01 2.797E+01 1.061E+01 5.871E+01 6.210E+01 1.078E+06 21.2320 1.00000
  2.500E+07 2.500E+07 3.426E+00 2.528E+01 3.505E+01 1.357E+01 7.390E+01 7.732E+01 1.150E+06 21.6783 1.00000
  3.000E+07 3.000E+07 3.450E+00 3.044E+01 4.213E+01 1.660E+01 8.917E+01 9.262E+01 1.210E+06 22.0429 1.00000
  3.500E+07 3.500E+07 3.470E+00 3.561E+01 4.921E+01 1.968E+01 1.045E+02 1.080E+02 1.260E+06 22.3512 1.00000
  4.000E+07 4.000E+07 3.488E+00 4.078E+01 5.630E+01 2.281E+01 1.199E+02 1.234E+02 1.303E+06 22.6183 1.00000
  4.500E+07 4.500E+07 3.504E+00 4.596E+01 6.339E+01 2.599E+01 1.353E+02 1.388E+02 1.341E+06 22.8538 1.00000
  5.000E+07 5.000E+07 3.519E+00 5.114E+01 7.048E+01 2.920E+01 1.508E+02 1.543E+02 1.376E+06 23.0645 1.00000
  5.500E+07 5.500E+07 3.532E+00 5.632E+01 7.757E+01 3.245E+01 1.663E+02 1.699E+02 1.406E+06 23.2552 1.00000
  6.000E+07 6.000E+07 3.544E+00 6.150E+01 8.467E+01 3.573E+01 1.819E+02 1.854E+02 1.435E+06 23.4292 1.00000
  7.000E+07 7.000E+07 3.565E+00 7.188E+01 9.885E+01 4.239E+01 2.131E+02 2.167E+02 1.485E+06 23.7375 1.00000
  8.000E+07 8.000E+07 3.583E+00 8.226E+01 1.130E+02 4.916E+01 2.445E+02 2.480E+02 1.528E+06 24.0046 1.00000
  9.000E+07 9.000E+07 3.600E+00 9.264E+01 1.272E+02 5.602E+01 2.759E+02 2.795E+02 1.566E+06 24.2401 1.00000
  1.000E+08 1.000E+08 3.615E+00 1.030E+02 1.414E+02 6.296E+01 3.074E+02 3.110E+02 1.600E+06 24.4508 1.00000
  1.200E+08 1.200E+08 3.641E+00 1.238E+02 1.698E+02 7.709E+01 3.707E+02 3.743E+02 1.659E+06 24.8155 1.00000
  1.400E+08 1.400E+08 3.663E+00 1.446E+02 1.982E+02 9.148E+01 4.343E+02 4.379E+02 1.708E+06 25.1238 1.00000
  1.700E+08 1.700E+08 3.690E+00 1.758E+02 2.408E+02 1.135E+02 5.301E+02 5.338E+02 1.771E+06 25.5121 1.00000
  2.000E+08 2.000E+08 3.714E+00 2.070E+02 2.834E+02 1.360E+02 6.264E+02 6.301E+02 1.823E+06 25.8371 1.00000
  2.500E+08 2.500E+08 3.747E+00 2.590E+02 3.544E+02 1.743E+02 7.877E+02 7.914E+02 1.894E+06 26.2834 1.00000
  3.000E+08 3.000E+08 3.774E+00 3.110E+02 4.254E+02 2.135E+02 9.499E+02 9.537E+02 1.952E+06 26.6481 1.00000
  3.500E+08 3.500E+08 3.797E+00 3.631E+02 4.963E+02 2.535E+02 1.113E+03 1.117E+03 2.000E+06 26.9564 1.00000
  4.000E+08 4.000E+08 3.817E+00 4.151E+02 5.673E+02 2.942E+02 1.277E+03 1.280E+03 2.042E+06 27.2234 1.00000
  4.500E+08 4.500E+08 3.835E+00 4.672E+02 6.383E+02 3.354E+02 1.441E+03 1.445E+03 2.079E+06 27.4590 1.00000
  5.000E+08 5.000E+08 3.851E+00 5.192E+02 7.093E+02 3.772E+02 1.606E+03 1.610E+03 2.112E+06 27.6697 1.00000
  5.500E+08 5.500E+08 3.865E+00 5.713E+02 7.803E+02 4.195E+02 1.771E+03 1.775E+03 2.142E+06 27.8603 1.00000
  6.000E+08 6.000E+08 3.879E+00 6.233E+02 8.513E+02 4.622E+02 1.937E+03 1.941E+03 2.168E+06 28.0344 1.00000
  7.000E+08 7.000E+08 3.902E+00 7.275E+02 9.933E+02 5.489E+02 2.270E+03 2.274E+03 2.216E+06 28.3427 1.00000
  8.000E+08 8.000E+08 3.923E+00 8.316E+02 1.135E+03 6.371E+02 2.604E+03 2.608E+03 2.257E+06 28.6097 1.00000
  9.000E+08 9.000E+08 3.941E+00 9.357E+02 1.277E+03 7.266E+02 2.940E+03 2.944E+03 2.294E+06 28.8453 1.00000
  1.000E+09 1.000E+09 3.958E+00 1.040E+03 1.419E+03 8.173E+02 3.276E+03 3.280E+03 2.326E+06 29.0560 1.00000
