 Incident particle is a Muon with M = 105.65839 MeV
 Index = 0: Americium
      Absorber with <Z/A> = 0.39085
 Sternheimer coef:  a     k=m_s   x_0    x_1    I[eV]   Cbar  delta0
                 0.2031  2.7615  0.2274  3.5021  934.0  6.2813 0.14

 *** Table generated with PUMAS v1.00 ***

      T         p     Ionization  brems     pair     photonuc  Radloss    dE/dx   CSDA Range  delta   beta
    [MeV]    [MeV/c]  -----------------------[MeV cm^2/g]------------------------  [g/cm^2]
  1.000E+00 1.457E+01 1.937E+01 6.287E-06 0.000E+00 0.000E+00 6.287E-06 1.937E+01 2.582E-02  0.0009 0.13661
  1.200E+00 1.597E+01 1.715E+01 7.217E-06 0.000E+00 0.000E+00 7.217E-06 1.715E+01 3.681E-02  0.0011 0.14944
  1.400E+00 1.726E+01 1.544E+01 8.097E-06 0.000E+00 0.000E+00 8.097E-06 1.544E+01 4.912E-02  0.0013 0.16119
  1.700E+00 1.903E+01 1.349E+01 9.339E-06 0.000E+00 0.000E+00 9.339E-06 1.349E+01 6.995E-02  0.0016 0.17725
  2.000E+00 2.066E+01 1.203E+01 1.050E-05 0.000E+00 0.000E+00 1.050E-05 1.203E+01 9.353E-02  0.0019 0.19186
  2.500E+00 2.312E+01 1.026E+01 1.230E-05 0.000E+00 0.000E+00 1.230E-05 1.026E+01 1.387E-01  0.0024 0.21376
  3.000E+00 2.536E+01 8.998E+00 1.396E-05 0.000E+00 0.000E+00 1.396E-05 8.998E+00 1.908E-01  0.0028 0.23336
  3.500E+00 2.742E+01 8.046E+00 1.551E-05 0.000E+00 0.000E+00 1.551E-05 8.046E+00 2.497E-01  0.0033 0.25120
  4.000E+00 2.935E+01 7.302E+00 1.696E-05 0.000E+00 0.000E+00 1.696E-05 7.302E+00 3.150E-01  0.0038 0.26763
  4.500E+00 3.116E+01 6.702E+00 1.834E-05 0.000E+00 0.000E+00 1.834E-05 6.702E+00 3.865E-01  0.0043 0.28290
  5.000E+00 3.289E+01 6.207E+00 1.964E-05 0.000E+00 0.000E+00 1.964E-05 6.207E+00 4.641E-01  0.0048 0.29720
  5.500E+00 3.453E+01 5.791E+00 2.088E-05 0.000E+00 0.000E+00 2.088E-05 5.791E+00 5.475E-01  0.0052 0.31066
  6.000E+00 3.611E+01 5.437E+00 2.207E-05 0.000E+00 0.000E+00 2.207E-05 5.437E+00 6.367E-01  0.0057 0.32339
  7.000E+00 3.909E+01 4.865E+00 2.432E-05 0.000E+00 0.000E+00 2.432E-05 4.865E+00 8.314E-01  0.0067 0.34700
  8.000E+00 4.189E+01 4.421E+00 2.641E-05 0.000E+00 0.000E+00 2.641E-05 4.421E+00 1.047E+00  0.0077 0.36854
  9.000E+00 4.453E+01 4.066E+00 2.837E-05 0.000E+00 0.000E+00 2.837E-05 4.066E+00 1.283E+00  0.0087 0.38836
  1.000E+01 4.704E+01 3.775E+00 3.023E-05 0.000E+00 0.000E+00 3.023E-05 3.775E+00 1.539E+00  0.0097 0.40675
  1.200E+01 5.177E+01 3.327E+00 3.369E-05 0.000E+00 0.000E+00 3.369E-05 3.327E+00 2.104E+00  0.0118 0.43998
  1.400E+01 5.616E+01 2.997E+00 3.688E-05 0.000E+00 0.000E+00 3.688E-05 2.997E+00 2.739E+00  0.0139 0.46937
  1.700E+01 6.230E+01 2.637E+00 4.130E-05 0.000E+00 0.000E+00 4.130E-05 2.637E+00 3.808E+00  0.0171 0.50792
  2.000E+01 6.802E+01 2.379E+00 4.538E-05 0.000E+00 0.000E+00 4.538E-05 2.379E+00 5.007E+00  0.0204 0.54129
  2.500E+01 7.686E+01 2.080E+00 5.170E-05 0.000E+00 0.000E+00 5.170E-05 2.080E+00 7.260E+00  0.0260 0.58827
  3.000E+01 8.509E+01 1.876E+00 5.762E-05 0.000E+00 0.000E+00 5.762E-05 1.876E+00 9.794E+00  0.0319 0.62720
  3.500E+01 9.285E+01 1.729E+00 6.329E-05 0.000E+00 0.000E+00 6.329E-05 1.729E+00 1.257E+01  0.0379 0.66011
  4.000E+01 1.003E+02 1.619E+00 6.882E-05 0.000E+00 0.000E+00 6.882E-05 1.619E+00 1.556E+01  0.0442 0.68834
  4.500E+01 1.074E+02 1.533E+00 7.425E-05 0.000E+00 0.000E+00 7.425E-05 1.533E+00 1.874E+01  0.0508 0.71286
  5.000E+01 1.143E+02 1.465E+00 7.963E-05 0.000E+00 0.000E+00 7.963E-05 1.465E+00 2.208E+01  0.0575 0.73434
  5.500E+01 1.210E+02 1.409E+00 8.499E-05 0.000E+00 0.000E+00 8.499E-05 1.409E+00 2.556E+01  0.0645 0.75332
  6.000E+01 1.276E+02 1.363E+00 9.036E-05 0.000E+00 0.000E+00 9.036E-05 1.364E+00 2.916E+01  0.0716 0.77019
  7.000E+01 1.403E+02 1.293E+00 1.012E-04 0.000E+00 0.000E+00 1.012E-04 1.293E+00 3.670E+01  0.0867 0.79887
  8.000E+01 1.527E+02 1.242E+00 1.121E-04 0.000E+00 0.000E+00 1.121E-04 1.243E+00 4.459E+01  0.1026 0.82227
  9.000E+01 1.647E+02 1.205E+00 1.232E-04 0.000E+00 0.000E+00 1.232E-04 1.205E+00 5.276E+01  0.1193 0.84166
  1.000E+02 1.764E+02 1.176E+00 1.346E-04 0.000E+00 0.000E+00 1.346E-04 1.176E+00 6.116E+01  0.1370 0.85794
  1.200E+02 1.994E+02 1.138E+00 1.580E-04 0.000E+00 0.000E+00 1.580E-04 1.138E+00 7.845E+01  0.1470 0.88361
  1.400E+02 2.218E+02 1.116E+00 1.825E-04 0.000E+00 0.000E+00 1.825E-04 1.116E+00 9.619E+01  0.1584 0.90278
  1.700E+02 2.546E+02 1.098E+00 2.210E-04 0.000E+00 0.000E+00 2.210E-04 1.098E+00 1.233E+02  0.1807 0.92363
  2.000E+02 2.868E+02 1.091E+00 2.616E-04 0.000E+00 0.000E+00 2.616E-04 1.091E+00 1.507E+02  0.2067 0.93835
  2.500E+02 3.396E+02 1.090E+00 3.339E-04 0.000E+00 0.000E+00 3.339E-04 1.091E+00 1.965E+02  0.2543 0.95485
  3.000E+02 3.917E+02 1.097E+00 4.114E-04 0.000E+00 0.000E+00 4.114E-04 1.098E+00 2.422E+02  0.3040 0.96548
  3.500E+02 4.432E+02 1.107E+00 4.936E-04 0.000E+00 0.000E+00 4.936E-04 1.108E+00 2.876E+02  0.3540 0.97274
  4.000E+02 4.945E+02 1.118E+00 5.803E-04 0.000E+00 0.000E+00 5.803E-04 1.119E+00 3.325E+02  0.4037 0.97793
  4.500E+02 5.455E+02 1.130E+00 6.711E-04 0.000E+00 0.000E+00 6.711E-04 1.131E+00 3.769E+02  0.4524 0.98176
  5.000E+02 5.964E+02 1.142E+00 7.656E-04 3.411E-05 0.000E+00 7.997E-04 1.143E+00 4.209E+02  0.5000 0.98467
  5.500E+02 6.471E+02 1.153E+00 8.637E-04 1.209E-04 0.000E+00 9.846E-04 1.154E+00 4.645E+02  0.5464 0.98693
  6.000E+02 6.977E+02 1.164E+00 9.651E-04 1.657E-04 0.000E+00 1.131E-03 1.165E+00 5.076E+02  0.5916 0.98873
  7.000E+02 7.987E+02 1.185E+00 1.177E-03 2.647E-04 0.000E+00 1.442E-03 1.186E+00 5.926E+02  0.6784 0.99136
  8.000E+02 8.995E+02 1.204E+00 1.400E-03 3.826E-04 0.000E+00 1.783E-03 1.205E+00 6.763E+02  0.7604 0.99317
  9.000E+02 1.000E+03 1.221E+00 1.634E-03 5.188E-04 0.000E+00 2.153E-03 1.223E+00 7.586E+02  0.8383 0.99447
  1.000E+03 1.101E+03 1.237E+00 1.877E-03 6.722E-04 0.000E+00 2.549E-03 1.239E+00 8.398E+02  0.9122 0.99542
  1.200E+03 1.301E+03 1.265E+00 2.388E-03 1.027E-03 2.244E-05 3.438E-03 1.269E+00 9.994E+02  1.0498 0.99672
  1.400E+03 1.502E+03 1.289E+00 2.929E-03 1.440E-03 6.078E-05 4.430E-03 1.294E+00 1.155E+03  1.1755 0.99753
  1.700E+03 1.803E+03 1.320E+00 3.790E-03 2.156E-03 1.285E-04 6.074E-03 1.326E+00 1.385E+03  1.3463 0.99829
  2.000E+03 2.103E+03 1.346E+00 4.701E-03 2.975E-03 2.070E-04 7.882E-03 1.354E+00 1.608E+03  1.4995 0.99874
  2.500E+03 2.604E+03 1.381E+00 6.314E-03 4.536E-03 3.566E-04 1.121E-02 1.392E+00 1.973E+03  1.7251 0.99918
  3.000E+03 3.104E+03 1.410E+00 8.028E-03 6.308E-03 5.109E-04 1.485E-02 1.424E+00 2.328E+03  1.9221 0.99942
  3.500E+03 3.604E+03 1.433E+00 9.827E-03 8.262E-03 6.724E-04 1.876E-02 1.452E+00 2.675E+03  2.0974 0.99957
  4.000E+03 4.104E+03 1.454E+00 1.170E-02 1.038E-02 8.434E-04 2.292E-02 1.477E+00 3.017E+03  2.2555 0.99967
  4.500E+03 4.604E+03 1.471E+00 1.364E-02 1.265E-02 1.020E-03 2.730E-02 1.498E+00 3.353E+03  2.3997 0.99974
  5.000E+03 5.105E+03 1.487E+00 1.563E-02 1.504E-02 1.188E-03 3.186E-02 1.519E+00 3.684E+03  2.5324 0.99979
  5.500E+03 5.605E+03 1.501E+00 1.768E-02 1.754E-02 1.369E-03 3.660E-02 1.537E+00 4.012E+03  2.6553 0.99982
  6.000E+03 6.105E+03 1.513E+00 1.978E-02 2.015E-02 1.537E-03 4.147E-02 1.555E+00 4.335E+03  2.7700 0.99985
  7.000E+03 7.105E+03 1.535E+00 2.410E-02 2.565E-02 1.890E-03 5.164E-02 1.586E+00 4.972E+03  2.9786 0.99989
  8.000E+03 8.105E+03 1.553E+00 2.857E-02 3.148E-02 2.240E-03 6.229E-02 1.615E+00 5.597E+03  3.1648 0.99992
  9.000E+03 9.105E+03 1.569E+00 3.318E-02 3.759E-02 2.566E-03 7.334E-02 1.642E+00 6.211E+03  3.3332 0.99993
  1.000E+04 1.011E+04 1.583E+00 3.790E-02 4.396E-02 2.901E-03 8.476E-02 1.668E+00 6.815E+03  3.4870 0.99995
  1.200E+04 1.211E+04 1.607E+00 4.766E-02 5.735E-02 3.578E-03 1.086E-01 1.715E+00 7.998E+03  3.7602 0.99996
  1.400E+04 1.411E+04 1.626E+00 5.777E-02 7.148E-02 4.251E-03 1.335E-01 1.759E+00 9.149E+03  3.9978 0.99997
  1.700E+04 1.711E+04 1.649E+00 7.347E-02 9.381E-02 5.243E-03 1.725E-01 1.822E+00 1.083E+04  4.3054 0.99998
  2.000E+04 2.011E+04 1.668E+00 8.973E-02 1.173E-01 6.211E-03 2.132E-01 1.881E+00 1.245E+04  4.5696 0.99999
  2.500E+04 2.511E+04 1.693E+00 1.178E-01 1.584E-01 7.791E-03 2.840E-01 1.977E+00 1.504E+04  4.9420 0.99999
  3.000E+04 3.011E+04 1.713E+00 1.469E-01 2.014E-01 9.334E-03 3.577E-01 2.071E+00 1.751E+04  5.2540 0.99999
  3.500E+04 3.511E+04 1.729E+00 1.768E-01 2.460E-01 1.088E-02 4.337E-01 2.163E+00 1.987E+04  5.5229 1.00000
  4.000E+04 4.011E+04 1.743E+00 2.074E-01 2.919E-01 1.241E-02 5.118E-01 2.254E+00 2.214E+04  5.7595 1.00000
  4.500E+04 4.511E+04 1.754E+00 2.386E-01 3.389E-01 1.392E-02 5.914E-01 2.346E+00 2.431E+04  5.9708 1.00000
  5.000E+04 5.011E+04 1.765E+00 2.703E-01 3.868E-01 1.542E-02 6.725E-01 2.437E+00 2.640E+04  6.1619 1.00000
  5.500E+04 5.511E+04 1.774E+00 3.025E-01 4.354E-01 1.693E-02 7.548E-01 2.529E+00 2.842E+04  6.3363 1.00000
  6.000E+04 6.011E+04 1.782E+00 3.350E-01 4.848E-01 1.842E-02 8.382E-01 2.620E+00 3.036E+04  6.4968 1.00000
  7.000E+04 7.011E+04 1.796E+00 4.013E-01 5.853E-01 2.137E-02 1.008E+00 2.804E+00 3.405E+04  6.7839 1.00000
  8.000E+04 8.011E+04 1.808E+00 4.687E-01 6.877E-01 2.432E-02 1.181E+00 2.989E+00 3.751E+04  7.0353 1.00000
  9.000E+04 9.011E+04 1.819E+00 5.372E-01 7.918E-01 2.726E-02 1.356E+00 3.175E+00 4.076E+04  7.2590 1.00000
  1.000E+05 1.001E+05 1.828E+00 6.066E-01 8.972E-01 3.015E-02 1.534E+00 3.362E+00 4.382E+04  7.4606 1.00000
  1.200E+05 1.201E+05 1.843E+00 7.477E-01 1.111E+00 3.601E-02 1.895E+00 3.739E+00 4.947E+04  7.8124 1.00000
  1.400E+05 1.401E+05 1.856E+00 8.914E-01 1.329E+00 4.187E-02 2.262E+00 4.119E+00 5.457E+04  8.1126 1.00000
  1.700E+05 1.701E+05 1.872E+00 1.111E+00 1.661E+00 5.063E-02 2.822E+00 4.695E+00 6.141E+04  8.4936 1.00000
  2.000E+05 2.001E+05 1.886E+00 1.334E+00 1.998E+00 5.943E-02 3.391E+00 5.276E+00 6.745E+04  8.8148 1.00000
  2.500E+05 2.501E+05 1.904E+00 1.712E+00 2.566E+00 7.411E-02 4.352E+00 6.255E+00 7.618E+04  9.2582 1.00000
  3.000E+05 3.001E+05 1.918E+00 2.096E+00 3.142E+00 8.888E-02 5.326E+00 7.245E+00 8.363E+04  9.6221 1.00000
  3.500E+05 3.501E+05 1.931E+00 2.484E+00 3.723E+00 1.038E-01 6.311E+00 8.241E+00 9.011E+04  9.9303 1.00000
  4.000E+05 4.001E+05 1.941E+00 2.877E+00 4.308E+00 1.188E-01 7.303E+00 9.245E+00 9.585E+04 10.1972 1.00000
  4.500E+05 4.501E+05 1.951E+00 3.273E+00 4.896E+00 1.338E-01 8.302E+00 1.025E+01 1.010E+05 10.4328 1.00000
  5.000E+05 5.001E+05 1.959E+00 3.671E+00 5.487E+00 1.490E-01 9.307E+00 1.127E+01 1.057E+05 10.6434 1.00000
  5.500E+05 5.501E+05 1.967E+00 4.072E+00 6.080E+00 1.641E-01 1.032E+01 1.228E+01 1.099E+05 10.8340 1.00000
  6.000E+05 6.001E+05 1.974E+00 4.475E+00 6.674E+00 1.792E-01 1.133E+01 1.330E+01 1.138E+05 11.0080 1.00000
  7.000E+05 7.001E+05 1.986E+00 5.286E+00 7.869E+00 2.097E-01 1.336E+01 1.535E+01 1.208E+05 11.3163 1.00000
  8.000E+05 8.001E+05 1.997E+00 6.102E+00 9.068E+00 2.405E-01 1.541E+01 1.741E+01 1.270E+05 11.5833 1.00000
  9.000E+05 9.001E+05 2.007E+00 6.923E+00 1.027E+01 2.716E-01 1.747E+01 1.947E+01 1.324E+05 11.8188 1.00000
  1.000E+06 1.000E+06 2.015E+00 7.748E+00 1.148E+01 3.029E-01 1.953E+01 2.155E+01 1.373E+05 12.0295 1.00000
  1.200E+06 1.200E+06 2.030E+00 9.407E+00 1.390E+01 3.664E-01 2.367E+01 2.570E+01 1.458E+05 12.3941 1.00000
  1.400E+06 1.400E+06 2.043E+00 1.108E+01 1.633E+01 4.307E-01 2.784E+01 2.988E+01 1.531E+05 12.7024 1.00000
  1.700E+06 1.700E+06 2.059E+00 1.359E+01 1.998E+01 5.287E-01 3.411E+01 3.617E+01 1.622E+05 13.0907 1.00000
  2.000E+06 2.000E+06 2.073E+00 1.612E+01 2.365E+01 6.282E-01 4.040E+01 4.247E+01 1.699E+05 13.4157 1.00000
  2.500E+06 2.500E+06 2.092E+00 2.036E+01 2.977E+01 7.970E-01 5.093E+01 5.302E+01 1.805E+05 13.8620 1.00000
  3.000E+06 3.000E+06 2.107E+00 2.462E+01 3.591E+01 9.690E-01 6.150E+01 6.360E+01 1.892E+05 14.2266 1.00000
  3.500E+06 3.500E+06 2.120E+00 2.889E+01 4.205E+01 1.144E+00 7.209E+01 7.421E+01 1.965E+05 14.5349 1.00000
  4.000E+06 4.000E+06 2.132E+00 3.317E+01 4.821E+01 1.321E+00 8.270E+01 8.483E+01 2.028E+05 14.8019 1.00000
  4.500E+06 4.500E+06 2.142E+00 3.747E+01 5.436E+01 1.501E+00 9.333E+01 9.547E+01 2.083E+05 15.0375 1.00000
  5.000E+06 5.000E+06 2.151E+00 4.176E+01 6.053E+01 1.682E+00 1.040E+02 1.061E+02 2.133E+05 15.2482 1.00000
  5.500E+06 5.500E+06 2.159E+00 4.607E+01 6.669E+01 1.865E+00 1.146E+02 1.168E+02 2.178E+05 15.4388 1.00000
  6.000E+06 6.000E+06 2.167E+00 5.038E+01 7.286E+01 2.050E+00 1.253E+02 1.275E+02 2.219E+05 15.6129 1.00000
  7.000E+06 7.000E+06 2.181E+00 5.900E+01 8.521E+01 2.425E+00 1.466E+02 1.488E+02 2.292E+05 15.9211 1.00000
  8.000E+06 8.000E+06 2.192E+00 6.765E+01 9.757E+01 2.805E+00 1.680E+02 1.702E+02 2.355E+05 16.1882 1.00000
  9.000E+06 9.000E+06 2.203E+00 7.630E+01 1.099E+02 3.190E+00 1.894E+02 1.916E+02 2.410E+05 16.4238 1.00000
  1.000E+07 1.000E+07 2.212E+00 8.496E+01 1.223E+02 3.580E+00 2.108E+02 2.130E+02 2.460E+05 16.6345 1.00000
  1.200E+07 1.200E+07 2.229E+00 1.023E+02 1.470E+02 4.371E+00 2.537E+02 2.559E+02 2.546E+05 16.9991 1.00000
  1.400E+07 1.400E+07 2.243E+00 1.197E+02 1.718E+02 5.176E+00 2.966E+02 2.989E+02 2.618E+05 17.3074 1.00000
  1.700E+07 1.700E+07 2.261E+00 1.457E+02 2.089E+02 6.407E+00 3.611E+02 3.633E+02 2.710E+05 17.6957 1.00000
  2.000E+07 2.000E+07 2.276E+00 1.718E+02 2.461E+02 7.661E+00 4.256E+02 4.279E+02 2.786E+05 18.0208 1.00000
  2.500E+07 2.500E+07 2.296E+00 2.153E+02 3.081E+02 9.796E+00 5.332E+02 5.355E+02 2.891E+05 18.4671 1.00000
  3.000E+07 3.000E+07 2.313E+00 2.589E+02 3.700E+02 1.198E+01 6.409E+02 6.432E+02 2.977E+05 18.8317 1.00000
  3.500E+07 3.500E+07 2.328E+00 3.024E+02 4.320E+02 1.420E+01 7.487E+02 7.510E+02 3.049E+05 19.1400 1.00000
  4.000E+07 4.000E+07 2.341E+00 3.460E+02 4.940E+02 1.646E+01 8.565E+02 8.589E+02 3.111E+05 19.4071 1.00000
  4.500E+07 4.500E+07 2.352E+00 3.896E+02 5.560E+02 1.875E+01 9.644E+02 9.668E+02 3.166E+05 19.6426 1.00000
  5.000E+07 5.000E+07 2.362E+00 4.332E+02 6.180E+02 2.106E+01 1.072E+03 1.075E+03 3.216E+05 19.8533 1.00000
  5.500E+07 5.500E+07 2.371E+00 4.768E+02 6.801E+02 2.341E+01 1.180E+03 1.183E+03 3.260E+05 20.0440 1.00000
  6.000E+07 6.000E+07 2.380E+00 5.205E+02 7.421E+02 2.577E+01 1.288E+03 1.291E+03 3.300E+05 20.2180 1.00000
  7.000E+07 7.000E+07 2.395E+00 6.077E+02 8.661E+02 3.057E+01 1.504E+03 1.507E+03 3.372E+05 20.5263 1.00000
  8.000E+07 8.000E+07 2.408E+00 6.950E+02 9.902E+02 3.545E+01 1.721E+03 1.723E+03 3.435E+05 20.7934 1.00000
  9.000E+07 9.000E+07 2.420E+00 7.823E+02 1.114E+03 4.040E+01 1.937E+03 1.939E+03 3.489E+05 21.0289 1.00000
  1.000E+08 1.000E+08 2.430E+00 8.696E+02 1.238E+03 4.541E+01 2.153E+03 2.156E+03 3.538E+05 21.2396 1.00000
  1.200E+08 1.200E+08 2.449E+00 1.044E+03 1.486E+03 5.559E+01 2.586E+03 2.589E+03 3.623E+05 21.6043 1.00000
  1.400E+08 1.400E+08 2.464E+00 1.219E+03 1.735E+03 6.597E+01 3.019E+03 3.022E+03 3.695E+05 21.9126 1.00000
  1.700E+08 1.700E+08 2.484E+00 1.481E+03 2.107E+03 8.185E+01 3.669E+03 3.672E+03 3.786E+05 22.3009 1.00000
  2.000E+08 2.000E+08 2.501E+00 1.743E+03 2.479E+03 9.806E+01 4.320E+03 4.322E+03 3.861E+05 22.6259 1.00000
  2.500E+08 2.500E+08 2.524E+00 2.180E+03 3.099E+03 1.257E+02 5.405E+03 5.407E+03 3.965E+05 23.0722 1.00000
  3.000E+08 3.000E+08 2.543E+00 2.616E+03 3.720E+03 1.540E+02 6.490E+03 6.493E+03 4.050E+05 23.4369 1.00000
  3.500E+08 3.500E+08 2.559E+00 3.053E+03 4.340E+03 1.828E+02 7.576E+03 7.579E+03 4.121E+05 23.7452 1.00000
  4.000E+08 4.000E+08 2.573E+00 3.490E+03 4.960E+03 2.121E+02 8.662E+03 8.665E+03 4.183E+05 24.0122 1.00000
  4.500E+08 4.500E+08 2.586E+00 3.927E+03 5.581E+03 2.418E+02 9.749E+03 9.752E+03 4.238E+05 24.2478 1.00000
  5.000E+08 5.000E+08 2.597E+00 4.364E+03 6.201E+03 2.720E+02 1.084E+04 1.084E+04 4.287E+05 24.4585 1.00000
  5.500E+08 5.500E+08 2.608E+00 4.800E+03 6.821E+03 3.024E+02 1.192E+04 1.193E+04 4.331E+05 24.6491 1.00000
  6.000E+08 6.000E+08 2.617E+00 5.237E+03 7.442E+03 3.333E+02 1.301E+04 1.301E+04 4.371E+05 24.8232 1.00000
  7.000E+08 7.000E+08 2.634E+00 6.111E+03 8.682E+03 3.958E+02 1.519E+04 1.519E+04 4.442E+05 25.1315 1.00000
  8.000E+08 8.000E+08 2.649E+00 6.984E+03 9.923E+03 4.594E+02 1.737E+04 1.737E+04 4.504E+05 25.3985 1.00000
  9.000E+08 9.000E+08 2.662E+00 7.858E+03 1.116E+04 5.239E+02 1.955E+04 1.955E+04 4.558E+05 25.6341 1.00000
  1.000E+09 1.000E+09 2.673E+00 8.732E+03 1.240E+04 5.893E+02 2.173E+04 2.173E+04 4.607E+05 25.8448 1.00000
