 Incident particle is a Muon with M = 105.65839 MeV
 Index = 0: Aniline
      Absorber with <Z/A> = 0.53684
 Sternheimer coef:  a     k=m_s   x_0    x_1    I[eV]   Cbar  delta0
                 0.1313  3.3434  0.1618  2.5805   66.2  3.2622 0.00

 *** Table generated with PUMAS v1.00 ***

      T         p     Ionization  brems     pair     photonuc  Radloss    dE/dx   CSDA Range  delta   beta
    [MeV]    [MeV/c]  -----------------------[MeV cm^2/g]------------------------  [g/cm^2]
  1.000E+00 1.457E+01 4.998E+01 6.461E-07 0.000E+00 0.000E+00 6.461E-07 4.998E+01 1.000E-02  0.0000 0.13661
  1.200E+00 1.597E+01 4.309E+01 7.395E-07 0.000E+00 0.000E+00 7.395E-07 4.309E+01 1.432E-02  0.0000 0.14944
  1.400E+00 1.726E+01 3.800E+01 8.288E-07 0.000E+00 0.000E+00 8.288E-07 3.800E+01 1.928E-02  0.0000 0.16119
  1.700E+00 1.903E+01 3.243E+01 9.563E-07 0.000E+00 0.000E+00 9.563E-07 3.243E+01 2.785E-02  0.0000 0.17725
  2.000E+00 2.066E+01 2.839E+01 1.077E-06 0.000E+00 0.000E+00 1.077E-06 2.839E+01 3.776E-02  0.0000 0.19186
  2.500E+00 2.312E+01 2.365E+01 1.267E-06 0.000E+00 0.000E+00 1.267E-06 2.365E+01 5.714E-02  0.0000 0.21376
  3.000E+00 2.536E+01 2.038E+01 1.445E-06 0.000E+00 0.000E+00 1.445E-06 2.038E+01 7.998E-02  0.0000 0.23336
  3.500E+00 2.742E+01 1.797E+01 1.613E-06 0.000E+00 0.000E+00 1.613E-06 1.797E+01 1.062E-01  0.0000 0.25120
  4.000E+00 2.935E+01 1.613E+01 1.773E-06 0.000E+00 0.000E+00 1.773E-06 1.613E+01 1.356E-01  0.0000 0.26763
  4.500E+00 3.116E+01 1.466E+01 1.925E-06 0.000E+00 0.000E+00 1.925E-06 1.466E+01 1.681E-01  0.0000 0.28290
  5.000E+00 3.289E+01 1.347E+01 2.071E-06 0.000E+00 0.000E+00 2.071E-06 1.347E+01 2.037E-01  0.0000 0.29720
  5.500E+00 3.453E+01 1.248E+01 2.212E-06 0.000E+00 0.000E+00 2.212E-06 1.248E+01 2.423E-01  0.0000 0.31066
  6.000E+00 3.611E+01 1.164E+01 2.348E-06 0.000E+00 0.000E+00 2.348E-06 1.164E+01 2.838E-01  0.0000 0.32339
  7.000E+00 3.909E+01 1.031E+01 2.607E-06 0.000E+00 0.000E+00 2.607E-06 1.031E+01 3.753E-01  0.0000 0.34700
  8.000E+00 4.189E+01 9.289E+00 2.852E-06 0.000E+00 0.000E+00 2.852E-06 9.289E+00 4.776E-01  0.0000 0.36854
  9.000E+00 4.453E+01 8.482E+00 3.084E-06 0.000E+00 0.000E+00 3.084E-06 8.482E+00 5.904E-01  0.0000 0.38836
  1.000E+01 4.704E+01 7.827E+00 3.306E-06 0.000E+00 0.000E+00 3.306E-06 7.827E+00 7.132E-01  0.0000 0.40675
  1.200E+01 5.177E+01 6.829E+00 3.723E-06 0.000E+00 0.000E+00 3.723E-06 6.829E+00 9.874E-01  0.0000 0.43998
  1.400E+01 5.616E+01 6.102E+00 4.112E-06 0.000E+00 0.000E+00 4.112E-06 6.102E+00 1.298E+00  0.0000 0.46937
  1.700E+01 6.230E+01 5.319E+00 4.655E-06 0.000E+00 0.000E+00 4.655E-06 5.319E+00 1.826E+00  0.0000 0.50792
  2.000E+01 6.802E+01 4.763E+00 5.162E-06 0.000E+00 0.000E+00 5.162E-06 4.763E+00 2.422E+00  0.0000 0.54129
  2.500E+01 7.686E+01 4.123E+00 5.950E-06 0.000E+00 0.000E+00 5.950E-06 4.123E+00 3.554E+00  0.0000 0.58827
  3.000E+01 8.509E+01 3.693E+00 6.688E-06 0.000E+00 0.000E+00 6.688E-06 3.693E+00 4.837E+00  0.0000 0.62720
  3.500E+01 9.285E+01 3.384E+00 7.394E-06 0.000E+00 0.000E+00 7.394E-06 3.384E+00 6.253E+00  0.0000 0.66011
  4.000E+01 1.003E+02 3.152E+00 8.078E-06 0.000E+00 0.000E+00 8.078E-06 3.152E+00 7.785E+00  0.0000 0.68834
  4.500E+01 1.074E+02 2.972E+00 8.748E-06 0.000E+00 0.000E+00 8.748E-06 2.972E+00 9.419E+00  0.0000 0.71286
  5.000E+01 1.143E+02 2.830E+00 9.409E-06 0.000E+00 0.000E+00 9.409E-06 2.830E+00 1.114E+01  0.0000 0.73434
  5.500E+01 1.210E+02 2.714E+00 1.006E-05 0.000E+00 0.000E+00 1.006E-05 2.714E+00 1.295E+01  0.0000 0.75332
  6.000E+01 1.276E+02 2.618E+00 1.072E-05 0.000E+00 0.000E+00 1.072E-05 2.618E+00 1.482E+01  0.0000 0.77019
  7.000E+01 1.403E+02 2.471E+00 1.202E-05 0.000E+00 0.000E+00 1.202E-05 2.471E+00 1.876E+01  0.0000 0.79887
  8.000E+01 1.527E+02 2.364E+00 1.334E-05 0.000E+00 0.000E+00 1.334E-05 2.364E+00 2.290E+01  0.0000 0.82227
  9.000E+01 1.647E+02 2.280E+00 1.466E-05 0.000E+00 0.000E+00 1.466E-05 2.280E+00 2.720E+01  0.0355 0.84166
  1.000E+02 1.764E+02 2.215E+00 1.601E-05 0.000E+00 0.000E+00 1.601E-05 2.215E+00 3.165E+01  0.0739 0.85794
  1.200E+02 1.994E+02 2.122E+00 1.877E-05 0.000E+00 0.000E+00 1.877E-05 2.122E+00 4.088E+01  0.1490 0.88361
  1.400E+02 2.218E+02 2.062E+00 2.163E-05 0.000E+00 0.000E+00 2.163E-05 2.062E+00 5.044E+01  0.2216 0.90278
  1.700E+02 2.546E+02 2.005E+00 2.610E-05 3.812E-14 0.000E+00 2.610E-05 2.006E+00 6.520E+01  0.3256 0.92363
  2.000E+02 2.868E+02 1.973E+00 3.079E-05 8.515E-12 0.000E+00 3.079E-05 1.973E+00 8.028E+01  0.4239 0.93835
  2.500E+02 3.396E+02 1.947E+00 3.905E-05 7.027E-08 0.000E+00 3.912E-05 1.947E+00 1.058E+02  0.5764 0.95485
  3.000E+02 3.917E+02 1.939E+00 4.783E-05 6.166E-07 0.000E+00 4.845E-05 1.939E+00 1.315E+02  0.7166 0.96548
  3.500E+02 4.432E+02 1.939E+00 5.710E-05 1.691E-06 0.000E+00 5.879E-05 1.939E+00 1.573E+02  0.8465 0.97274
  4.000E+02 4.945E+02 1.944E+00 6.681E-05 3.269E-06 0.000E+00 7.008E-05 1.944E+00 1.831E+02  0.9675 0.97793
  4.500E+02 5.455E+02 1.951E+00 7.692E-05 5.332E-06 0.000E+00 8.225E-05 1.951E+00 2.087E+02  1.0808 0.98176
  5.000E+02 5.964E+02 1.960E+00 8.741E-05 7.862E-06 0.000E+00 9.527E-05 1.960E+00 2.343E+02  1.1873 0.98467
  5.500E+02 6.471E+02 1.969E+00 9.825E-05 1.084E-05 0.000E+00 1.091E-04 1.969E+00 2.598E+02  1.2880 0.98693
  6.000E+02 6.977E+02 1.979E+00 1.094E-04 1.426E-05 0.000E+00 1.237E-04 1.979E+00 2.851E+02  1.3834 0.98873
  7.000E+02 7.987E+02 1.997E+00 1.327E-04 2.235E-05 0.000E+00 1.550E-04 1.997E+00 3.354E+02  1.5604 0.99136
  8.000E+02 8.995E+02 2.015E+00 1.570E-04 3.201E-05 0.000E+00 1.890E-04 2.016E+00 3.852E+02  1.7221 0.99317
  9.000E+02 1.000E+03 2.032E+00 1.824E-04 4.314E-05 0.000E+00 2.255E-04 2.032E+00 4.346E+02  1.8709 0.99447
  1.000E+03 1.101E+03 2.048E+00 2.086E-04 5.567E-05 0.000E+00 2.643E-04 2.048E+00 4.836E+02  2.0088 0.99542
  1.200E+03 1.301E+03 2.077E+00 2.636E-04 8.455E-05 2.257E-05 3.707E-04 2.077E+00 5.806E+02  2.2578 0.99672
  1.400E+03 1.502E+03 2.101E+00 3.215E-04 1.181E-04 6.186E-05 5.015E-04 2.102E+00 6.763E+02  2.4783 0.99753
  1.700E+03 1.803E+03 2.133E+00 4.131E-04 1.763E-04 1.329E-04 7.223E-04 2.134E+00 8.180E+02  2.7681 0.99829
  2.000E+03 2.103E+03 2.160E+00 5.097E-04 2.427E-04 2.169E-04 9.693E-04 2.161E+00 9.577E+02  3.0206 0.99874
  2.500E+03 2.604E+03 2.197E+00 6.799E-04 3.695E-04 3.799E-04 1.429E-03 2.199E+00 1.187E+03  3.3807 0.99918
  3.000E+03 3.104E+03 2.227E+00 8.602E-04 5.134E-04 5.519E-04 1.925E-03 2.229E+00 1.413E+03  3.6857 0.99942
  3.500E+03 3.604E+03 2.253E+00 1.049E-03 6.722E-04 7.347E-04 2.456E-03 2.255E+00 1.636E+03  3.9504 0.99957
  4.000E+03 4.104E+03 2.274E+00 1.245E-03 8.589E-04 9.306E-04 3.034E-03 2.277E+00 1.857E+03  4.1844 0.99967
  4.500E+03 4.604E+03 2.293E+00 1.448E-03 1.064E-03 1.135E-03 3.646E-03 2.296E+00 2.075E+03  4.3942 0.99974
  5.000E+03 5.105E+03 2.309E+00 1.656E-03 1.281E-03 1.332E-03 4.269E-03 2.314E+00 2.292E+03  4.5843 0.99979
  5.500E+03 5.605E+03 2.324E+00 1.870E-03 1.510E-03 1.544E-03 4.924E-03 2.329E+00 2.507E+03  4.7581 0.99982
  6.000E+03 6.105E+03 2.338E+00 2.089E-03 1.749E-03 1.742E-03 5.580E-03 2.343E+00 2.722E+03  4.9183 0.99985
  7.000E+03 7.105E+03 2.361E+00 2.540E-03 2.255E-03 2.163E-03 6.958E-03 2.368E+00 3.146E+03  5.2053 0.99989
  8.000E+03 8.105E+03 2.381E+00 3.007E-03 2.795E-03 2.582E-03 8.384E-03 2.389E+00 3.567E+03  5.4569 0.99992
  9.000E+03 9.105E+03 2.398E+00 3.488E-03 3.364E-03 2.976E-03 9.828E-03 2.408E+00 3.983E+03  5.6809 0.99993
  1.000E+04 1.011E+04 2.413E+00 3.982E-03 3.960E-03 3.384E-03 1.133E-02 2.424E+00 4.397E+03  5.8827 0.99995
  1.200E+04 1.211E+04 2.439E+00 5.001E-03 5.220E-03 4.213E-03 1.443E-02 2.453E+00 5.217E+03  6.2350 0.99996
  1.400E+04 1.411E+04 2.460E+00 6.060E-03 6.559E-03 5.046E-03 1.767E-02 2.478E+00 6.029E+03  6.5354 0.99997
  1.700E+04 1.711E+04 2.486E+00 7.707E-03 8.692E-03 6.284E-03 2.268E-02 2.509E+00 7.232E+03  6.9165 0.99998
  2.000E+04 2.011E+04 2.508E+00 9.415E-03 1.095E-02 7.501E-03 2.787E-02 2.536E+00 8.421E+03  7.2372 0.99999
  2.500E+04 2.511E+04 2.537E+00 1.237E-02 1.494E-02 9.506E-03 3.682E-02 2.573E+00 1.038E+04  7.6797 0.99999
  3.000E+04 3.011E+04 2.559E+00 1.545E-02 1.916E-02 1.148E-02 4.609E-02 2.605E+00 1.231E+04  8.0424 0.99999
  3.500E+04 3.511E+04 2.578E+00 1.862E-02 2.356E-02 1.348E-02 5.566E-02 2.634E+00 1.422E+04  8.3496 1.00000
  4.000E+04 4.011E+04 2.595E+00 2.187E-02 2.812E-02 1.546E-02 6.545E-02 2.660E+00 1.611E+04  8.6159 1.00000
  4.500E+04 4.511E+04 2.609E+00 2.519E-02 3.282E-02 1.741E-02 7.542E-02 2.684E+00 1.798E+04  8.8509 1.00000
  5.000E+04 5.011E+04 2.621E+00 2.857E-02 3.763E-02 1.937E-02 8.558E-02 2.707E+00 1.983E+04  9.0612 1.00000
  5.500E+04 5.511E+04 2.632E+00 3.201E-02 4.255E-02 2.135E-02 9.590E-02 2.728E+00 2.167E+04  9.2514 1.00000
  6.000E+04 6.011E+04 2.642E+00 3.549E-02 4.755E-02 2.331E-02 1.064E-01 2.749E+00 2.350E+04  9.4251 1.00000
  7.000E+04 7.011E+04 2.660E+00 4.260E-02 5.780E-02 2.719E-02 1.276E-01 2.788E+00 2.711E+04  9.7329 1.00000
  8.000E+04 8.011E+04 2.676E+00 4.986E-02 6.832E-02 3.110E-02 1.493E-01 2.825E+00 3.068E+04  9.9996 1.00000
  9.000E+04 9.011E+04 2.689E+00 5.725E-02 7.908E-02 3.501E-02 1.713E-01 2.860E+00 3.419E+04 10.2349 1.00000
  1.000E+05 1.001E+05 2.701E+00 6.476E-02 9.002E-02 3.885E-02 1.936E-01 2.894E+00 3.767E+04 10.4453 1.00000
  1.200E+05 1.201E+05 2.721E+00 8.007E-02 1.124E-01 4.667E-02 2.392E-01 2.960E+00 4.450E+04 10.8096 1.00000
  1.400E+05 1.401E+05 2.738E+00 9.572E-02 1.353E-01 5.451E-02 2.856E-01 3.024E+00 5.119E+04 11.1177 1.00000
  1.700E+05 1.701E+05 2.760E+00 1.197E-01 1.705E-01 6.628E-02 3.565E-01 3.116E+00 6.096E+04 11.5057 1.00000
  2.000E+05 2.001E+05 2.778E+00 1.442E-01 2.065E-01 7.813E-02 4.288E-01 3.206E+00 7.045E+04 11.8306 1.00000
  2.500E+05 2.501E+05 2.802E+00 1.859E-01 2.676E-01 9.797E-02 5.514E-01 3.354E+00 8.570E+04 12.2767 1.00000
  3.000E+05 3.001E+05 2.822E+00 2.284E-01 3.300E-01 1.180E-01 6.764E-01 3.499E+00 1.003E+05 12.6412 1.00000
  3.500E+05 3.501E+05 2.839E+00 2.717E-01 3.932E-01 1.382E-01 8.031E-01 3.642E+00 1.143E+05 12.9494 1.00000
  4.000E+05 4.001E+05 2.854E+00 3.155E-01 4.572E-01 1.586E-01 9.313E-01 3.785E+00 1.278E+05 13.2163 1.00000
  4.500E+05 4.501E+05 2.867E+00 3.598E-01 5.218E-01 1.791E-01 1.061E+00 3.928E+00 1.408E+05 13.4519 1.00000
  5.000E+05 5.001E+05 2.879E+00 4.045E-01 5.869E-01 1.998E-01 1.191E+00 4.070E+00 1.533E+05 13.6625 1.00000
  5.500E+05 5.501E+05 2.889E+00 4.496E-01 6.524E-01 2.203E-01 1.322E+00 4.211E+00 1.653E+05 13.8531 1.00000
  6.000E+05 6.001E+05 2.899E+00 4.950E-01 7.182E-01 2.409E-01 1.454E+00 4.353E+00 1.770E+05 14.0271 1.00000
  7.000E+05 7.001E+05 2.916E+00 5.866E-01 8.508E-01 2.826E-01 1.720E+00 4.636E+00 1.993E+05 14.3354 1.00000
  8.000E+05 8.001E+05 2.931E+00 6.792E-01 9.844E-01 3.247E-01 1.988E+00 4.919E+00 2.202E+05 14.6024 1.00000
  9.000E+05 9.001E+05 2.944E+00 7.726E-01 1.119E+00 3.673E-01 2.259E+00 5.202E+00 2.400E+05 14.8379 1.00000
  1.000E+06 1.000E+06 2.956E+00 8.666E-01 1.254E+00 4.102E-01 2.531E+00 5.486E+00 2.587E+05 15.0486 1.00000
  1.200E+06 1.200E+06 2.976E+00 1.056E+00 1.525E+00 4.971E-01 3.079E+00 6.055E+00 2.935E+05 15.4132 1.00000
  1.400E+06 1.400E+06 2.994E+00 1.248E+00 1.799E+00 5.853E-01 3.632E+00 6.625E+00 3.251E+05 15.7215 1.00000
  1.700E+06 1.700E+06 3.016E+00 1.537E+00 2.211E+00 7.197E-01 4.468E+00 7.484E+00 3.678E+05 16.1098 1.00000
  2.000E+06 2.000E+06 3.035E+00 1.829E+00 2.625E+00 8.562E-01 5.311E+00 8.345E+00 4.058E+05 16.4348 1.00000
  2.500E+06 2.500E+06 3.060E+00 2.320E+00 3.319E+00 1.088E+00 6.727E+00 9.787E+00 4.613E+05 16.8811 1.00000
  3.000E+06 3.000E+06 3.082E+00 2.815E+00 4.015E+00 1.324E+00 8.155E+00 1.124E+01 5.091E+05 17.2457 1.00000
  3.500E+06 3.500E+06 3.100E+00 3.313E+00 4.714E+00 1.565E+00 9.591E+00 1.269E+01 5.510E+05 17.5540 1.00000
  4.000E+06 4.000E+06 3.115E+00 3.813E+00 5.414E+00 1.808E+00 1.104E+01 1.415E+01 5.884E+05 17.8210 1.00000
  4.500E+06 4.500E+06 3.129E+00 4.315E+00 6.115E+00 2.055E+00 1.249E+01 1.561E+01 6.221E+05 18.0566 1.00000
  5.000E+06 5.000E+06 3.142E+00 4.818E+00 6.818E+00 2.304E+00 1.394E+01 1.708E+01 6.527E+05 18.2673 1.00000
  5.500E+06 5.500E+06 3.153E+00 5.323E+00 7.521E+00 2.556E+00 1.540E+01 1.855E+01 6.808E+05 18.4579 1.00000
  6.000E+06 6.000E+06 3.164E+00 5.829E+00 8.225E+00 2.811E+00 1.686E+01 2.003E+01 7.068E+05 18.6320 1.00000
  7.000E+06 7.000E+06 3.183E+00 6.844E+00 9.635E+00 3.326E+00 1.980E+01 2.299E+01 7.535E+05 18.9402 1.00000
  8.000E+06 8.000E+06 3.199E+00 7.861E+00 1.105E+01 3.849E+00 2.276E+01 2.595E+01 7.945E+05 19.2073 1.00000
  9.000E+06 9.000E+06 3.213E+00 8.881E+00 1.246E+01 4.378E+00 2.572E+01 2.893E+01 8.311E+05 19.4429 1.00000
  1.000E+07 1.000E+07 3.226E+00 9.903E+00 1.387E+01 4.914E+00 2.869E+01 3.192E+01 8.640E+05 19.6536 1.00000
  1.200E+07 1.200E+07 3.249E+00 1.195E+01 1.670E+01 6.003E+00 3.466E+01 3.791E+01 9.217E+05 20.0182 1.00000
  1.400E+07 1.400E+07 3.268E+00 1.401E+01 1.954E+01 7.111E+00 4.065E+01 4.392E+01 9.709E+05 20.3265 1.00000
  1.700E+07 1.700E+07 3.292E+00 1.709E+01 2.379E+01 8.804E+00 4.969E+01 5.298E+01 1.033E+06 20.7148 1.00000
  2.000E+07 2.000E+07 3.313E+00 2.019E+01 2.805E+01 1.053E+01 5.876E+01 6.208E+01 1.086E+06 21.0399 1.00000
  2.500E+07 2.500E+07 3.341E+00 2.535E+01 3.515E+01 1.347E+01 7.397E+01 7.731E+01 1.158E+06 21.4862 1.00000
  3.000E+07 3.000E+07 3.365E+00 3.053E+01 4.225E+01 1.647E+01 8.925E+01 9.261E+01 1.218E+06 21.8508 1.00000
  3.500E+07 3.500E+07 3.385E+00 3.571E+01 4.935E+01 1.953E+01 1.046E+02 1.080E+02 1.268E+06 22.1591 1.00000
  4.000E+07 4.000E+07 3.403E+00 4.090E+01 5.646E+01 2.264E+01 1.200E+02 1.234E+02 1.311E+06 22.4262 1.00000
  4.500E+07 4.500E+07 3.418E+00 4.609E+01 6.357E+01 2.579E+01 1.354E+02 1.389E+02 1.350E+06 22.6617 1.00000
  5.000E+07 5.000E+07 3.432E+00 5.128E+01 7.068E+01 2.898E+01 1.509E+02 1.544E+02 1.384E+06 22.8724 1.00000
  5.500E+07 5.500E+07 3.445E+00 5.648E+01 7.779E+01 3.220E+01 1.665E+02 1.699E+02 1.415E+06 23.0631 1.00000
  6.000E+07 6.000E+07 3.456E+00 6.168E+01 8.490E+01 3.546E+01 1.820E+02 1.855E+02 1.443E+06 23.2371 1.00000
  7.000E+07 7.000E+07 3.477E+00 7.208E+01 9.913E+01 4.207E+01 2.133E+02 2.168E+02 1.493E+06 23.5454 1.00000
  8.000E+07 8.000E+07 3.495E+00 8.248E+01 1.134E+02 4.878E+01 2.446E+02 2.481E+02 1.536E+06 23.8125 1.00000
  9.000E+07 9.000E+07 3.511E+00 9.289E+01 1.276E+02 5.559E+01 2.761E+02 2.796E+02 1.574E+06 24.0480 1.00000
  1.000E+08 1.000E+08 3.526E+00 1.033E+02 1.418E+02 6.248E+01 3.076E+02 3.111E+02 1.608E+06 24.2587 1.00000
  1.200E+08 1.200E+08 3.551E+00 1.241E+02 1.703E+02 7.650E+01 3.709E+02 3.745E+02 1.667E+06 24.6234 1.00000
  1.400E+08 1.400E+08 3.572E+00 1.450E+02 1.988E+02 9.079E+01 4.345E+02 4.381E+02 1.716E+06 24.9317 1.00000
  1.700E+08 1.700E+08 3.599E+00 1.763E+02 2.415E+02 1.127E+02 5.304E+02 5.340E+02 1.779E+06 25.3200 1.00000
  2.000E+08 2.000E+08 3.622E+00 2.076E+02 2.842E+02 1.350E+02 6.267E+02 6.303E+02 1.831E+06 25.6450 1.00000
  2.500E+08 2.500E+08 3.654E+00 2.597E+02 3.553E+02 1.730E+02 7.880E+02 7.917E+02 1.902E+06 26.0913 1.00000
  3.000E+08 3.000E+08 3.680E+00 3.119E+02 4.265E+02 2.119E+02 9.503E+02 9.540E+02 1.960E+06 26.4560 1.00000
  3.500E+08 3.500E+08 3.703E+00 3.641E+02 4.977E+02 2.516E+02 1.113E+03 1.117E+03 2.008E+06 26.7643 1.00000
  4.000E+08 4.000E+08 3.722E+00 4.162E+02 5.689E+02 2.919E+02 1.277E+03 1.281E+03 2.050E+06 27.0313 1.00000
  4.500E+08 4.500E+08 3.740E+00 4.684E+02 6.401E+02 3.329E+02 1.441E+03 1.445E+03 2.087E+06 27.2669 1.00000
  5.000E+08 5.000E+08 3.755E+00 5.206E+02 7.113E+02 3.743E+02 1.606E+03 1.610E+03 2.120E+06 27.4776 1.00000
  5.500E+08 5.500E+08 3.769E+00 5.728E+02 7.825E+02 4.163E+02 1.772E+03 1.775E+03 2.149E+06 27.6682 1.00000
  6.000E+08 6.000E+08 3.782E+00 6.250E+02 8.537E+02 4.587E+02 1.937E+03 1.941E+03 2.176E+06 27.8423 1.00000
  7.000E+08 7.000E+08 3.805E+00 7.294E+02 9.960E+02 5.448E+02 2.270E+03 2.274E+03 2.224E+06 28.1506 1.00000
  8.000E+08 8.000E+08 3.826E+00 8.338E+02 1.138E+03 6.323E+02 2.604E+03 2.608E+03 2.265E+06 28.4176 1.00000
  9.000E+08 9.000E+08 3.843E+00 9.382E+02 1.281E+03 7.211E+02 2.940E+03 2.944E+03 2.301E+06 28.6532 1.00000
  1.000E+09 1.000E+09 3.860E+00 1.043E+03 1.423E+03 8.111E+02 3.277E+03 3.281E+03 2.334E+06 28.8639 1.00000
