 Incident particle is a Muon with M = 105.65839 MeV
 Index = 0: Astatine
      Absorber with <Z/A> = 0.40479
 Sternheimer coef:  a     k=m_s   x_0    x_1    I[eV]   Cbar  delta0
                 0.3118  3.0000  0.7833  3.0000  825.0  7.0039 0.00

 *** Table generated with PUMAS v1.00 ***

      T         p     Ionization  brems     pair     photonuc  Radloss    dE/dx   CSDA Range  delta   beta
    [MeV]    [MeV/c]  -----------------------[MeV cm^2/g]------------------------  [g/cm^2]
  1.000E+00 1.457E+01 2.089E+01 5.891E-06 0.000E+00 0.000E+00 5.891E-06 2.089E+01 2.394E-02  0.0000 0.13661
  1.200E+00 1.597E+01 1.845E+01 6.764E-06 0.000E+00 0.000E+00 6.764E-06 1.845E+01 3.415E-02  0.0000 0.14944
  1.400E+00 1.726E+01 1.659E+01 7.590E-06 0.000E+00 0.000E+00 7.590E-06 1.659E+01 4.559E-02  0.0000 0.16119
  1.700E+00 1.903E+01 1.447E+01 8.757E-06 0.000E+00 0.000E+00 8.757E-06 1.447E+01 6.500E-02  0.0000 0.17725
  2.000E+00 2.066E+01 1.289E+01 9.852E-06 0.000E+00 0.000E+00 9.852E-06 1.289E+01 8.701E-02  0.0000 0.19186
  2.500E+00 2.312E+01 1.097E+01 1.155E-05 0.000E+00 0.000E+00 1.155E-05 1.097E+01 1.292E-01  0.0000 0.21376
  3.000E+00 2.536E+01 9.605E+00 1.311E-05 0.000E+00 0.000E+00 1.311E-05 9.605E+00 1.780E-01  0.0000 0.23336
  3.500E+00 2.742E+01 8.581E+00 1.457E-05 0.000E+00 0.000E+00 1.457E-05 8.581E+00 2.332E-01  0.0000 0.25120
  4.000E+00 2.935E+01 7.781E+00 1.594E-05 0.000E+00 0.000E+00 1.594E-05 7.781E+00 2.945E-01  0.0000 0.26763
  4.500E+00 3.116E+01 7.137E+00 1.724E-05 0.000E+00 0.000E+00 1.724E-05 7.137E+00 3.616E-01  0.0000 0.28290
  5.000E+00 3.289E+01 6.606E+00 1.847E-05 0.000E+00 0.000E+00 1.847E-05 6.606E+00 4.345E-01  0.0000 0.29720
  5.500E+00 3.453E+01 6.161E+00 1.964E-05 0.000E+00 0.000E+00 1.964E-05 6.161E+00 5.129E-01  0.0000 0.31066
  6.000E+00 3.611E+01 5.782E+00 2.077E-05 0.000E+00 0.000E+00 2.077E-05 5.782E+00 5.967E-01  0.0000 0.32339
  7.000E+00 3.909E+01 5.170E+00 2.289E-05 0.000E+00 0.000E+00 2.289E-05 5.170E+00 7.799E-01  0.0000 0.34700
  8.000E+00 4.189E+01 4.695E+00 2.487E-05 0.000E+00 0.000E+00 2.487E-05 4.695E+00 9.831E-01  0.0000 0.36854
  9.000E+00 4.453E+01 4.317E+00 2.673E-05 0.000E+00 0.000E+00 2.673E-05 4.317E+00 1.205E+00  0.0000 0.38836
  1.000E+01 4.704E+01 4.007E+00 2.849E-05 0.000E+00 0.000E+00 2.849E-05 4.007E+00 1.446E+00  0.0000 0.40675
  1.200E+01 5.177E+01 3.529E+00 3.177E-05 0.000E+00 0.000E+00 3.177E-05 3.529E+00 1.979E+00  0.0000 0.43998
  1.400E+01 5.616E+01 3.178E+00 3.479E-05 0.000E+00 0.000E+00 3.479E-05 3.178E+00 2.577E+00  0.0000 0.46937
  1.700E+01 6.230E+01 2.795E+00 3.898E-05 0.000E+00 0.000E+00 3.898E-05 2.795E+00 3.586E+00  0.0000 0.50792
  2.000E+01 6.802E+01 2.521E+00 4.286E-05 0.000E+00 0.000E+00 4.286E-05 2.521E+00 4.717E+00  0.0000 0.54129
  2.500E+01 7.686E+01 2.203E+00 4.885E-05 0.000E+00 0.000E+00 4.885E-05 2.203E+00 6.844E+00  0.0000 0.58827
  3.000E+01 8.509E+01 1.987E+00 5.447E-05 0.000E+00 0.000E+00 5.447E-05 1.987E+00 9.236E+00  0.0000 0.62720
  3.500E+01 9.285E+01 1.832E+00 5.985E-05 0.000E+00 0.000E+00 5.985E-05 1.832E+00 1.186E+01  0.0000 0.66011
  4.000E+01 1.003E+02 1.715E+00 6.508E-05 0.000E+00 0.000E+00 6.508E-05 1.715E+00 1.468E+01  0.0000 0.68834
  4.500E+01 1.074E+02 1.624E+00 7.023E-05 0.000E+00 0.000E+00 7.023E-05 1.624E+00 1.768E+01  0.0000 0.71286
  5.000E+01 1.143E+02 1.552E+00 7.533E-05 0.000E+00 0.000E+00 7.533E-05 1.552E+00 2.083E+01  0.0000 0.73434
  5.500E+01 1.210E+02 1.494E+00 8.041E-05 0.000E+00 0.000E+00 8.041E-05 1.494E+00 2.411E+01  0.0000 0.75332
  6.000E+01 1.276E+02 1.446E+00 8.549E-05 0.000E+00 0.000E+00 8.549E-05 1.446E+00 2.752E+01  0.0000 0.77019
  7.000E+01 1.403E+02 1.372E+00 9.571E-05 0.000E+00 0.000E+00 9.571E-05 1.372E+00 3.462E+01  0.0000 0.79887
  8.000E+01 1.527E+02 1.319E+00 1.061E-04 0.000E+00 0.000E+00 1.061E-04 1.319E+00 4.205E+01  0.0000 0.82227
  9.000E+01 1.647E+02 1.280E+00 1.166E-04 0.000E+00 0.000E+00 1.166E-04 1.280E+00 4.975E+01  0.0000 0.84166
  1.000E+02 1.764E+02 1.250E+00 1.274E-04 0.000E+00 0.000E+00 1.274E-04 1.250E+00 5.766E+01  0.0000 0.85794
  1.200E+02 1.994E+02 1.210E+00 1.495E-04 0.000E+00 0.000E+00 1.495E-04 1.211E+00 7.391E+01  0.0000 0.88361
  1.400E+02 2.218E+02 1.187E+00 1.726E-04 0.000E+00 0.000E+00 1.726E-04 1.187E+00 9.060E+01  0.0000 0.90278
  1.700E+02 2.546E+02 1.168E+00 2.090E-04 0.000E+00 0.000E+00 2.090E-04 1.169E+00 1.161E+02  0.0000 0.92363
  2.000E+02 2.868E+02 1.162E+00 2.474E-04 0.000E+00 0.000E+00 2.474E-04 1.162E+00 1.418E+02  0.0000 0.93835
  2.500E+02 3.396E+02 1.163E+00 3.156E-04 0.000E+00 0.000E+00 3.156E-04 1.164E+00 1.848E+02  0.0000 0.95485
  3.000E+02 3.917E+02 1.173E+00 3.888E-04 0.000E+00 0.000E+00 3.888E-04 1.174E+00 2.276E+02  0.0000 0.96548
  3.500E+02 4.432E+02 1.186E+00 4.664E-04 0.000E+00 0.000E+00 4.664E-04 1.187E+00 2.700E+02  0.0000 0.97274
  4.000E+02 4.945E+02 1.201E+00 5.481E-04 0.000E+00 0.000E+00 5.481E-04 1.201E+00 3.119E+02  0.0000 0.97793
  4.500E+02 5.455E+02 1.216E+00 6.337E-04 0.000E+00 0.000E+00 6.337E-04 1.216E+00 3.532E+02  0.0000 0.98176
  5.000E+02 5.964E+02 1.230E+00 7.228E-04 7.281E-05 0.000E+00 7.956E-04 1.231E+00 3.941E+02  0.0000 0.98467
  5.500E+02 6.471E+02 1.245E+00 8.152E-04 1.154E-04 0.000E+00 9.306E-04 1.246E+00 4.344E+02 -0.0004 0.98693
  6.000E+02 6.977E+02 1.259E+00 9.107E-04 1.549E-04 0.000E+00 1.066E-03 1.260E+00 4.744E+02  0.0026 0.98873
  7.000E+02 7.987E+02 1.284E+00 1.110E-03 2.464E-04 0.000E+00 1.357E-03 1.286E+00 5.529E+02  0.0189 0.99136
  8.000E+02 8.995E+02 1.307E+00 1.321E-03 3.559E-04 0.000E+00 1.677E-03 1.309E+00 6.300E+02  0.0445 0.99317
  9.000E+02 1.000E+03 1.328E+00 1.541E-03 4.824E-04 0.000E+00 2.023E-03 1.330E+00 7.058E+02  0.0761 0.99447
  1.000E+03 1.101E+03 1.347E+00 1.769E-03 6.250E-04 0.000E+00 2.394E-03 1.349E+00 7.804E+02  0.1116 0.99542
  1.200E+03 1.301E+03 1.380E+00 2.250E-03 9.544E-04 2.245E-05 3.227E-03 1.383E+00 9.269E+02  0.1889 0.99672
  1.400E+03 1.502E+03 1.407E+00 2.759E-03 1.338E-03 6.082E-05 4.157E-03 1.412E+00 1.070E+03  0.2701 0.99753
  1.700E+03 1.803E+03 1.442E+00 3.568E-03 2.003E-03 1.287E-04 5.699E-03 1.448E+00 1.280E+03  0.3928 0.99829
  2.000E+03 2.103E+03 1.471E+00 4.424E-03 2.763E-03 2.074E-04 7.394E-03 1.478E+00 1.485E+03  0.5127 0.99874
  2.500E+03 2.604E+03 1.510E+00 5.939E-03 4.212E-03 3.576E-04 1.051E-02 1.520E+00 1.819E+03  0.7021 0.99918
  3.000E+03 3.104E+03 1.540E+00 7.548E-03 5.858E-03 5.126E-04 1.392E-02 1.554E+00 2.144E+03  0.8776 0.99942
  3.500E+03 3.604E+03 1.566E+00 9.237E-03 7.671E-03 6.750E-04 1.758E-02 1.583E+00 2.463E+03  1.0399 0.99957
  4.000E+03 4.104E+03 1.587E+00 1.099E-02 9.641E-03 8.470E-04 2.148E-02 1.609E+00 2.776E+03  1.1905 0.99967
  4.500E+03 4.604E+03 1.606E+00 1.281E-02 1.175E-02 1.025E-03 2.558E-02 1.631E+00 3.085E+03  1.3308 0.99974
  5.000E+03 5.105E+03 1.622E+00 1.468E-02 1.397E-02 1.194E-03 2.985E-02 1.652E+00 3.389E+03  1.4620 0.99979
  5.500E+03 5.605E+03 1.636E+00 1.661E-02 1.630E-02 1.376E-03 3.428E-02 1.670E+00 3.690E+03  1.5852 0.99982
  6.000E+03 6.105E+03 1.649E+00 1.857E-02 1.872E-02 1.545E-03 3.884E-02 1.688E+00 3.988E+03  1.7013 0.99985
  7.000E+03 7.105E+03 1.671E+00 2.262E-02 2.384E-02 1.902E-03 4.836E-02 1.719E+00 4.575E+03  1.9151 0.99989
  8.000E+03 8.105E+03 1.690E+00 2.682E-02 2.925E-02 2.254E-03 5.832E-02 1.748E+00 5.152E+03  2.1085 0.99992
  9.000E+03 9.105E+03 1.706E+00 3.113E-02 3.494E-02 2.582E-03 6.866E-02 1.774E+00 5.720E+03  2.2851 0.99993
  1.000E+04 1.011E+04 1.719E+00 3.556E-02 4.086E-02 2.921E-03 7.934E-02 1.799E+00 6.280E+03  2.4475 0.99995
  1.200E+04 1.211E+04 1.743E+00 4.470E-02 5.331E-02 3.603E-03 1.016E-01 1.844E+00 7.378E+03  2.7382 0.99996
  1.400E+04 1.411E+04 1.762E+00 5.417E-02 6.646E-02 4.283E-03 1.249E-01 1.887E+00 8.450E+03  2.9928 0.99997
  1.700E+04 1.711E+04 1.784E+00 6.888E-02 8.725E-02 5.285E-03 1.614E-01 1.946E+00 1.002E+04  3.3241 0.99998
  2.000E+04 2.011E+04 1.803E+00 8.411E-02 1.091E-01 6.263E-03 1.995E-01 2.002E+00 1.154E+04  3.6098 0.99999
  2.500E+04 2.511E+04 1.827E+00 1.104E-01 1.474E-01 7.860E-03 2.656E-01 2.093E+00 1.398E+04  4.0132 0.99999
  3.000E+04 3.011E+04 1.846E+00 1.376E-01 1.875E-01 9.420E-03 3.345E-01 2.180E+00 1.632E+04  4.3511 0.99999
  3.500E+04 3.511E+04 1.861E+00 1.657E-01 2.290E-01 1.099E-02 4.057E-01 2.267E+00 1.857E+04  4.6421 1.00000
  4.000E+04 4.011E+04 1.874E+00 1.943E-01 2.718E-01 1.254E-02 4.786E-01 2.353E+00 2.074E+04  4.8974 1.00000
  4.500E+04 4.511E+04 1.885E+00 2.235E-01 3.156E-01 1.406E-02 5.531E-01 2.438E+00 2.282E+04  5.1250 1.00000
  5.000E+04 5.011E+04 1.895E+00 2.532E-01 3.602E-01 1.558E-02 6.290E-01 2.524E+00 2.484E+04  5.3301 1.00000
  5.500E+04 5.511E+04 1.903E+00 2.833E-01 4.056E-01 1.710E-02 7.060E-01 2.609E+00 2.679E+04  5.5167 1.00000
  6.000E+04 6.011E+04 1.911E+00 3.138E-01 4.516E-01 1.861E-02 7.840E-01 2.695E+00 2.867E+04  5.6880 1.00000
  7.000E+04 7.011E+04 1.925E+00 3.758E-01 5.454E-01 2.160E-02 9.427E-01 2.868E+00 3.227E+04  5.9930 1.00000
  8.000E+04 8.011E+04 1.936E+00 4.389E-01 6.409E-01 2.459E-02 1.104E+00 3.041E+00 3.566E+04  6.2584 1.00000
  9.000E+04 9.011E+04 1.946E+00 5.031E-01 7.381E-01 2.757E-02 1.269E+00 3.215E+00 3.886E+04  6.4933 1.00000
  1.000E+05 1.001E+05 1.955E+00 5.681E-01 8.365E-01 3.049E-02 1.435E+00 3.390E+00 4.189E+04  6.7036 1.00000
  1.200E+05 1.201E+05 1.971E+00 7.002E-01 1.036E+00 3.644E-02 1.773E+00 3.744E+00 4.751E+04  7.0679 1.00000
  1.400E+05 1.401E+05 1.984E+00 8.347E-01 1.240E+00 4.237E-02 2.117E+00 4.101E+00 5.262E+04  7.3760 1.00000
  1.700E+05 1.701E+05 2.000E+00 1.040E+00 1.550E+00 5.125E-02 2.641E+00 4.641E+00 5.951E+04  7.7640 1.00000
  2.000E+05 2.001E+05 2.013E+00 1.249E+00 1.864E+00 6.017E-02 3.173E+00 5.187E+00 6.563E+04  8.0889 1.00000
  2.500E+05 2.501E+05 2.032E+00 1.603E+00 2.395E+00 7.505E-02 4.073E+00 6.105E+00 7.455E+04  8.5350 1.00000
  3.000E+05 3.001E+05 2.047E+00 1.962E+00 2.933E+00 9.003E-02 4.986E+00 7.033E+00 8.220E+04  8.8995 1.00000
  3.500E+05 3.501E+05 2.060E+00 2.327E+00 3.476E+00 1.052E-01 5.908E+00 7.968E+00 8.889E+04  9.2077 1.00000
  4.000E+05 4.001E+05 2.071E+00 2.694E+00 4.023E+00 1.204E-01 6.838E+00 8.909E+00 9.484E+04  9.4746 1.00000
  4.500E+05 4.501E+05 2.081E+00 3.065E+00 4.573E+00 1.356E-01 7.774E+00 9.855E+00 1.002E+05  9.7102 1.00000
  5.000E+05 5.001E+05 2.089E+00 3.439E+00 5.126E+00 1.510E-01 8.715E+00 1.080E+01 1.050E+05  9.9208 1.00000
  5.500E+05 5.501E+05 2.097E+00 3.814E+00 5.680E+00 1.663E-01 9.660E+00 1.176E+01 1.095E+05 10.1114 1.00000
  6.000E+05 6.001E+05 2.105E+00 4.192E+00 6.236E+00 1.816E-01 1.061E+01 1.271E+01 1.136E+05 10.2854 1.00000
  7.000E+05 7.001E+05 2.118E+00 4.951E+00 7.353E+00 2.125E-01 1.252E+01 1.463E+01 1.209E+05 10.5937 1.00000
  8.000E+05 8.001E+05 2.129E+00 5.716E+00 8.475E+00 2.438E-01 1.444E+01 1.656E+01 1.273E+05 10.8607 1.00000
  9.000E+05 9.001E+05 2.139E+00 6.486E+00 9.601E+00 2.753E-01 1.636E+01 1.850E+01 1.331E+05 11.0962 1.00000
  1.000E+06 1.000E+06 2.148E+00 7.259E+00 1.073E+01 3.071E-01 1.830E+01 2.044E+01 1.382E+05 11.3069 1.00000
  1.200E+06 1.200E+06 2.163E+00 8.814E+00 1.299E+01 3.715E-01 2.218E+01 2.434E+01 1.472E+05 11.6715 1.00000
  1.400E+06 1.400E+06 2.176E+00 1.038E+01 1.527E+01 4.368E-01 2.608E+01 2.826E+01 1.549E+05 11.9798 1.00000
  1.700E+06 1.700E+06 2.193E+00 1.274E+01 1.869E+01 5.361E-01 3.196E+01 3.415E+01 1.646E+05 12.3681 1.00000
  2.000E+06 2.000E+06 2.207E+00 1.511E+01 2.211E+01 6.371E-01 3.786E+01 4.007E+01 1.727E+05 12.6931 1.00000
  2.500E+06 2.500E+06 2.227E+00 1.908E+01 2.784E+01 8.084E-01 4.774E+01 4.996E+01 1.839E+05 13.1394 1.00000
  3.000E+06 3.000E+06 2.243E+00 2.308E+01 3.358E+01 9.830E-01 5.764E+01 5.989E+01 1.931E+05 13.5040 1.00000
  3.500E+06 3.500E+06 2.256E+00 2.708E+01 3.934E+01 1.160E+00 6.758E+01 6.983E+01 2.009E+05 13.8123 1.00000
  4.000E+06 4.000E+06 2.268E+00 3.110E+01 4.509E+01 1.340E+00 7.753E+01 7.980E+01 2.076E+05 14.0793 1.00000
  4.500E+06 4.500E+06 2.279E+00 3.512E+01 5.086E+01 1.522E+00 8.750E+01 8.978E+01 2.135E+05 14.3149 1.00000
  5.000E+06 5.000E+06 2.288E+00 3.915E+01 5.662E+01 1.706E+00 9.748E+01 9.977E+01 2.188E+05 14.5256 1.00000
  5.500E+06 5.500E+06 2.297E+00 4.319E+01 6.239E+01 1.892E+00 1.075E+02 1.098E+02 2.236E+05 14.7162 1.00000
  6.000E+06 6.000E+06 2.305E+00 4.723E+01 6.817E+01 2.080E+00 1.175E+02 1.198E+02 2.279E+05 14.8903 1.00000
  7.000E+06 7.000E+06 2.319E+00 5.532E+01 7.972E+01 2.460E+00 1.375E+02 1.398E+02 2.357E+05 15.1985 1.00000
  8.000E+06 8.000E+06 2.331E+00 6.343E+01 9.129E+01 2.846E+00 1.576E+02 1.599E+02 2.424E+05 15.4656 1.00000
  9.000E+06 9.000E+06 2.342E+00 7.154E+01 1.029E+02 3.237E+00 1.776E+02 1.800E+02 2.483E+05 15.7012 1.00000
  1.000E+07 1.000E+07 2.352E+00 7.966E+01 1.144E+02 3.632E+00 1.977E+02 2.001E+02 2.536E+05 15.9119 1.00000
  1.200E+07 1.200E+07 2.369E+00 9.593E+01 1.376E+02 4.435E+00 2.379E+02 2.403E+02 2.627E+05 16.2765 1.00000
  1.400E+07 1.400E+07 2.383E+00 1.122E+02 1.608E+02 5.252E+00 2.782E+02 2.806E+02 2.705E+05 16.5848 1.00000
  1.700E+07 1.700E+07 2.401E+00 1.367E+02 1.955E+02 6.500E+00 3.387E+02 3.411E+02 2.802E+05 16.9731 1.00000
  2.000E+07 2.000E+07 2.417E+00 1.611E+02 2.303E+02 7.773E+00 3.992E+02 4.016E+02 2.883E+05 17.2982 1.00000
  2.500E+07 2.500E+07 2.439E+00 2.019E+02 2.883E+02 9.939E+00 5.002E+02 5.026E+02 2.995E+05 17.7445 1.00000
  3.000E+07 3.000E+07 2.456E+00 2.428E+02 3.463E+02 1.215E+01 6.012E+02 6.037E+02 3.087E+05 18.1091 1.00000
  3.500E+07 3.500E+07 2.471E+00 2.837E+02 4.043E+02 1.441E+01 7.024E+02 7.049E+02 3.163E+05 18.4174 1.00000
  4.000E+07 4.000E+07 2.485E+00 3.245E+02 4.623E+02 1.670E+01 8.036E+02 8.061E+02 3.230E+05 18.6845 1.00000
  4.500E+07 4.500E+07 2.496E+00 3.654E+02 5.204E+02 1.902E+01 9.048E+02 9.073E+02 3.288E+05 18.9200 1.00000
  5.000E+07 5.000E+07 2.507E+00 4.063E+02 5.784E+02 2.137E+01 1.006E+03 1.009E+03 3.341E+05 19.1307 1.00000
  5.500E+07 5.500E+07 2.516E+00 4.473E+02 6.364E+02 2.375E+01 1.107E+03 1.110E+03 3.388E+05 19.3214 1.00000
  6.000E+07 6.000E+07 2.525E+00 4.882E+02 6.945E+02 2.615E+01 1.209E+03 1.211E+03 3.431E+05 19.4954 1.00000
  7.000E+07 7.000E+07 2.541E+00 5.700E+02 8.106E+02 3.102E+01 1.412E+03 1.414E+03 3.508E+05 19.8037 1.00000
  8.000E+07 8.000E+07 2.554E+00 6.519E+02 9.267E+02 3.597E+01 1.615E+03 1.617E+03 3.574E+05 20.0708 1.00000
  9.000E+07 9.000E+07 2.566E+00 7.338E+02 1.043E+03 4.099E+01 1.818E+03 1.820E+03 3.633E+05 20.3063 1.00000
  1.000E+08 1.000E+08 2.577E+00 8.157E+02 1.159E+03 4.607E+01 2.021E+03 2.023E+03 3.685E+05 20.5170 1.00000
  1.200E+08 1.200E+08 2.596E+00 9.795E+02 1.391E+03 5.641E+01 2.427E+03 2.430E+03 3.775E+05 20.8817 1.00000
  1.400E+08 1.400E+08 2.612E+00 1.143E+03 1.623E+03 6.694E+01 2.834E+03 2.836E+03 3.852E+05 21.1900 1.00000
  1.700E+08 1.700E+08 2.633E+00 1.389E+03 1.972E+03 8.306E+01 3.444E+03 3.447E+03 3.948E+05 21.5783 1.00000
  2.000E+08 2.000E+08 2.650E+00 1.635E+03 2.320E+03 9.950E+01 4.055E+03 4.057E+03 4.029E+05 21.9033 1.00000
  2.500E+08 2.500E+08 2.674E+00 2.045E+03 2.901E+03 1.275E+02 5.073E+03 5.076E+03 4.140E+05 22.3496 1.00000
  3.000E+08 3.000E+08 2.694E+00 2.454E+03 3.481E+03 1.562E+02 6.092E+03 6.095E+03 4.230E+05 22.7143 1.00000
  3.500E+08 3.500E+08 2.711E+00 2.864E+03 4.062E+03 1.855E+02 7.112E+03 7.114E+03 4.306E+05 23.0226 1.00000
  4.000E+08 4.000E+08 2.726E+00 3.274E+03 4.643E+03 2.152E+02 8.132E+03 8.134E+03 4.372E+05 23.2896 1.00000
  4.500E+08 4.500E+08 2.739E+00 3.684E+03 5.223E+03 2.454E+02 9.152E+03 9.155E+03 4.430E+05 23.5252 1.00000
  5.000E+08 5.000E+08 2.750E+00 4.093E+03 5.804E+03 2.760E+02 1.017E+04 1.018E+04 4.482E+05 23.7359 1.00000
  5.500E+08 5.500E+08 2.761E+00 4.503E+03 6.384E+03 3.069E+02 1.119E+04 1.120E+04 4.529E+05 23.9265 1.00000
  6.000E+08 6.000E+08 2.771E+00 4.913E+03 6.965E+03 3.382E+02 1.222E+04 1.222E+04 4.571E+05 24.1006 1.00000
  7.000E+08 7.000E+08 2.788E+00 5.733E+03 8.126E+03 4.016E+02 1.426E+04 1.426E+04 4.647E+05 24.4089 1.00000
  8.000E+08 8.000E+08 2.804E+00 6.552E+03 9.287E+03 4.661E+02 1.631E+04 1.631E+04 4.713E+05 24.6759 1.00000
  9.000E+08 9.000E+08 2.817E+00 7.372E+03 1.045E+04 5.316E+02 1.835E+04 1.835E+04 4.771E+05 24.9115 1.00000
  1.000E+09 1.000E+09 2.829E+00 8.191E+03 1.161E+04 5.979E+02 2.040E+04 2.040E+04 4.823E+05 25.1222 1.00000
