 Incident particle is a Muon with M = 105.65839 MeV
 Index = 0: BariumFluoride
      Absorber with <Z/A> = 0.42207
 Sternheimer coef:  a     k=m_s   x_0    x_1    I[eV]   Cbar  delta0
                 0.1599  2.8867  0.0099  3.3870  375.9  5.4116 0.00

 *** Table generated with PUMAS v1.00 ***

      T         p     Ionization  brems     pair     photonuc  Radloss    dE/dx   CSDA Range  delta   beta
    [MeV]    [MeV/c]  -----------------------[MeV cm^2/g]------------------------  [g/cm^2]
  1.000E+00 1.457E+01 2.724E+01 3.358E-06 0.000E+00 0.000E+00 3.358E-06 2.724E+01 1.836E-02  0.0000 0.13661
  1.200E+00 1.597E+01 2.380E+01 3.858E-06 0.000E+00 0.000E+00 3.858E-06 2.380E+01 2.623E-02  0.0000 0.14944
  1.400E+00 1.726E+01 2.122E+01 4.331E-06 0.000E+00 0.000E+00 4.331E-06 2.122E+01 3.514E-02  0.0000 0.16119
  1.700E+00 1.903E+01 1.833E+01 5.002E-06 0.000E+00 0.000E+00 5.002E-06 1.833E+01 5.040E-02  0.0000 0.17725
  2.000E+00 2.066E+01 1.620E+01 5.632E-06 0.000E+00 0.000E+00 5.632E-06 1.620E+01 6.784E-02  0.0000 0.19186
  2.500E+00 2.312E+01 1.367E+01 6.611E-06 0.000E+00 0.000E+00 6.611E-06 1.367E+01 1.016E-01  0.0000 0.21376
  3.000E+00 2.536E+01 1.189E+01 7.517E-06 0.000E+00 0.000E+00 7.517E-06 1.189E+01 1.409E-01  0.0000 0.23336
  3.500E+00 2.742E+01 1.056E+01 8.364E-06 0.000E+00 0.000E+00 8.364E-06 1.056E+01 1.856E-01  0.0000 0.25120
  4.000E+00 2.935E+01 9.535E+00 9.161E-06 0.000E+00 0.000E+00 9.161E-06 9.535E+00 2.355E-01  0.0000 0.26763
  4.500E+00 3.116E+01 8.714E+00 9.917E-06 0.000E+00 0.000E+00 9.917E-06 8.714E+00 2.904E-01  0.0000 0.28290
  5.000E+00 3.289E+01 8.042E+00 1.064E-05 0.000E+00 0.000E+00 1.064E-05 8.042E+00 3.502E-01  0.0000 0.29720
  5.500E+00 3.453E+01 7.480E+00 1.132E-05 0.000E+00 0.000E+00 1.132E-05 7.480E+00 4.147E-01  0.0000 0.31066
  6.000E+00 3.611E+01 7.003E+00 1.198E-05 0.000E+00 0.000E+00 1.198E-05 7.003E+00 4.838E-01  0.0000 0.32339
  7.000E+00 3.909E+01 6.237E+00 1.323E-05 0.000E+00 0.000E+00 1.323E-05 6.237E+00 6.354E-01  0.0000 0.34700
  8.000E+00 4.189E+01 5.646E+00 1.440E-05 0.000E+00 0.000E+00 1.440E-05 5.646E+00 8.041E-01  0.0000 0.36854
  9.000E+00 4.453E+01 5.176E+00 1.549E-05 0.000E+00 0.000E+00 1.549E-05 5.176E+00 9.892E-01  0.0000 0.38836
  1.000E+01 4.704E+01 4.793E+00 1.653E-05 0.000E+00 0.000E+00 1.653E-05 4.794E+00 1.190E+00  0.0000 0.40675
  1.200E+01 5.177E+01 4.206E+00 1.848E-05 0.000E+00 0.000E+00 1.848E-05 4.206E+00 1.637E+00  0.0000 0.43998
  1.400E+01 5.616E+01 3.776E+00 2.027E-05 0.000E+00 0.000E+00 2.027E-05 3.776E+00 2.139E+00  0.0000 0.46937
  1.700E+01 6.230E+01 3.310E+00 2.276E-05 0.000E+00 0.000E+00 2.276E-05 3.310E+00 2.990E+00  0.0000 0.50792
  2.000E+01 6.802E+01 2.976E+00 2.506E-05 0.000E+00 0.000E+00 2.506E-05 2.976E+00 3.947E+00  0.0000 0.54129
  2.500E+01 7.686E+01 2.592E+00 2.863E-05 0.000E+00 0.000E+00 2.863E-05 2.592E+00 5.751E+00  0.0000 0.58827
  3.000E+01 8.509E+01 2.331E+00 3.197E-05 0.000E+00 0.000E+00 3.197E-05 2.331E+00 7.788E+00  0.0000 0.62720
  3.500E+01 9.285E+01 2.144E+00 3.517E-05 0.000E+00 0.000E+00 3.517E-05 2.144E+00 1.003E+01  0.0000 0.66011
  4.000E+01 1.003E+02 2.003E+00 3.828E-05 0.000E+00 0.000E+00 3.828E-05 2.003E+00 1.244E+01  0.0000 0.68834
  4.500E+01 1.074E+02 1.894E+00 4.133E-05 0.000E+00 0.000E+00 4.133E-05 1.894E+00 1.501E+01  0.0000 0.71286
  5.000E+01 1.143E+02 1.807E+00 4.435E-05 0.000E+00 0.000E+00 4.435E-05 1.807E+00 1.771E+01  0.0005 0.73434
  5.500E+01 1.210E+02 1.737E+00 4.736E-05 0.000E+00 0.000E+00 4.736E-05 1.737E+00 2.054E+01  0.0033 0.75332
  6.000E+01 1.276E+02 1.678E+00 5.037E-05 0.000E+00 0.000E+00 5.037E-05 1.678E+00 2.346E+01  0.0073 0.77019
  7.000E+01 1.403E+02 1.588E+00 5.641E-05 0.000E+00 0.000E+00 5.641E-05 1.588E+00 2.959E+01  0.0178 0.79887
  8.000E+01 1.527E+02 1.523E+00 6.252E-05 0.000E+00 0.000E+00 6.252E-05 1.523E+00 3.602E+01  0.0306 0.82227
  9.000E+01 1.647E+02 1.474E+00 6.873E-05 0.000E+00 0.000E+00 6.873E-05 1.474E+00 4.270E+01  0.0449 0.84166
  1.000E+02 1.764E+02 1.437E+00 7.506E-05 0.000E+00 0.000E+00 7.506E-05 1.437E+00 4.957E+01  0.0603 0.85794
  1.200E+02 1.994E+02 1.385E+00 8.809E-05 0.000E+00 0.000E+00 8.809E-05 1.385E+00 6.375E+01  0.0928 0.88361
  1.400E+02 2.218E+02 1.352E+00 1.017E-04 0.000E+00 0.000E+00 1.017E-04 1.352E+00 7.836E+01  0.1266 0.90278
  1.700E+02 2.546E+02 1.324E+00 1.230E-04 1.153E-14 0.000E+00 1.230E-04 1.324E+00 1.008E+02  0.1779 0.92363
  2.000E+02 2.868E+02 1.310E+00 1.455E-04 2.579E-12 0.000E+00 1.455E-04 1.310E+00 1.236E+02  0.2289 0.93835
  2.500E+02 3.396E+02 1.303E+00 1.854E-04 2.109E-08 0.000E+00 1.854E-04 1.303E+00 1.618E+02  0.3116 0.95485
  3.000E+02 3.917E+02 1.305E+00 2.281E-04 1.903E-07 0.000E+00 2.283E-04 1.306E+00 2.002E+02  0.3907 0.96548
  3.500E+02 4.432E+02 1.313E+00 2.733E-04 5.257E-07 0.000E+00 2.738E-04 1.313E+00 2.383E+02  0.4661 0.97274
  4.000E+02 4.945E+02 1.322E+00 3.209E-04 3.186E-06 0.000E+00 3.241E-04 1.322E+00 2.763E+02  0.5380 0.97793
  4.500E+02 5.455E+02 1.332E+00 3.707E-04 3.057E-05 0.000E+00 4.013E-04 1.333E+00 3.140E+02  0.6066 0.98176
  5.000E+02 5.964E+02 1.343E+00 4.225E-04 4.688E-05 0.000E+00 4.694E-04 1.344E+00 3.513E+02  0.6721 0.98467
  5.500E+02 6.471E+02 1.354E+00 4.762E-04 6.543E-05 0.000E+00 5.416E-04 1.354E+00 3.884E+02  0.7348 0.98693
  6.000E+02 6.977E+02 1.364E+00 5.316E-04 8.669E-05 0.000E+00 6.183E-04 1.365E+00 4.252E+02  0.7949 0.98873
  7.000E+02 7.987E+02 1.384E+00 6.474E-04 1.371E-04 0.000E+00 7.845E-04 1.385E+00 4.979E+02  0.9082 0.99136
  8.000E+02 8.995E+02 1.403E+00 7.692E-04 1.976E-04 0.000E+00 9.668E-04 1.404E+00 5.696E+02  1.0134 0.99317
  9.000E+02 1.000E+03 1.420E+00 8.964E-04 2.674E-04 0.000E+00 1.164E-03 1.421E+00 6.404E+02  1.1117 0.99447
  1.000E+03 1.101E+03 1.436E+00 1.029E-03 3.460E-04 0.000E+00 1.374E-03 1.437E+00 7.104E+02  1.2038 0.99542
  1.200E+03 1.301E+03 1.464E+00 1.306E-03 5.276E-04 2.248E-05 1.856E-03 1.466E+00 8.482E+02  1.3729 0.99672
  1.400E+03 1.502E+03 1.488E+00 1.600E-03 7.389E-04 6.111E-05 2.400E-03 1.491E+00 9.835E+02  1.5251 0.99753
  1.700E+03 1.803E+03 1.519E+00 2.065E-03 1.105E-03 1.298E-04 3.300E-03 1.522E+00 1.183E+03  1.7289 0.99829
  2.000E+03 2.103E+03 1.545E+00 2.558E-03 1.524E-03 2.100E-04 4.292E-03 1.549E+00 1.378E+03  1.9094 0.99874
  2.500E+03 2.604E+03 1.581E+00 3.428E-03 2.323E-03 3.636E-04 6.114E-03 1.587E+00 1.697E+03  2.1719 0.99918
  3.000E+03 3.104E+03 1.609E+00 4.352E-03 3.229E-03 5.232E-04 8.104E-03 1.618E+00 2.009E+03  2.3983 0.99942
  3.500E+03 3.604E+03 1.633E+00 5.320E-03 4.228E-03 6.911E-04 1.024E-02 1.644E+00 2.316E+03  2.5980 0.99957
  4.000E+03 4.104E+03 1.654E+00 6.326E-03 5.319E-03 8.695E-04 1.252E-02 1.666E+00 2.618E+03  2.7768 0.99967
  4.500E+03 4.604E+03 1.672E+00 7.367E-03 6.488E-03 1.054E-03 1.491E-02 1.687E+00 2.916E+03  2.9388 0.99974
  5.000E+03 5.105E+03 1.688E+00 8.439E-03 7.722E-03 1.231E-03 1.739E-02 1.705E+00 3.211E+03  3.0872 0.99979
  5.500E+03 5.605E+03 1.702E+00 9.538E-03 9.016E-03 1.421E-03 1.997E-02 1.722E+00 3.503E+03  3.2241 0.99982
  6.000E+03 6.105E+03 1.714E+00 1.066E-02 1.036E-02 1.598E-03 2.262E-02 1.737E+00 3.792E+03  3.3513 0.99985
  7.000E+03 7.105E+03 1.736E+00 1.298E-02 1.321E-02 1.971E-03 2.816E-02 1.764E+00 4.363E+03  3.5816 0.99989
  8.000E+03 8.105E+03 1.755E+00 1.537E-02 1.622E-02 2.341E-03 3.394E-02 1.789E+00 4.926E+03  3.7860 0.99992
  9.000E+03 9.105E+03 1.771E+00 1.784E-02 1.939E-02 2.687E-03 3.992E-02 1.811E+00 5.482E+03  3.9700 0.99993
  1.000E+04 1.011E+04 1.785E+00 2.037E-02 2.269E-02 3.044E-03 4.610E-02 1.831E+00 6.031E+03  4.1375 0.99995
  1.200E+04 1.211E+04 1.809E+00 2.558E-02 2.964E-02 3.765E-03 5.899E-02 1.868E+00 7.112E+03  4.4334 0.99996
  1.400E+04 1.411E+04 1.829E+00 3.099E-02 3.698E-02 4.485E-03 7.245E-02 1.901E+00 8.173E+03  4.6893 0.99997
  1.700E+04 1.711E+04 1.853E+00 3.938E-02 4.860E-02 5.549E-03 9.353E-02 1.946E+00 9.733E+03  5.0187 0.99998
  2.000E+04 2.011E+04 1.872E+00 4.807E-02 6.083E-02 6.590E-03 1.155E-01 1.988E+00 1.126E+04  5.3002 0.99999
  2.500E+04 2.511E+04 1.898E+00 6.307E-02 8.228E-02 8.294E-03 1.536E-01 2.051E+00 1.373E+04  5.6948 0.99999
  3.000E+04 3.011E+04 1.918E+00 7.860E-02 1.048E-01 9.962E-03 1.934E-01 2.111E+00 1.614E+04  6.0235 0.99999
  3.500E+04 3.511E+04 1.935E+00 9.458E-02 1.282E-01 1.164E-02 2.344E-01 2.169E+00 1.847E+04  6.3056 1.00000
  4.000E+04 4.011E+04 1.948E+00 1.109E-01 1.522E-01 1.330E-02 2.765E-01 2.225E+00 2.075E+04  6.5528 1.00000
  4.500E+04 4.511E+04 1.961E+00 1.276E-01 1.769E-01 1.494E-02 3.194E-01 2.280E+00 2.297E+04  6.7730 1.00000
  5.000E+04 5.011E+04 1.971E+00 1.445E-01 2.021E-01 1.657E-02 3.632E-01 2.334E+00 2.514E+04  6.9715 1.00000
  5.500E+04 5.511E+04 1.981E+00 1.617E-01 2.277E-01 1.822E-02 4.076E-01 2.388E+00 2.726E+04  7.1523 1.00000
  6.000E+04 6.011E+04 1.989E+00 1.791E-01 2.537E-01 1.984E-02 4.526E-01 2.442E+00 2.933E+04  7.3182 1.00000
  7.000E+04 7.011E+04 2.004E+00 2.145E-01 3.067E-01 2.307E-02 5.442E-01 2.548E+00 3.334E+04  7.6143 1.00000
  8.000E+04 8.011E+04 2.016E+00 2.506E-01 3.608E-01 2.629E-02 6.376E-01 2.654E+00 3.718E+04  7.8727 1.00000
  9.000E+04 9.011E+04 2.027E+00 2.872E-01 4.158E-01 2.952E-02 7.325E-01 2.760E+00 4.088E+04  8.1020 1.00000
  1.000E+05 1.001E+05 2.037E+00 3.243E-01 4.716E-01 3.268E-02 8.286E-01 2.865E+00 4.444E+04  8.3082 1.00000
  1.200E+05 1.201E+05 2.053E+00 3.998E-01 5.851E-01 3.912E-02 1.024E+00 3.077E+00 5.118E+04  8.6668 1.00000
  1.400E+05 1.401E+05 2.067E+00 4.767E-01 7.007E-01 4.554E-02 1.223E+00 3.290E+00 5.746E+04  8.9717 1.00000
  1.700E+05 1.701E+05 2.084E+00 5.941E-01 8.770E-01 5.518E-02 1.526E+00 3.610E+00 6.618E+04  9.3575 1.00000
  2.000E+05 2.001E+05 2.098E+00 7.136E-01 1.056E+00 6.487E-02 1.834E+00 3.933E+00 7.415E+04  9.6814 1.00000
  2.500E+05 2.501E+05 2.117E+00 9.163E-01 1.359E+00 8.104E-02 2.356E+00 4.474E+00 8.609E+04 10.1273 1.00000
  3.000E+05 3.001E+05 2.133E+00 1.122E+00 1.666E+00 9.733E-02 2.886E+00 5.019E+00 9.666E+04 10.4918 1.00000
  3.500E+05 3.501E+05 2.146E+00 1.331E+00 1.976E+00 1.138E-01 3.421E+00 5.567E+00 1.061E+05 10.8000 1.00000
  4.000E+05 4.001E+05 2.158E+00 1.542E+00 2.288E+00 1.303E-01 3.961E+00 6.119E+00 1.147E+05 11.0669 1.00000
  4.500E+05 4.501E+05 2.168E+00 1.755E+00 2.603E+00 1.470E-01 4.505E+00 6.673E+00 1.225E+05 11.3025 1.00000
  5.000E+05 5.001E+05 2.177E+00 1.969E+00 2.919E+00 1.637E-01 5.052E+00 7.229E+00 1.297E+05 11.5131 1.00000
  5.500E+05 5.501E+05 2.186E+00 2.185E+00 3.236E+00 1.804E-01 5.601E+00 7.787E+00 1.364E+05 11.7037 1.00000
  6.000E+05 6.001E+05 2.193E+00 2.401E+00 3.555E+00 1.971E-01 6.153E+00 8.346E+00 1.426E+05 11.8777 1.00000
  7.000E+05 7.001E+05 2.207E+00 2.838E+00 4.194E+00 2.308E-01 7.263E+00 9.470E+00 1.539E+05 12.1860 1.00000
  8.000E+05 8.001E+05 2.218E+00 3.277E+00 4.837E+00 2.649E-01 8.379E+00 1.060E+01 1.639E+05 12.4530 1.00000
  9.000E+05 9.001E+05 2.229E+00 3.720E+00 5.482E+00 2.993E-01 9.501E+00 1.173E+01 1.729E+05 12.6885 1.00000
  1.000E+06 1.000E+06 2.238E+00 4.164E+00 6.129E+00 3.340E-01 1.063E+01 1.287E+01 1.810E+05 12.8992 1.00000
  1.200E+06 1.200E+06 2.254E+00 5.059E+00 7.428E+00 4.042E-01 1.289E+01 1.515E+01 1.954E+05 13.2638 1.00000
  1.400E+06 1.400E+06 2.268E+00 5.959E+00 8.732E+00 4.755E-01 1.517E+01 1.743E+01 2.077E+05 13.5721 1.00000
  1.700E+06 1.700E+06 2.285E+00 7.318E+00 1.069E+01 5.840E-01 1.860E+01 2.088E+01 2.235E+05 13.9604 1.00000
  2.000E+06 2.000E+06 2.300E+00 8.685E+00 1.266E+01 6.942E-01 2.204E+01 2.434E+01 2.369E+05 14.2854 1.00000
  2.500E+06 2.500E+06 2.320E+00 1.098E+01 1.595E+01 8.813E-01 2.781E+01 3.013E+01 2.554E+05 14.7317 1.00000
  3.000E+06 3.000E+06 2.337E+00 1.328E+01 1.925E+01 1.072E+00 3.360E+01 3.593E+01 2.707E+05 15.0963 1.00000
  3.500E+06 3.500E+06 2.351E+00 1.559E+01 2.255E+01 1.266E+00 3.941E+01 4.176E+01 2.836E+05 15.4046 1.00000
  4.000E+06 4.000E+06 2.364E+00 1.790E+01 2.586E+01 1.462E+00 4.523E+01 4.759E+01 2.949E+05 15.6716 1.00000
  4.500E+06 4.500E+06 2.375E+00 2.023E+01 2.917E+01 1.661E+00 5.106E+01 5.343E+01 3.048E+05 15.9072 1.00000
  5.000E+06 5.000E+06 2.385E+00 2.255E+01 3.249E+01 1.862E+00 5.690E+01 5.929E+01 3.137E+05 16.1179 1.00000
  5.500E+06 5.500E+06 2.394E+00 2.488E+01 3.580E+01 2.065E+00 6.275E+01 6.514E+01 3.218E+05 16.3085 1.00000
  6.000E+06 6.000E+06 2.402E+00 2.722E+01 3.912E+01 2.270E+00 6.861E+01 7.101E+01 3.291E+05 16.4826 1.00000
  7.000E+06 7.000E+06 2.416E+00 3.189E+01 4.576E+01 2.686E+00 8.034E+01 8.275E+01 3.422E+05 16.7908 1.00000
  8.000E+06 8.000E+06 2.429E+00 3.657E+01 5.241E+01 3.107E+00 9.209E+01 9.452E+01 3.535E+05 17.0579 1.00000
  9.000E+06 9.000E+06 2.440E+00 4.126E+01 5.906E+01 3.534E+00 1.039E+02 1.063E+02 3.635E+05 17.2935 1.00000
  1.000E+07 1.000E+07 2.451E+00 4.595E+01 6.571E+01 3.966E+00 1.156E+02 1.181E+02 3.725E+05 17.5042 1.00000
  1.200E+07 1.200E+07 2.468E+00 5.535E+01 7.903E+01 4.843E+00 1.392E+02 1.417E+02 3.880E+05 17.8688 1.00000
  1.400E+07 1.400E+07 2.484E+00 6.476E+01 9.235E+01 5.736E+00 1.628E+02 1.653E+02 4.011E+05 18.1771 1.00000
  1.700E+07 1.700E+07 2.503E+00 7.889E+01 1.123E+02 7.100E+00 1.983E+02 2.008E+02 4.176E+05 18.5654 1.00000
  2.000E+07 2.000E+07 2.519E+00 9.304E+01 1.323E+02 8.491E+00 2.339E+02 2.364E+02 4.315E+05 18.8905 1.00000
  2.500E+07 2.500E+07 2.541E+00 1.166E+02 1.657E+02 1.086E+01 2.932E+02 2.957E+02 4.505E+05 19.3368 1.00000
  3.000E+07 3.000E+07 2.560E+00 1.403E+02 1.990E+02 1.328E+01 3.526E+02 3.551E+02 4.660E+05 19.7014 1.00000
  3.500E+07 3.500E+07 2.576E+00 1.639E+02 2.324E+02 1.574E+01 4.120E+02 4.146E+02 4.790E+05 20.0097 1.00000
  4.000E+07 4.000E+07 2.589E+00 1.875E+02 2.658E+02 1.825E+01 4.716E+02 4.741E+02 4.903E+05 20.2768 1.00000
  4.500E+07 4.500E+07 2.602E+00 2.112E+02 2.992E+02 2.078E+01 5.311E+02 5.337E+02 5.003E+05 20.5123 1.00000
  5.000E+07 5.000E+07 2.613E+00 2.348E+02 3.325E+02 2.335E+01 5.907E+02 5.933E+02 5.092E+05 20.7230 1.00000
  5.500E+07 5.500E+07 2.622E+00 2.585E+02 3.659E+02 2.595E+01 6.504E+02 6.530E+02 5.172E+05 20.9137 1.00000
  6.000E+07 6.000E+07 2.632E+00 2.822E+02 3.993E+02 2.858E+01 7.101E+02 7.127E+02 5.246E+05 21.0877 1.00000
  7.000E+07 7.000E+07 2.648E+00 3.295E+02 4.661E+02 3.390E+01 8.295E+02 8.321E+02 5.376E+05 21.3960 1.00000
  8.000E+07 8.000E+07 2.662E+00 3.769E+02 5.328E+02 3.931E+01 9.490E+02 9.517E+02 5.489E+05 21.6631 1.00000
  9.000E+07 9.000E+07 2.675E+00 4.243E+02 5.996E+02 4.479E+01 1.069E+03 1.071E+03 5.588E+05 21.8986 1.00000
  1.000E+08 1.000E+08 2.686E+00 4.716E+02 6.664E+02 5.035E+01 1.188E+03 1.191E+03 5.677E+05 22.1093 1.00000
  1.200E+08 1.200E+08 2.706E+00 5.664E+02 8.000E+02 6.164E+01 1.428E+03 1.431E+03 5.830E+05 22.4740 1.00000
  1.400E+08 1.400E+08 2.723E+00 6.612E+02 9.335E+02 7.315E+01 1.668E+03 1.671E+03 5.960E+05 22.7823 1.00000
  1.700E+08 1.700E+08 2.744E+00 8.034E+02 1.134E+03 9.076E+01 2.028E+03 2.031E+03 6.124E+05 23.1706 1.00000
  2.000E+08 2.000E+08 2.762E+00 9.456E+02 1.334E+03 1.087E+02 2.389E+03 2.391E+03 6.260E+05 23.4956 1.00000
  2.500E+08 2.500E+08 2.787E+00 1.183E+03 1.668E+03 1.394E+02 2.990E+03 2.993E+03 6.448E+05 23.9419 1.00000
  3.000E+08 3.000E+08 2.808E+00 1.420E+03 2.002E+03 1.707E+02 3.593E+03 3.595E+03 6.602E+05 24.3066 1.00000
  3.500E+08 3.500E+08 2.825E+00 1.657E+03 2.336E+03 2.027E+02 4.196E+03 4.198E+03 6.731E+05 24.6149 1.00000
  4.000E+08 4.000E+08 2.841E+00 1.894E+03 2.670E+03 2.352E+02 4.799E+03 4.802E+03 6.842E+05 24.8819 1.00000
  4.500E+08 4.500E+08 2.854E+00 2.131E+03 3.004E+03 2.682E+02 5.403E+03 5.406E+03 6.940E+05 25.1175 1.00000
  5.000E+08 5.000E+08 2.867E+00 2.368E+03 3.338E+03 3.016E+02 6.008E+03 6.010E+03 7.028E+05 25.3282 1.00000
  5.500E+08 5.500E+08 2.878E+00 2.605E+03 3.672E+03 3.354E+02 6.612E+03 6.615E+03 7.108E+05 25.5188 1.00000
  6.000E+08 6.000E+08 2.888E+00 2.842E+03 4.006E+03 3.696E+02 7.218E+03 7.221E+03 7.180E+05 25.6929 1.00000
  7.000E+08 7.000E+08 2.906E+00 3.316E+03 4.674E+03 4.389E+02 8.429E+03 8.432E+03 7.309E+05 26.0012 1.00000
  8.000E+08 8.000E+08 2.922E+00 3.791E+03 5.342E+03 5.094E+02 9.642E+03 9.645E+03 7.420E+05 26.2682 1.00000
  9.000E+08 9.000E+08 2.936E+00 4.265E+03 6.010E+03 5.809E+02 1.086E+04 1.086E+04 7.518E+05 26.5038 1.00000
  1.000E+09 1.000E+09 2.949E+00 4.739E+03 6.677E+03 6.535E+02 1.207E+04 1.207E+04 7.605E+05 26.7145 1.00000
