 Incident particle is a Muon with M = 105.65839 MeV
 Index = 0: BariumSulfate
      Absorber with <Z/A> = 0.44560
 Sternheimer coef:  a     k=m_s   x_0    x_1    I[eV]   Cbar  delta0
                 0.1175  3.0427  0.0128  3.4069  285.7  4.8923 0.00

 *** Table generated with PUMAS v1.00 ***

      T         p     Ionization  brems     pair     photonuc  Radloss    dE/dx   CSDA Range  delta   beta
    [MeV]    [MeV/c]  -----------------------[MeV cm^2/g]------------------------  [g/cm^2]
  1.000E+00 1.457E+01 3.077E+01 2.828E-06 0.000E+00 0.000E+00 2.828E-06 3.077E+01 1.625E-02  0.0000 0.13661
  1.200E+00 1.597E+01 2.681E+01 3.249E-06 0.000E+00 0.000E+00 3.249E-06 2.681E+01 2.323E-02  0.0000 0.14944
  1.400E+00 1.726E+01 2.384E+01 3.648E-06 0.000E+00 0.000E+00 3.648E-06 2.384E+01 3.115E-02  0.0000 0.16119
  1.700E+00 1.903E+01 2.055E+01 4.213E-06 0.000E+00 0.000E+00 4.213E-06 2.055E+01 4.475E-02  0.0000 0.17725
  2.000E+00 2.066E+01 1.813E+01 4.745E-06 0.000E+00 0.000E+00 4.745E-06 1.813E+01 6.032E-02  0.0000 0.19186
  2.500E+00 2.312E+01 1.525E+01 5.571E-06 0.000E+00 0.000E+00 5.571E-06 1.525E+01 9.051E-02  0.0000 0.21376
  3.000E+00 2.536E+01 1.324E+01 6.337E-06 0.000E+00 0.000E+00 6.337E-06 1.324E+01 1.258E-01  0.0000 0.23336
  3.500E+00 2.742E+01 1.175E+01 7.053E-06 0.000E+00 0.000E+00 7.053E-06 1.175E+01 1.660E-01  0.0000 0.25120
  4.000E+00 2.935E+01 1.059E+01 7.728E-06 0.000E+00 0.000E+00 7.728E-06 1.059E+01 2.108E-01  0.0000 0.26763
  4.500E+00 3.116E+01 9.669E+00 8.368E-06 0.000E+00 0.000E+00 8.368E-06 9.669E+00 2.603E-01  0.0000 0.28290
  5.000E+00 3.289E+01 8.915E+00 8.978E-06 0.000E+00 0.000E+00 8.978E-06 8.915E+00 3.142E-01  0.0000 0.29720
  5.500E+00 3.453E+01 8.286E+00 9.562E-06 0.000E+00 0.000E+00 9.562E-06 8.286E+00 3.724E-01  0.0000 0.31066
  6.000E+00 3.611E+01 7.753E+00 1.012E-05 0.000E+00 0.000E+00 1.012E-05 7.753E+00 4.348E-01  0.0000 0.32339
  7.000E+00 3.909E+01 6.896E+00 1.118E-05 0.000E+00 0.000E+00 1.118E-05 6.896E+00 5.718E-01  0.0000 0.34700
  8.000E+00 4.189E+01 6.237E+00 1.217E-05 0.000E+00 0.000E+00 1.217E-05 6.237E+00 7.245E-01  0.0000 0.36854
  9.000E+00 4.453E+01 5.714E+00 1.310E-05 0.000E+00 0.000E+00 1.310E-05 5.714E+00 8.922E-01  0.0000 0.38836
  1.000E+01 4.704E+01 5.288E+00 1.399E-05 0.000E+00 0.000E+00 1.399E-05 5.288E+00 1.074E+00  0.0000 0.40675
  1.200E+01 5.177E+01 4.635E+00 1.564E-05 0.000E+00 0.000E+00 1.564E-05 4.635E+00 1.479E+00  0.0000 0.43998
  1.400E+01 5.616E+01 4.157E+00 1.717E-05 0.000E+00 0.000E+00 1.717E-05 4.157E+00 1.935E+00  0.0000 0.46937
  1.700E+01 6.230E+01 3.640E+00 1.929E-05 0.000E+00 0.000E+00 1.929E-05 3.640E+00 2.708E+00  0.0000 0.50792
  2.000E+01 6.802E+01 3.270E+00 2.126E-05 0.000E+00 0.000E+00 2.126E-05 3.270E+00 3.579E+00  0.0000 0.54129
  2.500E+01 7.686E+01 2.844E+00 2.430E-05 0.000E+00 0.000E+00 2.430E-05 2.845E+00 5.223E+00  0.0000 0.58827
  3.000E+01 8.509E+01 2.557E+00 2.715E-05 0.000E+00 0.000E+00 2.715E-05 2.557E+00 7.079E+00  0.0000 0.62720
  3.500E+01 9.285E+01 2.349E+00 2.988E-05 0.000E+00 0.000E+00 2.988E-05 2.350E+00 9.121E+00  0.0000 0.66011
  4.000E+01 1.003E+02 2.194E+00 3.253E-05 0.000E+00 0.000E+00 3.253E-05 2.194E+00 1.132E+01  0.0000 0.68834
  4.500E+01 1.074E+02 2.073E+00 3.513E-05 0.000E+00 0.000E+00 3.513E-05 2.074E+00 1.367E+01  0.0000 0.71286
  5.000E+01 1.143E+02 1.976E+00 3.771E-05 0.000E+00 0.000E+00 3.771E-05 1.976E+00 1.614E+01  0.0132 0.73434
  5.500E+01 1.210E+02 1.897E+00 4.027E-05 0.000E+00 0.000E+00 4.027E-05 1.897E+00 1.872E+01  0.0220 0.75332
  6.000E+01 1.276E+02 1.832E+00 4.283E-05 0.000E+00 0.000E+00 4.283E-05 1.832E+00 2.141E+01  0.0315 0.77019
  7.000E+01 1.403E+02 1.732E+00 4.797E-05 0.000E+00 0.000E+00 4.797E-05 1.732E+00 2.702E+01  0.0521 0.79887
  8.000E+01 1.527E+02 1.659E+00 5.317E-05 0.000E+00 0.000E+00 5.317E-05 1.659E+00 3.292E+01  0.0739 0.82227
  9.000E+01 1.647E+02 1.604E+00 5.845E-05 0.000E+00 0.000E+00 5.845E-05 1.604E+00 3.905E+01  0.0963 0.84166
  1.000E+02 1.764E+02 1.562E+00 6.383E-05 0.000E+00 0.000E+00 6.383E-05 1.562E+00 4.537E+01  0.1191 0.85794
  1.200E+02 1.994E+02 1.504E+00 7.491E-05 0.000E+00 0.000E+00 7.491E-05 1.504E+00 5.842E+01  0.1648 0.88361
  1.400E+02 2.218E+02 1.467E+00 8.643E-05 0.000E+00 0.000E+00 8.643E-05 1.467E+00 7.188E+01  0.2101 0.90278
  1.700E+02 2.546E+02 1.434E+00 1.045E-04 1.386E-14 0.000E+00 1.045E-04 1.434E+00 9.257E+01  0.2764 0.92363
  2.000E+02 2.868E+02 1.417E+00 1.236E-04 3.099E-12 0.000E+00 1.236E-04 1.417E+00 1.136E+02  0.3403 0.93835
  2.500E+02 3.396E+02 1.407E+00 1.575E-04 4.599E-08 0.000E+00 1.575E-04 1.407E+00 1.490E+02  0.4413 0.95485
  3.000E+02 3.917E+02 1.408E+00 1.937E-04 4.418E-07 0.000E+00 1.941E-04 1.408E+00 1.845E+02  0.5359 0.96548
  3.500E+02 4.432E+02 1.414E+00 2.320E-04 1.231E-06 0.000E+00 2.333E-04 1.414E+00 2.200E+02  0.6247 0.97274
  4.000E+02 4.945E+02 1.423E+00 2.723E-04 4.026E-06 0.000E+00 2.764E-04 1.423E+00 2.552E+02  0.7083 0.97793
  4.500E+02 5.455E+02 1.433E+00 3.145E-04 2.564E-05 0.000E+00 3.401E-04 1.433E+00 2.902E+02  0.7874 0.98176
  5.000E+02 5.964E+02 1.443E+00 3.584E-04 3.918E-05 0.000E+00 3.975E-04 1.444E+00 3.250E+02  0.8624 0.98467
  5.500E+02 6.471E+02 1.454E+00 4.038E-04 5.462E-05 0.000E+00 4.584E-04 1.454E+00 3.595E+02  0.9338 0.98693
  6.000E+02 6.977E+02 1.464E+00 4.507E-04 7.234E-05 0.000E+00 5.231E-04 1.465E+00 3.938E+02  1.0018 0.98873
  7.000E+02 7.987E+02 1.484E+00 5.487E-04 1.143E-04 0.000E+00 6.630E-04 1.485E+00 4.616E+02  1.1293 0.99136
  8.000E+02 8.995E+02 1.503E+00 6.517E-04 1.647E-04 0.000E+00 8.163E-04 1.504E+00 5.285E+02  1.2467 0.99317
  9.000E+02 1.000E+03 1.520E+00 7.592E-04 2.228E-04 0.000E+00 9.820E-04 1.521E+00 5.946E+02  1.3558 0.99447
  1.000E+03 1.101E+03 1.536E+00 8.709E-04 2.882E-04 0.000E+00 1.159E-03 1.537E+00 6.600E+02  1.4577 0.99542
  1.200E+03 1.301E+03 1.565E+00 1.105E-03 4.394E-04 2.249E-05 1.567E-03 1.566E+00 7.889E+02  1.6434 0.99672
  1.400E+03 1.502E+03 1.589E+00 1.353E-03 6.152E-04 6.123E-05 2.030E-03 1.591E+00 9.156E+02  1.8097 0.99753
  1.700E+03 1.803E+03 1.621E+00 1.747E-03 9.201E-04 1.303E-04 2.797E-03 1.624E+00 1.102E+03  2.0308 0.99829
  2.000E+03 2.103E+03 1.647E+00 2.162E-03 1.269E-03 2.111E-04 3.642E-03 1.651E+00 1.285E+03  2.2257 0.99874
  2.500E+03 2.604E+03 1.683E+00 2.897E-03 1.933E-03 3.662E-04 5.196E-03 1.689E+00 1.585E+03  2.5074 0.99918
  3.000E+03 3.104E+03 1.713E+00 3.676E-03 2.688E-03 5.278E-04 6.891E-03 1.720E+00 1.878E+03  2.7491 0.99942
  3.500E+03 3.604E+03 1.737E+00 4.492E-03 3.519E-03 6.981E-04 8.710E-03 1.746E+00 2.167E+03  2.9613 0.99957
  4.000E+03 4.104E+03 1.758E+00 5.341E-03 4.430E-03 8.793E-04 1.065E-02 1.769E+00 2.452E+03  3.1506 0.99967
  4.500E+03 4.604E+03 1.776E+00 6.219E-03 5.406E-03 1.067E-03 1.269E-02 1.789E+00 2.733E+03  3.3218 0.99974
  5.000E+03 5.105E+03 1.792E+00 7.122E-03 6.438E-03 1.247E-03 1.481E-02 1.807E+00 3.011E+03  3.4780 0.99979
  5.500E+03 5.605E+03 1.807E+00 8.048E-03 7.520E-03 1.441E-03 1.701E-02 1.824E+00 3.286E+03  3.6219 0.99982
  6.000E+03 6.105E+03 1.820E+00 8.996E-03 8.647E-03 1.621E-03 1.926E-02 1.839E+00 3.559E+03  3.7553 0.99985
  7.000E+03 7.105E+03 1.842E+00 1.095E-02 1.102E-02 2.002E-03 2.397E-02 1.866E+00 4.099E+03  3.9963 0.99989
  8.000E+03 8.105E+03 1.861E+00 1.297E-02 1.355E-02 2.379E-03 2.889E-02 1.890E+00 4.631E+03  4.2096 0.99992
  9.000E+03 9.105E+03 1.878E+00 1.505E-02 1.620E-02 2.733E-03 3.397E-02 1.912E+00 5.157E+03  4.4011 0.99993
  1.000E+04 1.011E+04 1.892E+00 1.718E-02 1.896E-02 3.098E-03 3.923E-02 1.932E+00 5.678E+03  4.5750 0.99995
  1.200E+04 1.211E+04 1.917E+00 2.157E-02 2.477E-02 3.836E-03 5.018E-02 1.967E+00 6.704E+03  4.8815 0.99996
  1.400E+04 1.411E+04 1.937E+00 2.612E-02 3.092E-02 4.574E-03 6.162E-02 1.999E+00 7.713E+03  5.1458 0.99997
  1.700E+04 1.711E+04 1.962E+00 3.320E-02 4.066E-02 5.666E-03 7.952E-02 2.041E+00 9.198E+03  5.4850 0.99998
  2.000E+04 2.011E+04 1.982E+00 4.052E-02 5.090E-02 6.735E-03 9.815E-02 2.080E+00 1.065E+04  5.7740 0.99999
  2.500E+04 2.511E+04 2.008E+00 5.316E-02 6.888E-02 8.486E-03 1.305E-01 2.139E+00 1.302E+04  6.1779 0.99999
  3.000E+04 3.011E+04 2.029E+00 6.625E-02 8.777E-02 1.020E-02 1.642E-01 2.193E+00 1.533E+04  6.5134 0.99999
  3.500E+04 3.511E+04 2.046E+00 7.972E-02 1.074E-01 1.193E-02 1.990E-01 2.245E+00 1.759E+04  6.8006 1.00000
  4.000E+04 4.011E+04 2.061E+00 9.350E-02 1.276E-01 1.365E-02 2.347E-01 2.295E+00 1.979E+04  7.0519 1.00000
  4.500E+04 4.511E+04 2.073E+00 1.075E-01 1.483E-01 1.533E-02 2.712E-01 2.344E+00 2.195E+04  7.2752 1.00000
  5.000E+04 5.011E+04 2.084E+00 1.218E-01 1.694E-01 1.702E-02 3.083E-01 2.392E+00 2.406E+04  7.4763 1.00000
  5.500E+04 5.511E+04 2.094E+00 1.363E-01 1.909E-01 1.871E-02 3.460E-01 2.440E+00 2.613E+04  7.6592 1.00000
  6.000E+04 6.011E+04 2.103E+00 1.510E-01 2.128E-01 2.039E-02 3.842E-01 2.487E+00 2.816E+04  7.8270 1.00000
  7.000E+04 7.011E+04 2.118E+00 1.808E-01 2.573E-01 2.372E-02 4.619E-01 2.580E+00 3.211E+04  8.1258 1.00000
  8.000E+04 8.011E+04 2.131E+00 2.112E-01 3.028E-01 2.705E-02 5.411E-01 2.672E+00 3.591E+04  8.3862 1.00000
  9.000E+04 9.011E+04 2.143E+00 2.421E-01 3.491E-01 3.039E-02 6.216E-01 2.764E+00 3.959E+04  8.6170 1.00000
  1.000E+05 1.001E+05 2.153E+00 2.735E-01 3.960E-01 3.366E-02 7.031E-01 2.856E+00 4.315E+04  8.8243 1.00000
  1.200E+05 1.201E+05 2.170E+00 3.372E-01 4.915E-01 4.031E-02 8.690E-01 3.039E+00 4.995E+04  9.1844 1.00000
  1.400E+05 1.401E+05 2.184E+00 4.020E-01 5.888E-01 4.696E-02 1.038E+00 3.222E+00 5.634E+04  9.4901 1.00000
  1.700E+05 1.701E+05 2.202E+00 5.012E-01 7.372E-01 5.694E-02 1.295E+00 3.498E+00 6.529E+04  9.8765 1.00000
  2.000E+05 2.001E+05 2.217E+00 6.020E-01 8.881E-01 6.697E-02 1.557E+00 3.774E+00 7.355E+04 10.2007 1.00000
  2.500E+05 2.501E+05 2.237E+00 7.731E-01 1.143E+00 8.372E-02 2.000E+00 4.238E+00 8.607E+04 10.6466 1.00000
  3.000E+05 3.001E+05 2.254E+00 9.471E-01 1.402E+00 1.006E-01 2.450E+00 4.704E+00 9.729E+04 11.0111 1.00000
  3.500E+05 3.501E+05 2.268E+00 1.123E+00 1.664E+00 1.177E-01 2.905E+00 5.173E+00 1.074E+05 11.3193 1.00000
  4.000E+05 4.001E+05 2.280E+00 1.302E+00 1.927E+00 1.348E-01 3.364E+00 5.644E+00 1.167E+05 11.5862 1.00000
  4.500E+05 4.501E+05 2.291E+00 1.481E+00 2.192E+00 1.520E-01 3.826E+00 6.117E+00 1.252E+05 11.8218 1.00000
  5.000E+05 5.001E+05 2.301E+00 1.662E+00 2.459E+00 1.694E-01 4.291E+00 6.592E+00 1.331E+05 12.0324 1.00000
  5.500E+05 5.501E+05 2.310E+00 1.845E+00 2.727E+00 1.867E-01 4.758E+00 7.068E+00 1.404E+05 12.2230 1.00000
  6.000E+05 6.001E+05 2.318E+00 2.028E+00 2.996E+00 2.040E-01 5.227E+00 7.545E+00 1.473E+05 12.3970 1.00000
  7.000E+05 7.001E+05 2.332E+00 2.397E+00 3.535E+00 2.390E-01 6.171E+00 8.503E+00 1.598E+05 12.7053 1.00000
  8.000E+05 8.001E+05 2.344E+00 2.768E+00 4.078E+00 2.743E-01 7.121E+00 9.465E+00 1.709E+05 12.9723 1.00000
  9.000E+05 9.001E+05 2.355E+00 3.142E+00 4.623E+00 3.100E-01 8.075E+00 1.043E+01 1.810E+05 13.2078 1.00000
  1.000E+06 1.000E+06 2.365E+00 3.518E+00 5.169E+00 3.460E-01 9.033E+00 1.140E+01 1.902E+05 13.4185 1.00000
  1.200E+06 1.200E+06 2.382E+00 4.275E+00 6.266E+00 4.189E-01 1.096E+01 1.334E+01 2.065E+05 13.7831 1.00000
  1.400E+06 1.400E+06 2.396E+00 5.037E+00 7.367E+00 4.928E-01 1.290E+01 1.529E+01 2.205E+05 14.0914 1.00000
  1.700E+06 1.700E+06 2.415E+00 6.187E+00 9.024E+00 6.054E-01 1.582E+01 1.823E+01 2.385E+05 14.4797 1.00000
  2.000E+06 2.000E+06 2.430E+00 7.343E+00 1.069E+01 7.198E-01 1.875E+01 2.118E+01 2.538E+05 14.8047 1.00000
  2.500E+06 2.500E+06 2.452E+00 9.282E+00 1.347E+01 9.139E-01 2.366E+01 2.611E+01 2.752E+05 15.2510 1.00000
  3.000E+06 3.000E+06 2.469E+00 1.123E+01 1.625E+01 1.112E+00 2.859E+01 3.106E+01 2.928E+05 15.6156 1.00000
  3.500E+06 3.500E+06 2.484E+00 1.319E+01 1.904E+01 1.313E+00 3.354E+01 3.603E+01 3.078E+05 15.9239 1.00000
  4.000E+06 4.000E+06 2.497E+00 1.515E+01 2.184E+01 1.517E+00 3.850E+01 4.100E+01 3.209E+05 16.1909 1.00000
  4.500E+06 4.500E+06 2.509E+00 1.711E+01 2.464E+01 1.723E+00 4.347E+01 4.598E+01 3.324E+05 16.4265 1.00000
  5.000E+06 5.000E+06 2.519E+00 1.908E+01 2.744E+01 1.932E+00 4.845E+01 5.097E+01 3.427E+05 16.6372 1.00000
  5.500E+06 5.500E+06 2.529E+00 2.106E+01 3.024E+01 2.143E+00 5.344E+01 5.597E+01 3.521E+05 16.8278 1.00000
  6.000E+06 6.000E+06 2.538E+00 2.303E+01 3.305E+01 2.356E+00 5.843E+01 6.097E+01 3.607E+05 17.0019 1.00000
  7.000E+06 7.000E+06 2.553E+00 2.699E+01 3.866E+01 2.787E+00 6.844E+01 7.099E+01 3.759E+05 17.3101 1.00000
  8.000E+06 8.000E+06 2.567E+00 3.096E+01 4.428E+01 3.224E+00 7.846E+01 8.103E+01 3.891E+05 17.5772 1.00000
  9.000E+06 9.000E+06 2.579E+00 3.493E+01 4.990E+01 3.667E+00 8.849E+01 9.107E+01 4.008E+05 17.8128 1.00000
  1.000E+07 1.000E+07 2.589E+00 3.890E+01 5.552E+01 4.116E+00 9.854E+01 1.011E+02 4.112E+05 18.0235 1.00000
  1.200E+07 1.200E+07 2.608E+00 4.687E+01 6.678E+01 5.026E+00 1.187E+02 1.213E+02 4.294E+05 18.3881 1.00000
  1.400E+07 1.400E+07 2.624E+00 5.484E+01 7.804E+01 5.953E+00 1.388E+02 1.415E+02 4.447E+05 18.6964 1.00000
  1.700E+07 1.700E+07 2.644E+00 6.681E+01 9.494E+01 7.369E+00 1.691E+02 1.718E+02 4.640E+05 19.0847 1.00000
  2.000E+07 2.000E+07 2.661E+00 7.880E+01 1.118E+02 8.813E+00 1.995E+02 2.021E+02 4.802E+05 19.4098 1.00000
  2.500E+07 2.500E+07 2.685E+00 9.880E+01 1.400E+02 1.127E+01 2.501E+02 2.528E+02 5.024E+05 19.8561 1.00000
  3.000E+07 3.000E+07 2.705E+00 1.188E+02 1.682E+02 1.378E+01 3.008E+02 3.035E+02 5.206E+05 20.2207 1.00000
  3.500E+07 3.500E+07 2.721E+00 1.388E+02 1.964E+02 1.634E+01 3.516E+02 3.543E+02 5.359E+05 20.5290 1.00000
  4.000E+07 4.000E+07 2.736E+00 1.589E+02 2.246E+02 1.894E+01 4.025E+02 4.052E+02 5.491E+05 20.7961 1.00000
  4.500E+07 4.500E+07 2.749E+00 1.789E+02 2.529E+02 2.157E+01 4.534E+02 4.561E+02 5.607E+05 21.0316 1.00000
  5.000E+07 5.000E+07 2.760E+00 1.990E+02 2.811E+02 2.424E+01 5.043E+02 5.071E+02 5.711E+05 21.2423 1.00000
  5.500E+07 5.500E+07 2.771E+00 2.190E+02 3.093E+02 2.694E+01 5.553E+02 5.580E+02 5.806E+05 21.4330 1.00000
  6.000E+07 6.000E+07 2.780E+00 2.391E+02 3.375E+02 2.966E+01 6.063E+02 6.091E+02 5.891E+05 21.6070 1.00000
  7.000E+07 7.000E+07 2.798E+00 2.792E+02 3.940E+02 3.519E+01 7.084E+02 7.112E+02 6.044E+05 21.9153 1.00000
  8.000E+07 8.000E+07 2.813E+00 3.194E+02 4.504E+02 4.080E+01 8.106E+02 8.134E+02 6.176E+05 22.1824 1.00000
  9.000E+07 9.000E+07 2.826E+00 3.595E+02 5.069E+02 4.650E+01 9.129E+02 9.157E+02 6.292E+05 22.4179 1.00000
  1.000E+08 1.000E+08 2.838E+00 3.997E+02 5.633E+02 5.226E+01 1.015E+03 1.018E+03 6.395E+05 22.6286 1.00000
  1.200E+08 1.200E+08 2.859E+00 4.800E+02 6.762E+02 6.398E+01 1.220E+03 1.223E+03 6.575E+05 22.9933 1.00000
  1.400E+08 1.400E+08 2.876E+00 5.603E+02 7.892E+02 7.593E+01 1.425E+03 1.428E+03 6.727E+05 23.3016 1.00000
  1.700E+08 1.700E+08 2.899E+00 6.809E+02 9.586E+02 9.422E+01 1.734E+03 1.737E+03 6.918E+05 23.6899 1.00000
  2.000E+08 2.000E+08 2.918E+00 8.014E+02 1.128E+03 1.129E+02 2.042E+03 2.045E+03 7.078E+05 24.0149 1.00000
  2.500E+08 2.500E+08 2.944E+00 1.002E+03 1.410E+03 1.447E+02 2.557E+03 2.560E+03 7.298E+05 24.4612 1.00000
  3.000E+08 3.000E+08 2.966E+00 1.203E+03 1.693E+03 1.772E+02 3.073E+03 3.076E+03 7.477E+05 24.8259 1.00000
  3.500E+08 3.500E+08 2.985E+00 1.404E+03 1.975E+03 2.104E+02 3.590E+03 3.593E+03 7.628E+05 25.1342 1.00000
  4.000E+08 4.000E+08 3.001E+00 1.605E+03 2.257E+03 2.441E+02 4.107E+03 4.110E+03 7.758E+05 25.4012 1.00000
  4.500E+08 4.500E+08 3.015E+00 1.806E+03 2.540E+03 2.784E+02 4.624E+03 4.627E+03 7.873E+05 25.6368 1.00000
  5.000E+08 5.000E+08 3.028E+00 2.007E+03 2.822E+03 3.131E+02 5.142E+03 5.145E+03 7.976E+05 25.8475 1.00000
  5.500E+08 5.500E+08 3.040E+00 2.208E+03 3.104E+03 3.482E+02 5.661E+03 5.664E+03 8.069E+05 26.0381 1.00000
  6.000E+08 6.000E+08 3.051E+00 2.409E+03 3.387E+03 3.836E+02 6.179E+03 6.182E+03 8.153E+05 26.2122 1.00000
  7.000E+08 7.000E+08 3.070E+00 2.811E+03 3.951E+03 4.556E+02 7.218E+03 7.221E+03 8.303E+05 26.5205 1.00000
  8.000E+08 8.000E+08 3.087E+00 3.213E+03 4.516E+03 5.288E+02 8.258E+03 8.261E+03 8.433E+05 26.7875 1.00000
  9.000E+08 9.000E+08 3.102E+00 3.615E+03 5.081E+03 6.031E+02 9.299E+03 9.302E+03 8.547E+05 27.0231 1.00000
  1.000E+09 1.000E+09 3.115E+00 4.017E+03 5.645E+03 6.783E+02 1.034E+04 1.034E+04 8.649E+05 27.2338 1.00000
