 Incident particle is a Muon with M = 105.65839 MeV
 Index = 0: BerylliumOxide
      Absorber with <Z/A> = 0.47978
 Sternheimer coef:  a     k=m_s   x_0    x_1    I[eV]   Cbar  delta0
                 0.1076  3.4927  0.0241  2.5846   93.2  2.9801 0.00

 *** Table generated with PUMAS v1.00 ***

      T         p     Ionization  brems     pair     photonuc  Radloss    dE/dx   CSDA Range  delta   beta
    [MeV]    [MeV/c]  -----------------------[MeV cm^2/g]------------------------  [g/cm^2]
  1.000E+00 1.457E+01 4.197E+01 6.902E-07 0.000E+00 0.000E+00 6.902E-07 4.197E+01 1.191E-02  0.0000 0.13661
  1.200E+00 1.597E+01 3.626E+01 7.910E-07 0.000E+00 0.000E+00 7.910E-07 3.626E+01 1.705E-02  0.0000 0.14944
  1.400E+00 1.726E+01 3.202E+01 8.872E-07 0.000E+00 0.000E+00 8.872E-07 3.202E+01 2.293E-02  0.0000 0.16119
  1.700E+00 1.903E+01 2.737E+01 1.025E-06 0.000E+00 0.000E+00 1.025E-06 2.737E+01 3.310E-02  0.0000 0.17725
  2.000E+00 2.066E+01 2.400E+01 1.155E-06 0.000E+00 0.000E+00 1.155E-06 2.400E+01 4.483E-02  0.0000 0.19186
  2.500E+00 2.312E+01 2.003E+01 1.359E-06 0.000E+00 0.000E+00 1.359E-06 2.003E+01 6.772E-02  0.0000 0.21376
  3.000E+00 2.536E+01 1.728E+01 1.550E-06 0.000E+00 0.000E+00 1.550E-06 1.728E+01 9.467E-02  0.0000 0.23336
  3.500E+00 2.742E+01 1.526E+01 1.730E-06 0.000E+00 0.000E+00 1.730E-06 1.526E+01 1.255E-01  0.0000 0.25120
  4.000E+00 2.935E+01 1.371E+01 1.901E-06 0.000E+00 0.000E+00 1.901E-06 1.371E+01 1.601E-01  0.0000 0.26763
  4.500E+00 3.116E+01 1.247E+01 2.065E-06 0.000E+00 0.000E+00 2.065E-06 1.247E+01 1.984E-01  0.0000 0.28290
  5.000E+00 3.289E+01 1.147E+01 2.222E-06 0.000E+00 0.000E+00 2.222E-06 1.147E+01 2.403E-01  0.0000 0.29720
  5.500E+00 3.453E+01 1.063E+01 2.373E-06 0.000E+00 0.000E+00 2.373E-06 1.063E+01 2.856E-01  0.0000 0.31066
  6.000E+00 3.611E+01 9.925E+00 2.518E-06 0.000E+00 0.000E+00 2.518E-06 9.925E+00 3.343E-01  0.0000 0.32339
  7.000E+00 3.909E+01 8.796E+00 2.795E-06 0.000E+00 0.000E+00 2.795E-06 8.796E+00 4.415E-01  0.0000 0.34700
  8.000E+00 4.189E+01 7.931E+00 3.056E-06 0.000E+00 0.000E+00 3.056E-06 7.931E+00 5.614E-01  0.0000 0.36854
  9.000E+00 4.453E+01 7.246E+00 3.304E-06 0.000E+00 0.000E+00 3.304E-06 7.246E+00 6.934E-01  0.0000 0.38836
  1.000E+01 4.704E+01 6.691E+00 3.540E-06 0.000E+00 0.000E+00 3.540E-06 6.691E+00 8.372E-01  0.0000 0.40675
  1.200E+01 5.177E+01 5.843E+00 3.985E-06 0.000E+00 0.000E+00 3.985E-06 5.843E+00 1.158E+00  0.0000 0.43998
  1.400E+01 5.616E+01 5.225E+00 4.400E-06 0.000E+00 0.000E+00 4.400E-06 5.225E+00 1.520E+00  0.0000 0.46937
  1.700E+01 6.230E+01 4.559E+00 4.978E-06 0.000E+00 0.000E+00 4.978E-06 4.559E+00 2.136E+00  0.0000 0.50792
  2.000E+01 6.802E+01 4.085E+00 5.517E-06 0.000E+00 0.000E+00 5.517E-06 4.085E+00 2.833E+00  0.0000 0.54129
  2.500E+01 7.686E+01 3.540E+00 6.354E-06 0.000E+00 0.000E+00 6.354E-06 3.540E+00 4.151E+00  0.0000 0.58827
  3.000E+01 8.509E+01 3.172E+00 7.139E-06 0.000E+00 0.000E+00 7.139E-06 3.172E+00 5.646E+00  0.0000 0.62720
  3.500E+01 9.285E+01 2.908E+00 7.888E-06 0.000E+00 0.000E+00 7.888E-06 2.908E+00 7.293E+00  0.0000 0.66011
  4.000E+01 1.003E+02 2.711E+00 8.615E-06 0.000E+00 0.000E+00 8.615E-06 2.711E+00 9.075E+00  0.0000 0.68834
  4.500E+01 1.074E+02 2.557E+00 9.327E-06 0.000E+00 0.000E+00 9.327E-06 2.557E+00 1.097E+01  0.0000 0.71286
  5.000E+01 1.143E+02 2.434E+00 1.003E-05 0.000E+00 0.000E+00 1.003E-05 2.434E+00 1.298E+01  0.0086 0.73434
  5.500E+01 1.210E+02 2.333E+00 1.073E-05 0.000E+00 0.000E+00 1.073E-05 2.333E+00 1.508E+01  0.0278 0.75332
  6.000E+01 1.276E+02 2.249E+00 1.142E-05 0.000E+00 0.000E+00 1.142E-05 2.249E+00 1.726E+01  0.0476 0.77019
  7.000E+01 1.403E+02 2.119E+00 1.281E-05 0.000E+00 0.000E+00 1.281E-05 2.119E+00 2.184E+01  0.0882 0.79887
  8.000E+01 1.527E+02 2.024E+00 1.421E-05 0.000E+00 0.000E+00 1.421E-05 2.024E+00 2.667E+01  0.1292 0.82227
  9.000E+01 1.647E+02 1.953E+00 1.562E-05 0.000E+00 0.000E+00 1.562E-05 1.953E+00 3.170E+01  0.1702 0.84166
  1.000E+02 1.764E+02 1.897E+00 1.706E-05 0.000E+00 0.000E+00 1.706E-05 1.897E+00 3.690E+01  0.2107 0.85794
  1.200E+02 1.994E+02 1.819E+00 2.000E-05 0.000E+00 0.000E+00 2.000E-05 1.819E+00 4.767E+01  0.2899 0.88361
  1.400E+02 2.218E+02 1.768E+00 2.305E-05 0.000E+00 0.000E+00 2.305E-05 1.768E+00 5.882E+01  0.3664 0.90278
  1.700E+02 2.546E+02 1.720E+00 2.781E-05 4.102E-14 0.000E+00 2.781E-05 1.720E+00 7.603E+01  0.4756 0.92363
  2.000E+02 2.868E+02 1.693E+00 3.281E-05 9.168E-12 0.000E+00 3.281E-05 1.693E+00 9.361E+01  0.5787 0.93835
  2.500E+02 3.396E+02 1.672E+00 4.163E-05 7.541E-08 0.000E+00 4.170E-05 1.672E+00 1.233E+02  0.7383 0.95485
  3.000E+02 3.917E+02 1.665E+00 5.101E-05 6.689E-07 0.000E+00 5.168E-05 1.665E+00 1.533E+02  0.8848 0.96548
  3.500E+02 4.432E+02 1.666E+00 6.091E-05 1.839E-06 0.000E+00 6.275E-05 1.666E+00 1.833E+02  1.0201 0.97274
  4.000E+02 4.945E+02 1.671E+00 7.129E-05 3.562E-06 0.000E+00 7.485E-05 1.671E+00 2.133E+02  1.1460 0.97793
  4.500E+02 5.455E+02 1.678E+00 8.209E-05 5.814E-06 0.000E+00 8.791E-05 1.678E+00 2.431E+02  1.2638 0.98176
  5.000E+02 5.964E+02 1.685E+00 9.331E-05 8.578E-06 0.000E+00 1.019E-04 1.685E+00 2.729E+02  1.3744 0.98467
  5.500E+02 6.471E+02 1.694E+00 1.049E-04 1.184E-05 0.000E+00 1.167E-04 1.694E+00 3.025E+02  1.4788 0.98693
  6.000E+02 6.977E+02 1.702E+00 1.168E-04 1.557E-05 0.000E+00 1.324E-04 1.702E+00 3.319E+02  1.5775 0.98873
  7.000E+02 7.987E+02 1.719E+00 1.417E-04 2.441E-05 0.000E+00 1.661E-04 1.719E+00 3.904E+02  1.7607 0.99136
  8.000E+02 8.995E+02 1.735E+00 1.677E-04 3.497E-05 0.000E+00 2.027E-04 1.735E+00 4.483E+02  1.9276 0.99317
  9.000E+02 1.000E+03 1.750E+00 1.949E-04 4.715E-05 0.000E+00 2.420E-04 1.750E+00 5.057E+02  2.0811 0.99447
  1.000E+03 1.101E+03 1.764E+00 2.230E-04 6.084E-05 0.000E+00 2.838E-04 1.764E+00 5.626E+02  2.2231 0.99542
  1.200E+03 1.301E+03 1.789E+00 2.818E-04 9.244E-05 2.256E-05 3.968E-04 1.789E+00 6.752E+02  2.4792 0.99672
  1.400E+03 1.502E+03 1.811E+00 3.438E-04 1.292E-04 6.177E-05 5.347E-04 1.811E+00 7.863E+02  2.7055 0.99753
  1.700E+03 1.803E+03 1.839E+00 4.418E-04 1.928E-04 1.325E-04 7.671E-04 1.840E+00 9.506E+02  3.0024 0.99829
  2.000E+03 2.103E+03 1.863E+00 5.451E-04 2.655E-04 2.160E-04 1.027E-03 1.864E+00 1.113E+03  3.2605 0.99874
  2.500E+03 2.604E+03 1.895E+00 7.272E-04 4.041E-04 3.779E-04 1.509E-03 1.897E+00 1.379E+03  3.6280 0.99918
  3.000E+03 3.104E+03 1.922E+00 9.199E-04 5.615E-04 5.483E-04 2.030E-03 1.924E+00 1.640E+03  3.9384 0.99942
  3.500E+03 3.604E+03 1.944E+00 1.122E-03 7.352E-04 7.293E-04 2.586E-03 1.946E+00 1.899E+03  4.2075 0.99957
  4.000E+03 4.104E+03 1.963E+00 1.331E-03 9.364E-04 9.229E-04 3.190E-03 1.966E+00 2.154E+03  4.4449 0.99967
  4.500E+03 4.604E+03 1.979E+00 1.548E-03 1.156E-03 1.125E-03 3.829E-03 1.983E+00 2.408E+03  4.6574 0.99974
  5.000E+03 5.105E+03 1.994E+00 1.770E-03 1.389E-03 1.319E-03 4.478E-03 1.998E+00 2.659E+03  4.8499 0.99979
  5.500E+03 5.605E+03 2.007E+00 1.999E-03 1.634E-03 1.528E-03 5.161E-03 2.012E+00 2.908E+03  5.0257 0.99982
  6.000E+03 6.105E+03 2.019E+00 2.232E-03 1.890E-03 1.724E-03 5.846E-03 2.025E+00 3.156E+03  5.1876 0.99985
  7.000E+03 7.105E+03 2.039E+00 2.714E-03 2.432E-03 2.138E-03 7.283E-03 2.047E+00 3.647E+03  5.4772 0.99989
  8.000E+03 8.105E+03 2.057E+00 3.212E-03 3.008E-03 2.550E-03 8.771E-03 2.066E+00 4.133E+03  5.7309 0.99992
  9.000E+03 9.105E+03 2.072E+00 3.724E-03 3.616E-03 2.939E-03 1.028E-02 2.083E+00 4.616E+03  5.9564 0.99993
  1.000E+04 1.011E+04 2.086E+00 4.250E-03 4.252E-03 3.340E-03 1.184E-02 2.098E+00 5.094E+03  6.1596 0.99995
  1.200E+04 1.211E+04 2.109E+00 5.337E-03 5.596E-03 4.155E-03 1.509E-02 2.124E+00 6.042E+03  6.5136 0.99996
  1.400E+04 1.411E+04 2.128E+00 6.463E-03 7.024E-03 4.973E-03 1.846E-02 2.146E+00 6.978E+03  6.8152 0.99997
  1.700E+04 1.711E+04 2.151E+00 8.215E-03 9.297E-03 6.188E-03 2.370E-02 2.175E+00 8.367E+03  7.1973 0.99998
  2.000E+04 2.011E+04 2.170E+00 1.003E-02 1.170E-02 7.382E-03 2.911E-02 2.199E+00 9.739E+03  7.5187 0.99999
  2.500E+04 2.511E+04 2.196E+00 1.317E-02 1.594E-02 9.347E-03 3.846E-02 2.234E+00 1.199E+04  7.9616 0.99999
  3.000E+04 3.011E+04 2.216E+00 1.643E-02 2.043E-02 1.128E-02 4.814E-02 2.264E+00 1.422E+04  8.3245 0.99999
  3.500E+04 3.511E+04 2.233E+00 1.980E-02 2.510E-02 1.324E-02 5.814E-02 2.291E+00 1.641E+04  8.6317 1.00000
  4.000E+04 4.011E+04 2.248E+00 2.324E-02 2.995E-02 1.517E-02 6.836E-02 2.316E+00 1.858E+04  8.8980 1.00000
  4.500E+04 4.511E+04 2.260E+00 2.676E-02 3.493E-02 1.709E-02 7.877E-02 2.339E+00 2.073E+04  9.1330 1.00000
  5.000E+04 5.011E+04 2.271E+00 3.034E-02 4.003E-02 1.900E-02 8.937E-02 2.361E+00 2.286E+04  9.3433 1.00000
  5.500E+04 5.511E+04 2.281E+00 3.398E-02 4.524E-02 2.094E-02 1.002E-01 2.382E+00 2.497E+04  9.5335 1.00000
  6.000E+04 6.011E+04 2.290E+00 3.767E-02 5.054E-02 2.285E-02 1.111E-01 2.401E+00 2.706E+04  9.7072 1.00000
  7.000E+04 7.011E+04 2.306E+00 4.519E-02 6.140E-02 2.665E-02 1.332E-01 2.440E+00 3.119E+04 10.0150 1.00000
  8.000E+04 8.011E+04 2.320E+00 5.286E-02 7.254E-02 3.046E-02 1.559E-01 2.476E+00 3.526E+04 10.2817 1.00000
  9.000E+04 9.011E+04 2.332E+00 6.068E-02 8.391E-02 3.428E-02 1.789E-01 2.511E+00 3.927E+04 10.5170 1.00000
  1.000E+05 1.001E+05 2.343E+00 6.861E-02 9.549E-02 3.803E-02 2.021E-01 2.545E+00 4.323E+04 10.7274 1.00000
  1.200E+05 1.201E+05 2.361E+00 8.478E-02 1.192E-01 4.567E-02 2.496E-01 2.610E+00 5.099E+04 11.0917 1.00000
  1.400E+05 1.401E+05 2.376E+00 1.013E-01 1.434E-01 5.332E-02 2.980E-01 2.674E+00 5.856E+04 11.3998 1.00000
  1.700E+05 1.701E+05 2.395E+00 1.266E-01 1.805E-01 6.481E-02 3.719E-01 2.767E+00 6.959E+04 11.7878 1.00000
  2.000E+05 2.001E+05 2.411E+00 1.524E-01 2.184E-01 7.637E-02 4.472E-01 2.859E+00 8.026E+04 12.1127 1.00000
  2.500E+05 2.501E+05 2.433E+00 1.963E-01 2.829E-01 9.571E-02 5.749E-01 3.008E+00 9.731E+04 12.5588 1.00000
  3.000E+05 3.001E+05 2.451E+00 2.411E-01 3.486E-01 1.152E-01 7.050E-01 3.156E+00 1.135E+05 12.9233 1.00000
  3.500E+05 3.501E+05 2.466E+00 2.867E-01 4.152E-01 1.350E-01 8.369E-01 3.303E+00 1.290E+05 13.2315 1.00000
  4.000E+05 4.001E+05 2.479E+00 3.328E-01 4.826E-01 1.548E-01 9.702E-01 3.450E+00 1.438E+05 13.4984 1.00000
  4.500E+05 4.501E+05 2.491E+00 3.794E-01 5.505E-01 1.748E-01 1.105E+00 3.596E+00 1.580E+05 13.7340 1.00000
  5.000E+05 5.001E+05 2.501E+00 4.264E-01 6.190E-01 1.949E-01 1.240E+00 3.742E+00 1.717E+05 13.9446 1.00000
  5.500E+05 5.501E+05 2.511E+00 4.738E-01 6.879E-01 2.149E-01 1.377E+00 3.887E+00 1.848E+05 14.1352 1.00000
  6.000E+05 6.001E+05 2.519E+00 5.215E-01 7.571E-01 2.351E-01 1.514E+00 4.033E+00 1.974E+05 14.3092 1.00000
  7.000E+05 7.001E+05 2.535E+00 6.179E-01 8.965E-01 2.757E-01 1.790E+00 4.325E+00 2.214E+05 14.6175 1.00000
  8.000E+05 8.001E+05 2.548E+00 7.151E-01 1.037E+00 3.167E-01 2.069E+00 4.617E+00 2.438E+05 14.8845 1.00000
  9.000E+05 9.001E+05 2.560E+00 8.131E-01 1.178E+00 3.582E-01 2.349E+00 4.909E+00 2.648E+05 15.1200 1.00000
  1.000E+06 1.000E+06 2.570E+00 9.118E-01 1.320E+00 4.000E-01 2.632E+00 5.202E+00 2.846E+05 15.3307 1.00000
  1.200E+06 1.200E+06 2.589E+00 1.111E+00 1.605E+00 4.847E-01 3.201E+00 5.789E+00 3.211E+05 15.6953 1.00000
  1.400E+06 1.400E+06 2.604E+00 1.312E+00 1.892E+00 5.706E-01 3.774E+00 6.379E+00 3.540E+05 16.0036 1.00000
  1.700E+06 1.700E+06 2.624E+00 1.616E+00 2.324E+00 7.015E-01 4.641E+00 7.266E+00 3.982E+05 16.3919 1.00000
  2.000E+06 2.000E+06 2.641E+00 1.922E+00 2.759E+00 8.345E-01 5.515E+00 8.156E+00 4.372E+05 16.7169 1.00000
  2.500E+06 2.500E+06 2.664E+00 2.436E+00 3.487E+00 1.060E+00 6.983E+00 9.647E+00 4.938E+05 17.1632 1.00000
  3.000E+06 3.000E+06 2.683E+00 2.955E+00 4.217E+00 1.291E+00 8.463E+00 1.115E+01 5.421E+05 17.5278 1.00000
  3.500E+06 3.500E+06 2.699E+00 3.476E+00 4.950E+00 1.524E+00 9.951E+00 1.265E+01 5.843E+05 17.8361 1.00000
  4.000E+06 4.000E+06 2.713E+00 4.000E+00 5.684E+00 1.762E+00 1.145E+01 1.416E+01 6.218E+05 18.1031 1.00000
  4.500E+06 4.500E+06 2.726E+00 4.526E+00 6.419E+00 2.002E+00 1.295E+01 1.567E+01 6.554E+05 18.3387 1.00000
  5.000E+06 5.000E+06 2.737E+00 5.053E+00 7.156E+00 2.245E+00 1.445E+01 1.719E+01 6.859E+05 18.5494 1.00000
  5.500E+06 5.500E+06 2.747E+00 5.581E+00 7.893E+00 2.490E+00 1.596E+01 1.871E+01 7.138E+05 18.7400 1.00000
  6.000E+06 6.000E+06 2.756E+00 6.111E+00 8.631E+00 2.738E+00 1.748E+01 2.024E+01 7.395E+05 18.9141 1.00000
  7.000E+06 7.000E+06 2.773E+00 7.173E+00 1.011E+01 3.240E+00 2.052E+01 2.329E+01 7.856E+05 19.2223 1.00000
  8.000E+06 8.000E+06 2.788E+00 8.238E+00 1.159E+01 3.749E+00 2.357E+01 2.636E+01 8.261E+05 19.4894 1.00000
  9.000E+06 9.000E+06 2.801E+00 9.305E+00 1.307E+01 4.265E+00 2.664E+01 2.944E+01 8.620E+05 19.7250 1.00000
  1.000E+07 1.000E+07 2.812E+00 1.037E+01 1.455E+01 4.787E+00 2.971E+01 3.252E+01 8.944E+05 19.9357 1.00000
  1.200E+07 1.200E+07 2.832E+00 1.252E+01 1.752E+01 5.847E+00 3.588E+01 3.871E+01 9.510E+05 20.3003 1.00000
  1.400E+07 1.400E+07 2.849E+00 1.467E+01 2.049E+01 6.926E+00 4.208E+01 4.493E+01 9.991E+05 20.6086 1.00000
  1.700E+07 1.700E+07 2.871E+00 1.790E+01 2.494E+01 8.576E+00 5.141E+01 5.428E+01 1.060E+06 20.9969 1.00000
  2.000E+07 2.000E+07 2.890E+00 2.113E+01 2.940E+01 1.026E+01 6.079E+01 6.368E+01 1.111E+06 21.3220 1.00000
  2.500E+07 2.500E+07 2.915E+00 2.653E+01 3.684E+01 1.312E+01 7.649E+01 7.941E+01 1.182E+06 21.7683 1.00000
  3.000E+07 3.000E+07 2.936E+00 3.194E+01 4.428E+01 1.604E+01 9.227E+01 9.520E+01 1.240E+06 22.1329 1.00000
  3.500E+07 3.500E+07 2.954E+00 3.736E+01 5.173E+01 1.902E+01 1.081E+02 1.111E+02 1.289E+06 22.4412 1.00000
  4.000E+07 4.000E+07 2.970E+00 4.278E+01 5.917E+01 2.205E+01 1.240E+02 1.270E+02 1.331E+06 22.7083 1.00000
  4.500E+07 4.500E+07 2.984E+00 4.821E+01 6.662E+01 2.512E+01 1.399E+02 1.429E+02 1.368E+06 22.9438 1.00000
  5.000E+07 5.000E+07 2.996E+00 5.363E+01 7.407E+01 2.822E+01 1.559E+02 1.589E+02 1.401E+06 23.1545 1.00000
  5.500E+07 5.500E+07 3.007E+00 5.906E+01 8.152E+01 3.137E+01 1.720E+02 1.750E+02 1.431E+06 23.3452 1.00000
  6.000E+07 6.000E+07 3.018E+00 6.450E+01 8.897E+01 3.454E+01 1.880E+02 1.910E+02 1.459E+06 23.5192 1.00000
  7.000E+07 7.000E+07 3.036E+00 7.537E+01 1.039E+02 4.097E+01 2.202E+02 2.233E+02 1.507E+06 23.8275 1.00000
  8.000E+07 8.000E+07 3.052E+00 8.624E+01 1.188E+02 4.751E+01 2.525E+02 2.556E+02 1.549E+06 24.0946 1.00000
  9.000E+07 9.000E+07 3.067E+00 9.712E+01 1.337E+02 5.414E+01 2.850E+02 2.880E+02 1.586E+06 24.3301 1.00000
  1.000E+08 1.000E+08 3.080E+00 1.080E+02 1.486E+02 6.086E+01 3.175E+02 3.205E+02 1.619E+06 24.5408 1.00000
  1.200E+08 1.200E+08 3.102E+00 1.298E+02 1.784E+02 7.451E+01 3.827E+02 3.858E+02 1.676E+06 24.9055 1.00000
  1.400E+08 1.400E+08 3.121E+00 1.516E+02 2.082E+02 8.842E+01 4.482E+02 4.514E+02 1.724E+06 25.2138 1.00000
  1.700E+08 1.700E+08 3.146E+00 1.842E+02 2.530E+02 1.097E+02 5.469E+02 5.501E+02 1.785E+06 25.6021 1.00000
  2.000E+08 2.000E+08 3.166E+00 2.169E+02 2.977E+02 1.314E+02 6.461E+02 6.493E+02 1.835E+06 25.9271 1.00000
  2.500E+08 2.500E+08 3.195E+00 2.714E+02 3.723E+02 1.685E+02 8.122E+02 8.154E+02 1.904E+06 26.3734 1.00000
  3.000E+08 3.000E+08 3.218E+00 3.259E+02 4.469E+02 2.064E+02 9.792E+02 9.824E+02 1.960E+06 26.7381 1.00000
  3.500E+08 3.500E+08 3.238E+00 3.804E+02 5.215E+02 2.450E+02 1.147E+03 1.150E+03 2.007E+06 27.0464 1.00000
  4.000E+08 4.000E+08 3.255E+00 4.350E+02 5.960E+02 2.843E+02 1.315E+03 1.319E+03 2.048E+06 27.3134 1.00000
  4.500E+08 4.500E+08 3.271E+00 4.895E+02 6.706E+02 3.242E+02 1.484E+03 1.488E+03 2.084E+06 27.5490 1.00000
  5.000E+08 5.000E+08 3.285E+00 5.440E+02 7.452E+02 3.646E+02 1.654E+03 1.657E+03 2.116E+06 27.7597 1.00000
  5.500E+08 5.500E+08 3.297E+00 5.986E+02 8.198E+02 4.054E+02 1.824E+03 1.827E+03 2.145E+06 27.9503 1.00000
  6.000E+08 6.000E+08 3.309E+00 6.531E+02 8.943E+02 4.468E+02 1.994E+03 1.997E+03 2.171E+06 28.1244 1.00000
  7.000E+08 7.000E+08 3.330E+00 7.622E+02 1.043E+03 5.306E+02 2.336E+03 2.340E+03 2.217E+06 28.4327 1.00000
  8.000E+08 8.000E+08 3.348E+00 8.712E+02 1.193E+03 6.158E+02 2.680E+03 2.683E+03 2.257E+06 28.6997 1.00000
  9.000E+08 9.000E+08 3.364E+00 9.803E+02 1.342E+03 7.023E+02 3.024E+03 3.028E+03 2.292E+06 28.9353 1.00000
  1.000E+09 1.000E+09 3.378E+00 1.089E+03 1.491E+03 7.900E+02 3.370E+03 3.374E+03 2.324E+06 29.1460 1.00000
