 Incident particle is a Muon with M = 105.65839 MeV
 Index = 0: Bismuth
      Absorber with <Z/A> = 0.39717
 Sternheimer coef:  a     k=m_s   x_0    x_1    I[eV]   Cbar  delta0
                 0.0941  3.1671  0.4152  3.8248  823.0  6.3505 0.14

 *** Table generated with PUMAS v1.00 ***

      T         p     Ionization  brems     pair     photonuc  Radloss    dE/dx   CSDA Range  delta   beta
    [MeV]    [MeV/c]  -----------------------[MeV cm^2/g]------------------------  [g/cm^2]
  1.000E+00 1.457E+01 2.051E+01 5.647E-06 0.000E+00 0.000E+00 5.647E-06 2.051E+01 2.438E-02  0.0004 0.13661
  1.200E+00 1.597E+01 1.812E+01 6.484E-06 0.000E+00 0.000E+00 6.484E-06 1.812E+01 3.478E-02  0.0005 0.14944
  1.400E+00 1.726E+01 1.628E+01 7.276E-06 0.000E+00 0.000E+00 7.276E-06 1.628E+01 4.644E-02  0.0006 0.16119
  1.700E+00 1.903E+01 1.420E+01 8.395E-06 0.000E+00 0.000E+00 8.395E-06 1.420E+01 6.621E-02  0.0007 0.17725
  2.000E+00 2.066E+01 1.265E+01 9.444E-06 0.000E+00 0.000E+00 9.444E-06 1.265E+01 8.863E-02  0.0008 0.19186
  2.500E+00 2.312E+01 1.077E+01 1.107E-05 0.000E+00 0.000E+00 1.107E-05 1.077E+01 1.316E-01  0.0010 0.21376
  3.000E+00 2.536E+01 9.429E+00 1.257E-05 0.000E+00 0.000E+00 1.257E-05 9.429E+00 1.813E-01  0.0012 0.23336
  3.500E+00 2.742E+01 8.423E+00 1.397E-05 0.000E+00 0.000E+00 1.397E-05 8.423E+00 2.375E-01  0.0014 0.25120
  4.000E+00 2.935E+01 7.637E+00 1.528E-05 0.000E+00 0.000E+00 1.528E-05 7.637E+00 3.000E-01  0.0016 0.26763
  4.500E+00 3.116E+01 7.005E+00 1.652E-05 0.000E+00 0.000E+00 1.652E-05 7.005E+00 3.684E-01  0.0018 0.28290
  5.000E+00 3.289E+01 6.484E+00 1.770E-05 0.000E+00 0.000E+00 1.770E-05 6.484E+00 4.426E-01  0.0020 0.29720
  5.500E+00 3.453E+01 6.047E+00 1.883E-05 0.000E+00 0.000E+00 1.883E-05 6.047E+00 5.225E-01  0.0022 0.31066
  6.000E+00 3.611E+01 5.675E+00 1.991E-05 0.000E+00 0.000E+00 1.991E-05 5.675E+00 6.079E-01  0.0024 0.32339
  7.000E+00 3.909E+01 5.073E+00 2.194E-05 0.000E+00 0.000E+00 2.194E-05 5.073E+00 7.946E-01  0.0028 0.34700
  8.000E+00 4.189E+01 4.608E+00 2.384E-05 0.000E+00 0.000E+00 2.384E-05 4.608E+00 1.002E+00  0.0033 0.36854
  9.000E+00 4.453E+01 4.236E+00 2.562E-05 0.000E+00 0.000E+00 2.562E-05 4.236E+00 1.228E+00  0.0037 0.38836
  1.000E+01 4.704E+01 3.931E+00 2.731E-05 0.000E+00 0.000E+00 2.731E-05 3.931E+00 1.473E+00  0.0041 0.40675
  1.200E+01 5.177E+01 3.463E+00 3.046E-05 0.000E+00 0.000E+00 3.046E-05 3.463E+00 2.017E+00  0.0050 0.43998
  1.400E+01 5.616E+01 3.118E+00 3.336E-05 0.000E+00 0.000E+00 3.336E-05 3.118E+00 2.626E+00  0.0058 0.46937
  1.700E+01 6.230E+01 2.742E+00 3.737E-05 0.000E+00 0.000E+00 3.737E-05 2.742E+00 3.654E+00  0.0072 0.50792
  2.000E+01 6.802E+01 2.473E+00 4.109E-05 0.000E+00 0.000E+00 4.109E-05 2.473E+00 4.808E+00  0.0086 0.54129
  2.500E+01 7.686E+01 2.161E+00 4.684E-05 0.000E+00 0.000E+00 4.684E-05 2.161E+00 6.976E+00  0.0109 0.58827
  3.000E+01 8.509E+01 1.949E+00 5.222E-05 0.000E+00 0.000E+00 5.222E-05 1.949E+00 9.416E+00  0.0134 0.62720
  3.500E+01 9.285E+01 1.796E+00 5.738E-05 0.000E+00 0.000E+00 5.738E-05 1.796E+00 1.209E+01  0.0160 0.66011
  4.000E+01 1.003E+02 1.681E+00 6.240E-05 0.000E+00 0.000E+00 6.240E-05 1.681E+00 1.497E+01  0.0186 0.68834
  4.500E+01 1.074E+02 1.592E+00 6.734E-05 0.000E+00 0.000E+00 6.734E-05 1.592E+00 1.803E+01  0.0214 0.71286
  5.000E+01 1.143E+02 1.521E+00 7.223E-05 0.000E+00 0.000E+00 7.223E-05 1.521E+00 2.124E+01  0.0242 0.73434
  5.500E+01 1.210E+02 1.463E+00 7.710E-05 0.000E+00 0.000E+00 7.710E-05 1.463E+00 2.460E+01  0.0271 0.75332
  6.000E+01 1.276E+02 1.416E+00 8.197E-05 0.000E+00 0.000E+00 8.197E-05 1.416E+00 2.807E+01  0.0302 0.77019
  7.000E+01 1.403E+02 1.343E+00 9.177E-05 0.000E+00 0.000E+00 9.177E-05 1.343E+00 3.532E+01  0.0365 0.79887
  8.000E+01 1.527E+02 1.291E+00 1.017E-04 0.000E+00 0.000E+00 1.017E-04 1.291E+00 4.292E+01  0.0432 0.82227
  9.000E+01 1.647E+02 1.252E+00 1.118E-04 0.000E+00 0.000E+00 1.118E-04 1.252E+00 5.079E+01  0.0503 0.84166
  1.000E+02 1.764E+02 1.222E+00 1.221E-04 0.000E+00 0.000E+00 1.221E-04 1.222E+00 5.887E+01  0.0577 0.85794
  1.200E+02 1.994E+02 1.182E+00 1.434E-04 0.000E+00 0.000E+00 1.434E-04 1.182E+00 7.551E+01  0.0737 0.88361
  1.400E+02 2.218E+02 1.158E+00 1.655E-04 0.000E+00 0.000E+00 1.655E-04 1.158E+00 9.260E+01  0.0911 0.90278
  1.700E+02 2.546E+02 1.138E+00 2.004E-04 0.000E+00 0.000E+00 2.004E-04 1.138E+00 1.187E+02  0.1201 0.92363
  2.000E+02 2.868E+02 1.130E+00 2.372E-04 0.000E+00 0.000E+00 2.372E-04 1.130E+00 1.452E+02  0.1470 0.93835
  2.500E+02 3.396E+02 1.130E+00 3.026E-04 0.000E+00 0.000E+00 3.026E-04 1.130E+00 1.894E+02  0.1836 0.95485
  3.000E+02 3.917E+02 1.137E+00 3.727E-04 0.000E+00 0.000E+00 3.727E-04 1.137E+00 2.335E+02  0.2256 0.96548
  3.500E+02 4.432E+02 1.147E+00 4.471E-04 0.000E+00 0.000E+00 4.471E-04 1.147E+00 2.773E+02  0.2699 0.97274
  4.000E+02 4.945E+02 1.158E+00 5.255E-04 0.000E+00 0.000E+00 5.255E-04 1.159E+00 3.207E+02  0.3152 0.97793
  4.500E+02 5.455E+02 1.170E+00 6.075E-04 0.000E+00 0.000E+00 6.075E-04 1.171E+00 3.636E+02  0.3606 0.98176
  5.000E+02 5.964E+02 1.182E+00 6.929E-04 7.225E-05 0.000E+00 7.652E-04 1.183E+00 4.061E+02  0.4056 0.98467
  5.500E+02 6.471E+02 1.194E+00 7.816E-04 1.110E-04 0.000E+00 8.925E-04 1.195E+00 4.482E+02  0.4500 0.98693
  6.000E+02 6.977E+02 1.205E+00 8.731E-04 1.487E-04 0.000E+00 1.022E-03 1.206E+00 4.898E+02  0.4936 0.98873
  7.000E+02 7.987E+02 1.226E+00 1.065E-03 2.363E-04 0.000E+00 1.301E-03 1.227E+00 5.720E+02  0.5781 0.99136
  8.000E+02 8.995E+02 1.245E+00 1.266E-03 3.413E-04 0.000E+00 1.607E-03 1.247E+00 6.529E+02  0.6588 0.99317
  9.000E+02 1.000E+03 1.263E+00 1.477E-03 4.625E-04 0.000E+00 1.940E-03 1.265E+00 7.325E+02  0.7359 0.99447
  1.000E+03 1.101E+03 1.279E+00 1.696E-03 5.992E-04 0.000E+00 2.295E-03 1.281E+00 8.111E+02  0.8095 0.99542
  1.200E+03 1.301E+03 1.307E+00 2.157E-03 9.149E-04 2.245E-05 3.094E-03 1.310E+00 9.654E+02  0.9472 0.99672
  1.400E+03 1.502E+03 1.332E+00 2.645E-03 1.282E-03 6.083E-05 3.988E-03 1.336E+00 1.117E+03  1.0738 0.99753
  1.700E+03 1.803E+03 1.363E+00 3.420E-03 1.920E-03 1.287E-04 5.469E-03 1.369E+00 1.339E+03  1.2463 0.99829
  2.000E+03 2.103E+03 1.389E+00 4.241E-03 2.648E-03 2.075E-04 7.097E-03 1.396E+00 1.556E+03  1.4017 0.99874
  2.500E+03 2.604E+03 1.425E+00 5.694E-03 4.038E-03 3.576E-04 1.009E-02 1.435E+00 1.909E+03  1.6309 0.99918
  3.000E+03 3.104E+03 1.453E+00 7.236E-03 5.615E-03 5.127E-04 1.336E-02 1.467E+00 2.254E+03  1.8315 0.99942
  3.500E+03 3.604E+03 1.477E+00 8.855E-03 7.353E-03 6.751E-04 1.688E-02 1.494E+00 2.591E+03  2.0100 0.99957
  4.000E+03 4.104E+03 1.498E+00 1.054E-02 9.241E-03 8.472E-04 2.063E-02 1.518E+00 2.923E+03  2.1711 0.99967
  4.500E+03 4.604E+03 1.515E+00 1.228E-02 1.126E-02 1.025E-03 2.457E-02 1.540E+00 3.250E+03  2.3181 0.99974
  5.000E+03 5.105E+03 1.531E+00 1.408E-02 1.339E-02 1.194E-03 2.866E-02 1.560E+00 3.573E+03  2.4532 0.99979
  5.500E+03 5.605E+03 1.545E+00 1.592E-02 1.562E-02 1.377E-03 3.292E-02 1.578E+00 3.892E+03  2.5785 0.99982
  6.000E+03 6.105E+03 1.557E+00 1.780E-02 1.795E-02 1.545E-03 3.730E-02 1.595E+00 4.207E+03  2.6953 0.99985
  7.000E+03 7.105E+03 1.579E+00 2.169E-02 2.285E-02 1.902E-03 4.644E-02 1.626E+00 4.828E+03  2.9076 0.99989
  8.000E+03 8.105E+03 1.598E+00 2.571E-02 2.804E-02 2.254E-03 5.601E-02 1.654E+00 5.438E+03  3.0970 0.99992
  9.000E+03 9.105E+03 1.614E+00 2.985E-02 3.350E-02 2.583E-03 6.593E-02 1.680E+00 6.038E+03  3.2682 0.99993
  1.000E+04 1.011E+04 1.628E+00 3.409E-02 3.917E-02 2.921E-03 7.619E-02 1.704E+00 6.629E+03  3.4244 0.99995
  1.200E+04 1.211E+04 1.651E+00 4.286E-02 5.111E-02 3.604E-03 9.757E-02 1.749E+00 7.787E+03  3.7015 0.99996
  1.400E+04 1.411E+04 1.671E+00 5.193E-02 6.372E-02 4.284E-03 1.199E-01 1.791E+00 8.918E+03  3.9422 0.99997
  1.700E+04 1.711E+04 1.695E+00 6.604E-02 8.366E-02 5.287E-03 1.550E-01 1.850E+00 1.057E+04  4.2533 0.99998
  2.000E+04 2.011E+04 1.714E+00 8.064E-02 1.046E-01 6.265E-03 1.915E-01 1.905E+00 1.216E+04  4.5201 0.99999
  2.500E+04 2.511E+04 1.739E+00 1.059E-01 1.413E-01 7.862E-03 2.550E-01 1.994E+00 1.473E+04  4.8953 0.99999
  3.000E+04 3.011E+04 1.759E+00 1.320E-01 1.798E-01 9.422E-03 3.212E-01 2.080E+00 1.719E+04  5.2091 0.99999
  3.500E+04 3.511E+04 1.775E+00 1.588E-01 2.196E-01 1.099E-02 3.895E-01 2.165E+00 1.954E+04  5.4791 1.00000
  4.000E+04 4.011E+04 1.789E+00 1.863E-01 2.607E-01 1.254E-02 4.595E-01 2.248E+00 2.181E+04  5.7162 1.00000
  4.500E+04 4.511E+04 1.801E+00 2.143E-01 3.027E-01 1.406E-02 5.310E-01 2.332E+00 2.399E+04  5.9278 1.00000
  5.000E+04 5.011E+04 1.811E+00 2.428E-01 3.455E-01 1.558E-02 6.038E-01 2.415E+00 2.610E+04  6.1189 1.00000
  5.500E+04 5.511E+04 1.820E+00 2.716E-01 3.890E-01 1.711E-02 6.778E-01 2.498E+00 2.814E+04  6.2931 1.00000
  6.000E+04 6.011E+04 1.829E+00 3.009E-01 4.332E-01 1.862E-02 7.527E-01 2.582E+00 3.011E+04  6.4533 1.00000
  7.000E+04 7.011E+04 1.843E+00 3.603E-01 5.231E-01 2.161E-02 9.051E-01 2.748E+00 3.386E+04  6.7396 1.00000
  8.000E+04 8.011E+04 1.856E+00 4.209E-01 6.148E-01 2.460E-02 1.060E+00 2.916E+00 3.740E+04  6.9900 1.00000
  9.000E+04 9.011E+04 1.866E+00 4.824E-01 7.080E-01 2.758E-02 1.218E+00 3.084E+00 4.073E+04  7.2125 1.00000
  1.000E+05 1.001E+05 1.876E+00 5.447E-01 8.025E-01 3.050E-02 1.378E+00 3.253E+00 4.389E+04  7.4129 1.00000
  1.200E+05 1.201E+05 1.892E+00 6.714E-01 9.944E-01 3.645E-02 1.702E+00 3.594E+00 4.975E+04  7.7623 1.00000
  1.400E+05 1.401E+05 1.905E+00 8.004E-01 1.190E+00 4.238E-02 2.032E+00 3.937E+00 5.507E+04  8.0601 1.00000
  1.700E+05 1.701E+05 1.921E+00 9.974E-01 1.487E+00 5.127E-02 2.536E+00 4.457E+00 6.224E+04  8.4379 1.00000
  2.000E+05 2.001E+05 1.935E+00 1.198E+00 1.789E+00 6.019E-02 3.047E+00 4.982E+00 6.862E+04  8.7562 1.00000
  2.500E+05 2.501E+05 1.954E+00 1.537E+00 2.299E+00 7.508E-02 3.911E+00 5.865E+00 7.790E+04  9.1959 1.00000
  3.000E+05 3.001E+05 1.969E+00 1.882E+00 2.815E+00 9.006E-02 4.787E+00 6.756E+00 8.586E+04  9.5569 1.00000
  3.500E+05 3.501E+05 1.981E+00 2.231E+00 3.336E+00 1.052E-01 5.673E+00 7.654E+00 9.283E+04  9.8632 1.00000
  4.000E+05 4.001E+05 1.992E+00 2.584E+00 3.861E+00 1.204E-01 6.566E+00 8.558E+00 9.902E+04 10.1292 1.00000
  4.500E+05 4.501E+05 2.002E+00 2.940E+00 4.389E+00 1.357E-01 7.465E+00 9.467E+00 1.046E+05 10.3641 1.00000
  5.000E+05 5.001E+05 2.011E+00 3.298E+00 4.919E+00 1.511E-01 8.369E+00 1.038E+01 1.096E+05 10.5745 1.00000
  5.500E+05 5.501E+05 2.018E+00 3.658E+00 5.452E+00 1.663E-01 9.276E+00 1.129E+01 1.143E+05 10.7649 1.00000
  6.000E+05 6.001E+05 2.025E+00 4.021E+00 5.986E+00 1.817E-01 1.019E+01 1.221E+01 1.185E+05 10.9388 1.00000
  7.000E+05 7.001E+05 2.038E+00 4.749E+00 7.058E+00 2.126E-01 1.202E+01 1.406E+01 1.262E+05 11.2471 1.00000
  8.000E+05 8.001E+05 2.049E+00 5.483E+00 8.135E+00 2.439E-01 1.386E+01 1.591E+01 1.329E+05 11.5141 1.00000
  9.000E+05 9.001E+05 2.059E+00 6.222E+00 9.216E+00 2.754E-01 1.571E+01 1.777E+01 1.388E+05 11.7496 1.00000
  1.000E+06 1.000E+06 2.068E+00 6.963E+00 1.030E+01 3.073E-01 1.757E+01 1.964E+01 1.442E+05 11.9603 1.00000
  1.200E+06 1.200E+06 2.083E+00 8.455E+00 1.247E+01 3.717E-01 2.130E+01 2.338E+01 1.535E+05 12.3249 1.00000
  1.400E+06 1.400E+06 2.096E+00 9.956E+00 1.466E+01 4.370E-01 2.505E+01 2.714E+01 1.615E+05 12.6332 1.00000
  1.700E+06 1.700E+06 2.112E+00 1.222E+01 1.794E+01 5.364E-01 3.070E+01 3.281E+01 1.716E+05 13.0215 1.00000
  2.000E+06 2.000E+06 2.126E+00 1.450E+01 2.123E+01 6.374E-01 3.636E+01 3.849E+01 1.801E+05 13.3465 1.00000
  2.500E+06 2.500E+06 2.145E+00 1.831E+01 2.673E+01 8.088E-01 4.585E+01 4.799E+01 1.918E+05 13.7928 1.00000
  3.000E+06 3.000E+06 2.161E+00 2.214E+01 3.224E+01 9.834E-01 5.537E+01 5.753E+01 2.013E+05 14.1574 1.00000
  3.500E+06 3.500E+06 2.174E+00 2.598E+01 3.776E+01 1.161E+00 6.491E+01 6.708E+01 2.094E+05 14.4657 1.00000
  4.000E+06 4.000E+06 2.186E+00 2.984E+01 4.329E+01 1.341E+00 7.447E+01 7.665E+01 2.164E+05 14.7327 1.00000
  4.500E+06 4.500E+06 2.196E+00 3.370E+01 4.882E+01 1.523E+00 8.405E+01 8.624E+01 2.226E+05 14.9683 1.00000
  5.000E+06 5.000E+06 2.206E+00 3.757E+01 5.436E+01 1.707E+00 9.363E+01 9.584E+01 2.281E+05 15.1790 1.00000
  5.500E+06 5.500E+06 2.214E+00 4.144E+01 5.990E+01 1.893E+00 1.032E+02 1.054E+02 2.330E+05 15.3696 1.00000
  6.000E+06 6.000E+06 2.222E+00 4.532E+01 6.545E+01 2.081E+00 1.128E+02 1.151E+02 2.376E+05 15.5437 1.00000
  7.000E+06 7.000E+06 2.235E+00 5.308E+01 7.654E+01 2.461E+00 1.321E+02 1.343E+02 2.457E+05 15.8519 1.00000
  8.000E+06 8.000E+06 2.248E+00 6.086E+01 8.764E+01 2.847E+00 1.513E+02 1.536E+02 2.526E+05 16.1190 1.00000
  9.000E+06 9.000E+06 2.258E+00 6.865E+01 9.875E+01 3.238E+00 1.706E+02 1.729E+02 2.588E+05 16.3546 1.00000
  1.000E+07 1.000E+07 2.268E+00 7.644E+01 1.099E+02 3.634E+00 1.899E+02 1.922E+02 2.643E+05 16.5653 1.00000
  1.200E+07 1.200E+07 2.284E+00 9.205E+01 1.321E+02 4.437E+00 2.286E+02 2.309E+02 2.738E+05 16.9299 1.00000
  1.400E+07 1.400E+07 2.299E+00 1.077E+02 1.543E+02 5.254E+00 2.673E+02 2.696E+02 2.818E+05 17.2382 1.00000
  1.700E+07 1.700E+07 2.317E+00 1.311E+02 1.877E+02 6.504E+00 3.254E+02 3.277E+02 2.920E+05 17.6265 1.00000
  2.000E+07 2.000E+07 2.332E+00 1.546E+02 2.211E+02 7.777E+00 3.835E+02 3.858E+02 3.005E+05 17.9516 1.00000
  2.500E+07 2.500E+07 2.353E+00 1.938E+02 2.768E+02 9.944E+00 4.805E+02 4.829E+02 3.121E+05 18.3979 1.00000
  3.000E+07 3.000E+07 2.370E+00 2.330E+02 3.325E+02 1.216E+01 5.776E+02 5.800E+02 3.216E+05 18.7625 1.00000
  3.500E+07 3.500E+07 2.385E+00 2.722E+02 3.882E+02 1.442E+01 6.748E+02 6.772E+02 3.296E+05 19.0708 1.00000
  4.000E+07 4.000E+07 2.398E+00 3.114E+02 4.439E+02 1.671E+01 7.721E+02 7.745E+02 3.365E+05 19.3379 1.00000
  4.500E+07 4.500E+07 2.410E+00 3.507E+02 4.996E+02 1.903E+01 8.693E+02 8.718E+02 3.426E+05 19.5734 1.00000
  5.000E+07 5.000E+07 2.420E+00 3.899E+02 5.553E+02 2.138E+01 9.667E+02 9.691E+02 3.481E+05 19.7841 1.00000
  5.500E+07 5.500E+07 2.429E+00 4.292E+02 6.111E+02 2.376E+01 1.064E+03 1.066E+03 3.530E+05 19.9748 1.00000
  6.000E+07 6.000E+07 2.438E+00 4.685E+02 6.668E+02 2.617E+01 1.161E+03 1.164E+03 3.575E+05 20.1488 1.00000
  7.000E+07 7.000E+07 2.453E+00 5.470E+02 7.783E+02 3.104E+01 1.356E+03 1.359E+03 3.655E+05 20.4571 1.00000
  8.000E+07 8.000E+07 2.467E+00 6.256E+02 8.897E+02 3.599E+01 1.551E+03 1.554E+03 3.724E+05 20.7242 1.00000
  9.000E+07 9.000E+07 2.479E+00 7.042E+02 1.001E+03 4.101E+01 1.746E+03 1.749E+03 3.784E+05 20.9597 1.00000
  1.000E+08 1.000E+08 2.489E+00 7.828E+02 1.113E+03 4.610E+01 1.942E+03 1.944E+03 3.839E+05 21.1704 1.00000
  1.200E+08 1.200E+08 2.508E+00 9.400E+02 1.336E+03 5.643E+01 2.332E+03 2.335E+03 3.933E+05 21.5351 1.00000
  1.400E+08 1.400E+08 2.524E+00 1.097E+03 1.559E+03 6.697E+01 2.723E+03 2.725E+03 4.012E+05 21.8434 1.00000
  1.700E+08 1.700E+08 2.544E+00 1.333E+03 1.893E+03 8.310E+01 3.309E+03 3.312E+03 4.113E+05 22.2317 1.00000
  2.000E+08 2.000E+08 2.561E+00 1.569E+03 2.228E+03 9.955E+01 3.896E+03 3.899E+03 4.196E+05 22.5567 1.00000
  2.500E+08 2.500E+08 2.584E+00 1.962E+03 2.785E+03 1.276E+02 4.875E+03 4.877E+03 4.312E+05 23.0030 1.00000
  3.000E+08 3.000E+08 2.604E+00 2.355E+03 3.343E+03 1.563E+02 5.854E+03 5.857E+03 4.406E+05 23.3677 1.00000
  3.500E+08 3.500E+08 2.620E+00 2.749E+03 3.900E+03 1.856E+02 6.834E+03 6.837E+03 4.485E+05 23.6760 1.00000
  4.000E+08 4.000E+08 2.635E+00 3.142E+03 4.458E+03 2.153E+02 7.815E+03 7.817E+03 4.554E+05 23.9430 1.00000
  4.500E+08 4.500E+08 2.648E+00 3.535E+03 5.015E+03 2.455E+02 8.796E+03 8.798E+03 4.614E+05 24.1786 1.00000
  5.000E+08 5.000E+08 2.659E+00 3.928E+03 5.573E+03 2.761E+02 9.777E+03 9.780E+03 4.668E+05 24.3893 1.00000
  5.500E+08 5.500E+08 2.670E+00 4.322E+03 6.130E+03 3.070E+02 1.076E+04 1.076E+04 4.717E+05 24.5799 1.00000
  6.000E+08 6.000E+08 2.679E+00 4.715E+03 6.687E+03 3.383E+02 1.174E+04 1.174E+04 4.761E+05 24.7540 1.00000
  7.000E+08 7.000E+08 2.696E+00 5.501E+03 7.802E+03 4.018E+02 1.371E+04 1.371E+04 4.840E+05 25.0623 1.00000
  8.000E+08 8.000E+08 2.711E+00 6.288E+03 8.917E+03 4.663E+02 1.567E+04 1.567E+04 4.909E+05 25.3293 1.00000
  9.000E+08 9.000E+08 2.724E+00 7.075E+03 1.003E+04 5.319E+02 1.764E+04 1.764E+04 4.969E+05 25.5649 1.00000
  1.000E+09 1.000E+09 2.736E+00 7.861E+03 1.115E+04 5.982E+02 1.961E+04 1.961E+04 5.023E+05 25.7756 1.00000
