 Incident particle is a Muon with M = 105.65839 MeV
 Index = 0: BismuthGermanate
      Absorber with <Z/A> = 0.42061
 Sternheimer coef:  a     k=m_s   x_0    x_1    I[eV]   Cbar  delta0
                 0.0957  3.0781  0.0456  3.7816  534.1  5.7409 0.00

 *** Table generated with PUMAS v1.00 ***

      T         p     Ionization  brems     pair     photonuc  Radloss    dE/dx   CSDA Range  delta   beta
    [MeV]    [MeV/c]  -----------------------[MeV cm^2/g]------------------------  [g/cm^2]
  1.000E+00 1.457E+01 2.471E+01 4.378E-06 0.000E+00 0.000E+00 4.378E-06 2.471E+01 2.023E-02  0.0000 0.13661
  1.200E+00 1.597E+01 2.169E+01 5.028E-06 0.000E+00 0.000E+00 5.028E-06 2.169E+01 2.889E-02  0.0000 0.14944
  1.400E+00 1.726E+01 1.940E+01 5.643E-06 0.000E+00 0.000E+00 5.643E-06 1.940E+01 3.866E-02  0.0000 0.16119
  1.700E+00 1.903E+01 1.682E+01 6.512E-06 0.000E+00 0.000E+00 6.512E-06 1.682E+01 5.531E-02  0.0000 0.17725
  2.000E+00 2.066E+01 1.491E+01 7.328E-06 0.000E+00 0.000E+00 7.328E-06 1.491E+01 7.428E-02  0.0000 0.19186
  2.500E+00 2.312E+01 1.263E+01 8.593E-06 0.000E+00 0.000E+00 8.593E-06 1.263E+01 1.108E-01  0.0000 0.21376
  3.000E+00 2.536E+01 1.101E+01 9.761E-06 0.000E+00 0.000E+00 9.761E-06 1.101E+01 1.533E-01  0.0000 0.23336
  3.500E+00 2.742E+01 9.806E+00 1.085E-05 0.000E+00 0.000E+00 1.085E-05 9.806E+00 2.015E-01  0.0000 0.25120
  4.000E+00 2.935E+01 8.869E+00 1.188E-05 0.000E+00 0.000E+00 1.188E-05 8.869E+00 2.552E-01  0.0000 0.26763
  4.500E+00 3.116E+01 8.117E+00 1.285E-05 0.000E+00 0.000E+00 1.285E-05 8.117E+00 3.142E-01  0.0000 0.28290
  5.000E+00 3.289E+01 7.500E+00 1.377E-05 0.000E+00 0.000E+00 1.377E-05 7.500E+00 3.783E-01  0.0000 0.29720
  5.500E+00 3.453E+01 6.984E+00 1.465E-05 0.000E+00 0.000E+00 1.465E-05 6.984E+00 4.475E-01  0.0000 0.31066
  6.000E+00 3.611E+01 6.545E+00 1.549E-05 0.000E+00 0.000E+00 1.549E-05 6.545E+00 5.215E-01  0.0000 0.32339
  7.000E+00 3.909E+01 5.838E+00 1.709E-05 0.000E+00 0.000E+00 1.709E-05 5.838E+00 6.835E-01  0.0000 0.34700
  8.000E+00 4.189E+01 5.292E+00 1.858E-05 0.000E+00 0.000E+00 1.858E-05 5.292E+00 8.636E-01  0.0000 0.36854
  9.000E+00 4.453E+01 4.858E+00 1.997E-05 0.000E+00 0.000E+00 1.997E-05 4.858E+00 1.061E+00  0.0000 0.38836
  1.000E+01 4.704E+01 4.503E+00 2.130E-05 0.000E+00 0.000E+00 2.130E-05 4.503E+00 1.275E+00  0.0000 0.40675
  1.200E+01 5.177E+01 3.957E+00 2.377E-05 0.000E+00 0.000E+00 2.377E-05 3.957E+00 1.750E+00  0.0000 0.43998
  1.400E+01 5.616E+01 3.557E+00 2.605E-05 0.000E+00 0.000E+00 2.605E-05 3.557E+00 2.284E+00  0.0000 0.46937
  1.700E+01 6.230E+01 3.122E+00 2.920E-05 0.000E+00 0.000E+00 2.920E-05 3.122E+00 3.186E+00  0.0000 0.50792
  2.000E+01 6.802E+01 2.811E+00 3.213E-05 0.000E+00 0.000E+00 3.213E-05 2.811E+00 4.200E+00  0.0000 0.54129
  2.500E+01 7.686E+01 2.451E+00 3.665E-05 0.000E+00 0.000E+00 3.665E-05 2.451E+00 6.109E+00  0.0000 0.58827
  3.000E+01 8.509E+01 2.208E+00 4.089E-05 0.000E+00 0.000E+00 4.089E-05 2.208E+00 8.261E+00  0.0000 0.62720
  3.500E+01 9.285E+01 2.032E+00 4.495E-05 0.000E+00 0.000E+00 4.495E-05 2.032E+00 1.062E+01  0.0000 0.66011
  4.000E+01 1.003E+02 1.900E+00 4.890E-05 0.000E+00 0.000E+00 4.890E-05 1.900E+00 1.317E+01  0.0000 0.68834
  4.500E+01 1.074E+02 1.798E+00 5.278E-05 0.000E+00 0.000E+00 5.278E-05 1.798E+00 1.587E+01  0.0000 0.71286
  5.000E+01 1.143E+02 1.717E+00 5.662E-05 0.000E+00 0.000E+00 5.662E-05 1.717E+00 1.872E+01  0.0000 0.73434
  5.500E+01 1.210E+02 1.651E+00 6.045E-05 0.000E+00 0.000E+00 6.045E-05 1.651E+00 2.169E+01  0.0014 0.75332
  6.000E+01 1.276E+02 1.596E+00 6.427E-05 0.000E+00 0.000E+00 6.427E-05 1.596E+00 2.477E+01  0.0039 0.77019
  7.000E+01 1.403E+02 1.512E+00 7.196E-05 0.000E+00 0.000E+00 7.196E-05 1.512E+00 3.121E+01  0.0118 0.79887
  8.000E+01 1.527E+02 1.451E+00 7.976E-05 0.000E+00 0.000E+00 7.976E-05 1.452E+00 3.796E+01  0.0223 0.82227
  9.000E+01 1.647E+02 1.406E+00 8.768E-05 0.000E+00 0.000E+00 8.768E-05 1.406E+00 4.496E+01  0.0346 0.84166
  1.000E+02 1.764E+02 1.371E+00 9.576E-05 0.000E+00 0.000E+00 9.576E-05 1.371E+00 5.216E+01  0.0481 0.85794
  1.200E+02 1.994E+02 1.323E+00 1.124E-04 0.000E+00 0.000E+00 1.124E-04 1.323E+00 6.701E+01  0.0772 0.88361
  1.400E+02 2.218E+02 1.293E+00 1.297E-04 0.000E+00 0.000E+00 1.297E-04 1.294E+00 8.230E+01  0.1080 0.90278
  1.700E+02 2.546E+02 1.268E+00 1.570E-04 7.790E-15 0.000E+00 1.570E-04 1.268E+00 1.057E+02  0.1554 0.92363
  2.000E+02 2.868E+02 1.256E+00 1.859E-04 1.742E-12 0.000E+00 1.859E-04 1.256E+00 1.295E+02  0.2029 0.93835
  2.500E+02 3.396E+02 1.251E+00 2.370E-04 1.430E-08 0.000E+00 2.370E-04 1.251E+00 1.694E+02  0.2805 0.95485
  3.000E+02 3.917E+02 1.255E+00 2.918E-04 1.280E-07 0.000E+00 2.919E-04 1.255E+00 2.093E+02  0.3553 0.96548
  3.500E+02 4.432E+02 1.263E+00 3.499E-04 1.584E-06 0.000E+00 3.515E-04 1.263E+00 2.490E+02  0.4269 0.97274
  4.000E+02 4.945E+02 1.273E+00 4.111E-04 3.235E-06 0.000E+00 4.144E-04 1.273E+00 2.884E+02  0.4953 0.97793
  4.500E+02 5.455E+02 1.284E+00 4.752E-04 5.349E-06 0.000E+00 4.805E-04 1.284E+00 3.275E+02  0.5607 0.98176
  5.000E+02 5.964E+02 1.295E+00 5.418E-04 5.643E-05 0.000E+00 5.982E-04 1.296E+00 3.663E+02  0.6233 0.98467
  5.500E+02 6.471E+02 1.306E+00 6.109E-04 8.550E-05 0.000E+00 6.964E-04 1.307E+00 4.047E+02  0.6833 0.98693
  6.000E+02 6.977E+02 1.317E+00 6.824E-04 1.143E-04 0.000E+00 7.967E-04 1.318E+00 4.428E+02  0.7409 0.98873
  7.000E+02 7.987E+02 1.337E+00 8.317E-04 1.815E-04 0.000E+00 1.013E-03 1.338E+00 5.181E+02  0.8495 0.99136
  8.000E+02 8.995E+02 1.356E+00 9.888E-04 2.620E-04 0.000E+00 1.251E-03 1.357E+00 5.923E+02  0.9504 0.99317
  9.000E+02 1.000E+03 1.374E+00 1.153E-03 3.549E-04 0.000E+00 1.508E-03 1.375E+00 6.655E+02  1.0448 0.99447
  1.000E+03 1.101E+03 1.390E+00 1.324E-03 4.596E-04 0.000E+00 1.783E-03 1.391E+00 7.378E+02  1.1334 0.99542
  1.200E+03 1.301E+03 1.418E+00 1.683E-03 7.015E-04 2.247E-05 2.407E-03 1.420E+00 8.801E+02  1.2961 0.99672
  1.400E+03 1.502E+03 1.443E+00 2.062E-03 9.831E-04 6.102E-05 3.106E-03 1.446E+00 1.020E+03  1.4427 0.99753
  1.700E+03 1.803E+03 1.474E+00 2.665E-03 1.471E-03 1.295E-04 4.266E-03 1.478E+00 1.225E+03  1.6390 0.99829
  2.000E+03 2.103E+03 1.500E+00 3.303E-03 2.029E-03 2.092E-04 5.542E-03 1.506E+00 1.426E+03  1.8131 0.99874
  2.500E+03 2.604E+03 1.537E+00 4.432E-03 3.094E-03 3.618E-04 7.888E-03 1.544E+00 1.754E+03  2.0663 0.99918
  3.000E+03 3.104E+03 1.566E+00 5.631E-03 4.302E-03 5.200E-04 1.045E-02 1.576E+00 2.074E+03  2.2849 0.99942
  3.500E+03 3.604E+03 1.590E+00 6.888E-03 5.634E-03 6.862E-04 1.321E-02 1.603E+00 2.389E+03  2.4776 0.99957
  4.000E+03 4.104E+03 1.611E+00 8.197E-03 7.084E-03 8.626E-04 1.614E-02 1.627E+00 2.698E+03  2.6503 0.99967
  4.500E+03 4.604E+03 1.629E+00 9.550E-03 8.635E-03 1.045E-03 1.923E-02 1.648E+00 3.004E+03  2.8069 0.99974
  5.000E+03 5.105E+03 1.645E+00 1.094E-02 1.027E-02 1.220E-03 2.244E-02 1.668E+00 3.305E+03  2.9502 0.99979
  5.500E+03 5.605E+03 1.659E+00 1.237E-02 1.199E-02 1.408E-03 2.577E-02 1.685E+00 3.604E+03  3.0825 0.99982
  6.000E+03 6.105E+03 1.672E+00 1.384E-02 1.378E-02 1.582E-03 2.919E-02 1.702E+00 3.899E+03  3.2054 0.99985
  7.000E+03 7.105E+03 1.695E+00 1.685E-02 1.755E-02 1.950E-03 3.635E-02 1.731E+00 4.481E+03  3.4280 0.99989
  8.000E+03 8.105E+03 1.714E+00 1.997E-02 2.154E-02 2.314E-03 4.383E-02 1.758E+00 5.055E+03  3.6257 0.99992
  9.000E+03 9.105E+03 1.730E+00 2.318E-02 2.574E-02 2.655E-03 5.157E-02 1.782E+00 5.620E+03  3.8036 0.99993
  1.000E+04 1.011E+04 1.745E+00 2.647E-02 3.011E-02 3.007E-03 5.959E-02 1.804E+00 6.178E+03  3.9656 0.99995
  1.200E+04 1.211E+04 1.769E+00 3.327E-02 3.930E-02 3.716E-03 7.629E-02 1.846E+00 7.274E+03  4.2518 0.99996
  1.400E+04 1.411E+04 1.789E+00 4.031E-02 4.901E-02 4.424E-03 9.375E-02 1.883E+00 8.346E+03  4.4995 0.99997
  1.700E+04 1.711E+04 1.814E+00 5.126E-02 6.437E-02 5.470E-03 1.211E-01 1.935E+00 9.918E+03  4.8184 0.99998
  2.000E+04 2.011E+04 1.834E+00 6.258E-02 8.051E-02 6.492E-03 1.496E-01 1.983E+00 1.145E+04  5.0910 0.99999
  2.500E+04 2.511E+04 1.860E+00 8.214E-02 1.088E-01 8.163E-03 1.991E-01 2.059E+00 1.392E+04  5.4734 0.99999
  3.000E+04 3.011E+04 1.881E+00 1.024E-01 1.385E-01 9.799E-03 2.507E-01 2.132E+00 1.631E+04  5.7922 0.99999
  3.500E+04 3.511E+04 1.898E+00 1.232E-01 1.693E-01 1.145E-02 3.039E-01 2.202E+00 1.862E+04  6.0659 1.00000
  4.000E+04 4.011E+04 1.912E+00 1.445E-01 2.009E-01 1.307E-02 3.586E-01 2.271E+00 2.086E+04  6.3059 1.00000
  4.500E+04 4.511E+04 1.925E+00 1.663E-01 2.334E-01 1.467E-02 4.143E-01 2.339E+00 2.303E+04  6.5198 1.00000
  5.000E+04 5.011E+04 1.936E+00 1.883E-01 2.665E-01 1.627E-02 4.711E-01 2.407E+00 2.513E+04  6.7128 1.00000
  5.500E+04 5.511E+04 1.945E+00 2.108E-01 3.001E-01 1.788E-02 5.287E-01 2.474E+00 2.718E+04  6.8886 1.00000
  6.000E+04 6.011E+04 1.954E+00 2.334E-01 3.342E-01 1.947E-02 5.871E-01 2.541E+00 2.918E+04  7.0501 1.00000
  7.000E+04 7.011E+04 1.969E+00 2.796E-01 4.038E-01 2.263E-02 7.060E-01 2.675E+00 3.301E+04  7.3385 1.00000
  8.000E+04 8.011E+04 1.982E+00 3.266E-01 4.747E-01 2.578E-02 8.271E-01 2.809E+00 3.666E+04  7.5905 1.00000
  9.000E+04 9.011E+04 1.993E+00 3.743E-01 5.468E-01 2.894E-02 9.500E-01 2.943E+00 4.014E+04  7.8143 1.00000
  1.000E+05 1.001E+05 2.003E+00 4.227E-01 6.199E-01 3.203E-02 1.075E+00 3.078E+00 4.346E+04  8.0157 1.00000
  1.200E+05 1.201E+05 2.020E+00 5.210E-01 7.685E-01 3.831E-02 1.328E+00 3.348E+00 4.970E+04  8.3666 1.00000
  1.400E+05 1.401E+05 2.034E+00 6.212E-01 9.196E-01 4.459E-02 1.585E+00 3.620E+00 5.545E+04  8.6655 1.00000
  1.700E+05 1.701E+05 2.052E+00 7.741E-01 1.150E+00 5.401E-02 1.978E+00 4.030E+00 6.332E+04  9.0444 1.00000
  2.000E+05 2.001E+05 2.066E+00 9.297E-01 1.384E+00 6.346E-02 2.377E+00 4.443E+00 7.041E+04  9.3635 1.00000
  2.500E+05 2.501E+05 2.086E+00 1.193E+00 1.779E+00 7.925E-02 3.052E+00 5.138E+00 8.091E+04  9.8040 1.00000
  3.000E+05 3.001E+05 2.101E+00 1.461E+00 2.180E+00 9.515E-02 3.737E+00 5.838E+00 9.005E+04 10.1656 1.00000
  3.500E+05 3.501E+05 2.115E+00 1.733E+00 2.584E+00 1.112E-01 4.428E+00 6.543E+00 9.816E+04 10.4722 1.00000
  4.000E+05 4.001E+05 2.126E+00 2.007E+00 2.992E+00 1.274E-01 5.126E+00 7.253E+00 1.054E+05 10.7384 1.00000
  4.500E+05 4.501E+05 2.137E+00 2.284E+00 3.401E+00 1.436E-01 5.829E+00 7.965E+00 1.120E+05 10.9734 1.00000
  5.000E+05 5.001E+05 2.146E+00 2.562E+00 3.813E+00 1.599E-01 6.535E+00 8.681E+00 1.180E+05 11.1839 1.00000
  5.500E+05 5.501E+05 2.154E+00 2.842E+00 4.226E+00 1.762E-01 7.245E+00 9.399E+00 1.236E+05 11.3744 1.00000
  6.000E+05 6.001E+05 2.162E+00 3.124E+00 4.641E+00 1.925E-01 7.957E+00 1.012E+01 1.287E+05 11.5484 1.00000
  7.000E+05 7.001E+05 2.175E+00 3.691E+00 5.474E+00 2.254E-01 9.390E+00 1.156E+01 1.380E+05 11.8567 1.00000
  8.000E+05 8.001E+05 2.187E+00 4.262E+00 6.310E+00 2.586E-01 1.083E+01 1.302E+01 1.461E+05 12.1237 1.00000
  9.000E+05 9.001E+05 2.197E+00 4.836E+00 7.150E+00 2.921E-01 1.228E+01 1.447E+01 1.534E+05 12.3592 1.00000
  1.000E+06 1.000E+06 2.206E+00 5.413E+00 7.992E+00 3.260E-01 1.373E+01 1.594E+01 1.600E+05 12.5699 1.00000
  1.200E+06 1.200E+06 2.222E+00 6.574E+00 9.681E+00 3.945E-01 1.665E+01 1.887E+01 1.716E+05 12.9345 1.00000
  1.400E+06 1.400E+06 2.236E+00 7.742E+00 1.138E+01 4.639E-01 1.958E+01 2.182E+01 1.815E+05 13.2428 1.00000
  1.700E+06 1.700E+06 2.253E+00 9.505E+00 1.393E+01 5.697E-01 2.400E+01 2.626E+01 1.941E+05 13.6311 1.00000
  2.000E+06 2.000E+06 2.268E+00 1.128E+01 1.649E+01 6.772E-01 2.844E+01 3.071E+01 2.047E+05 13.9561 1.00000
  2.500E+06 2.500E+06 2.288E+00 1.425E+01 2.076E+01 8.595E-01 3.587E+01 3.816E+01 2.194E+05 14.4024 1.00000
  3.000E+06 3.000E+06 2.305E+00 1.723E+01 2.505E+01 1.045E+00 4.332E+01 4.563E+01 2.314E+05 14.7670 1.00000
  3.500E+06 3.500E+06 2.319E+00 2.022E+01 2.934E+01 1.234E+00 5.080E+01 5.312E+01 2.416E+05 15.0753 1.00000
  4.000E+06 4.000E+06 2.331E+00 2.322E+01 3.364E+01 1.426E+00 5.829E+01 6.062E+01 2.504E+05 15.3423 1.00000
  4.500E+06 4.500E+06 2.342E+00 2.623E+01 3.794E+01 1.620E+00 6.579E+01 6.814E+01 2.582E+05 15.5779 1.00000
  5.000E+06 5.000E+06 2.352E+00 2.925E+01 4.225E+01 1.816E+00 7.331E+01 7.566E+01 2.652E+05 15.7886 1.00000
  5.500E+06 5.500E+06 2.361E+00 3.226E+01 4.656E+01 2.014E+00 8.083E+01 8.319E+01 2.715E+05 15.9792 1.00000
  6.000E+06 6.000E+06 2.369E+00 3.529E+01 5.087E+01 2.214E+00 8.836E+01 9.073E+01 2.772E+05 16.1533 1.00000
  7.000E+06 7.000E+06 2.384E+00 4.134E+01 5.949E+01 2.618E+00 1.034E+02 1.058E+02 2.875E+05 16.4615 1.00000
  8.000E+06 8.000E+06 2.397E+00 4.740E+01 6.813E+01 3.029E+00 1.186E+02 1.210E+02 2.963E+05 16.7286 1.00000
  9.000E+06 9.000E+06 2.408E+00 5.347E+01 7.677E+01 3.445E+00 1.337E+02 1.361E+02 3.041E+05 16.9642 1.00000
  1.000E+07 1.000E+07 2.418E+00 5.954E+01 8.541E+01 3.866E+00 1.488E+02 1.512E+02 3.111E+05 17.1749 1.00000
  1.200E+07 1.200E+07 2.436E+00 7.171E+01 1.027E+02 4.721E+00 1.791E+02 1.816E+02 3.232E+05 17.5395 1.00000
  1.400E+07 1.400E+07 2.451E+00 8.389E+01 1.200E+02 5.592E+00 2.095E+02 2.119E+02 3.335E+05 17.8478 1.00000
  1.700E+07 1.700E+07 2.470E+00 1.022E+02 1.460E+02 6.922E+00 2.551E+02 2.575E+02 3.464E+05 18.2361 1.00000
  2.000E+07 2.000E+07 2.486E+00 1.205E+02 1.719E+02 8.277E+00 3.007E+02 3.032E+02 3.571E+05 18.5612 1.00000
  2.500E+07 2.500E+07 2.508E+00 1.510E+02 2.152E+02 1.058E+01 3.769E+02 3.794E+02 3.720E+05 19.0075 1.00000
  3.000E+07 3.000E+07 2.527E+00 1.816E+02 2.586E+02 1.294E+01 4.531E+02 4.556E+02 3.840E+05 19.3721 1.00000
  3.500E+07 3.500E+07 2.543E+00 2.122E+02 3.019E+02 1.534E+01 5.294E+02 5.319E+02 3.942E+05 19.6804 1.00000
  4.000E+07 4.000E+07 2.556E+00 2.428E+02 3.452E+02 1.778E+01 6.058E+02 6.083E+02 4.030E+05 19.9475 1.00000
  4.500E+07 4.500E+07 2.568E+00 2.734E+02 3.886E+02 2.026E+01 6.822E+02 6.847E+02 4.108E+05 20.1830 1.00000
  5.000E+07 5.000E+07 2.579E+00 3.040E+02 4.319E+02 2.276E+01 7.586E+02 7.612E+02 4.177E+05 20.3937 1.00000
  5.500E+07 5.500E+07 2.589E+00 3.346E+02 4.753E+02 2.530E+01 8.351E+02 8.377E+02 4.240E+05 20.5844 1.00000
  6.000E+07 6.000E+07 2.598E+00 3.652E+02 5.186E+02 2.785E+01 9.117E+02 9.143E+02 4.297E+05 20.7584 1.00000
  7.000E+07 7.000E+07 2.615E+00 4.265E+02 6.053E+02 3.304E+01 1.065E+03 1.067E+03 4.399E+05 21.0667 1.00000
  8.000E+07 8.000E+07 2.629E+00 4.877E+02 6.920E+02 3.831E+01 1.218E+03 1.221E+03 4.487E+05 21.3338 1.00000
  9.000E+07 9.000E+07 2.641E+00 5.490E+02 7.787E+02 4.366E+01 1.371E+03 1.374E+03 4.564E+05 21.5693 1.00000
  1.000E+08 1.000E+08 2.653E+00 6.103E+02 8.654E+02 4.907E+01 1.525E+03 1.527E+03 4.633E+05 21.7800 1.00000
  1.200E+08 1.200E+08 2.672E+00 7.329E+02 1.039E+03 6.008E+01 1.832E+03 1.835E+03 4.753E+05 22.1447 1.00000
  1.400E+08 1.400E+08 2.689E+00 8.555E+02 1.212E+03 7.130E+01 2.139E+03 2.142E+03 4.854E+05 22.4530 1.00000
  1.700E+08 1.700E+08 2.710E+00 1.039E+03 1.473E+03 8.846E+01 2.600E+03 2.603E+03 4.982E+05 22.8413 1.00000
  2.000E+08 2.000E+08 2.728E+00 1.223E+03 1.733E+03 1.060E+02 3.062E+03 3.065E+03 5.088E+05 23.1663 1.00000
  2.500E+08 2.500E+08 2.753E+00 1.530E+03 2.166E+03 1.358E+02 3.832E+03 3.835E+03 5.235E+05 23.6126 1.00000
  3.000E+08 3.000E+08 2.774E+00 1.837E+03 2.600E+03 1.664E+02 4.603E+03 4.606E+03 5.355E+05 23.9773 1.00000
  3.500E+08 3.500E+08 2.791E+00 2.143E+03 3.034E+03 1.976E+02 5.374E+03 5.377E+03 5.455E+05 24.2856 1.00000
  4.000E+08 4.000E+08 2.807E+00 2.450E+03 3.467E+03 2.292E+02 6.146E+03 6.149E+03 5.543E+05 24.5526 1.00000
  4.500E+08 4.500E+08 2.820E+00 2.757E+03 3.901E+03 2.614E+02 6.919E+03 6.922E+03 5.619E+05 24.7882 1.00000
  5.000E+08 5.000E+08 2.833E+00 3.063E+03 4.335E+03 2.939E+02 7.692E+03 7.695E+03 5.688E+05 24.9989 1.00000
  5.500E+08 5.500E+08 2.844E+00 3.370E+03 4.768E+03 3.269E+02 8.465E+03 8.468E+03 5.750E+05 25.1895 1.00000
  6.000E+08 6.000E+08 2.854E+00 3.677E+03 5.202E+03 3.602E+02 9.239E+03 9.242E+03 5.807E+05 25.3636 1.00000
  7.000E+08 7.000E+08 2.872E+00 4.290E+03 6.069E+03 4.278E+02 1.079E+04 1.079E+04 5.907E+05 25.6719 1.00000
  8.000E+08 8.000E+08 2.888E+00 4.903E+03 6.936E+03 4.965E+02 1.234E+04 1.234E+04 5.994E+05 25.9389 1.00000
  9.000E+08 9.000E+08 2.902E+00 5.517E+03 7.803E+03 5.662E+02 1.389E+04 1.389E+04 6.070E+05 26.1745 1.00000
  1.000E+09 1.000E+09 2.914E+00 6.130E+03 8.671E+03 6.369E+02 1.544E+04 1.544E+04 6.139E+05 26.3852 1.00000
