 Incident particle is a Muon with M = 105.65839 MeV
 Index = 0: Boron
      Absorber with <Z/A> = 0.46224
 Sternheimer coef:  a     k=m_s   x_0    x_1    I[eV]   Cbar  delta0
                 0.5622  2.4512  0.0305  1.9688   76.0  2.8477 0.14

 *** Table generated with PUMAS v1.00 ***

      T         p     Ionization  brems     pair     photonuc  Radloss    dE/dx   CSDA Range  delta   beta
    [MeV]    [MeV/c]  -----------------------[MeV cm^2/g]------------------------  [g/cm^2]
  1.000E+00 1.457E+01 4.198E+01 5.165E-07 0.000E+00 0.000E+00 5.165E-07 4.198E+01 1.191E-02  0.0023 0.13661
  1.200E+00 1.597E+01 3.622E+01 5.909E-07 0.000E+00 0.000E+00 5.909E-07 3.622E+01 1.705E-02  0.0028 0.14944
  1.400E+00 1.726E+01 3.196E+01 6.619E-07 0.000E+00 0.000E+00 6.619E-07 3.196E+01 2.294E-02  0.0032 0.16119
  1.700E+00 1.903E+01 2.729E+01 7.633E-07 0.000E+00 0.000E+00 7.633E-07 2.729E+01 3.313E-02  0.0039 0.17725
  2.000E+00 2.066E+01 2.390E+01 8.596E-07 0.000E+00 0.000E+00 8.596E-07 2.390E+01 4.491E-02  0.0046 0.19186
  2.500E+00 2.312E+01 1.992E+01 1.011E-06 0.000E+00 0.000E+00 1.011E-06 1.992E+01 6.792E-02  0.0058 0.21376
  3.000E+00 2.536E+01 1.718E+01 1.152E-06 0.000E+00 0.000E+00 1.152E-06 1.718E+01 9.502E-02  0.0070 0.23336
  3.500E+00 2.742E+01 1.515E+01 1.286E-06 0.000E+00 0.000E+00 1.286E-06 1.515E+01 1.261E-01  0.0082 0.25120
  4.000E+00 2.935E+01 1.360E+01 1.413E-06 0.000E+00 0.000E+00 1.413E-06 1.360E+01 1.610E-01  0.0094 0.26763
  4.500E+00 3.116E+01 1.237E+01 1.535E-06 0.000E+00 0.000E+00 1.535E-06 1.237E+01 1.995E-01  0.0106 0.28290
  5.000E+00 3.289E+01 1.137E+01 1.651E-06 0.000E+00 0.000E+00 1.651E-06 1.137E+01 2.417E-01  0.0118 0.29720
  5.500E+00 3.453E+01 1.053E+01 1.764E-06 0.000E+00 0.000E+00 1.764E-06 1.053E+01 2.875E-01  0.0130 0.31066
  6.000E+00 3.611E+01 9.830E+00 1.872E-06 0.000E+00 0.000E+00 1.872E-06 9.830E+00 3.366E-01  0.0142 0.32339
  7.000E+00 3.909E+01 8.705E+00 2.079E-06 0.000E+00 0.000E+00 2.079E-06 8.705E+00 4.450E-01  0.0167 0.34700
  8.000E+00 4.189E+01 7.844E+00 2.274E-06 0.000E+00 0.000E+00 2.274E-06 7.844E+00 5.661E-01  0.0191 0.36854
  9.000E+00 4.453E+01 7.163E+00 2.459E-06 0.000E+00 0.000E+00 2.459E-06 7.163E+00 6.997E-01  0.0216 0.38836
  1.000E+01 4.704E+01 6.611E+00 2.636E-06 0.000E+00 0.000E+00 2.636E-06 6.611E+00 8.451E-01  0.0241 0.40675
  1.200E+01 5.177E+01 5.768E+00 2.969E-06 0.000E+00 0.000E+00 2.969E-06 5.768E+00 1.170E+00  0.0292 0.43998
  1.400E+01 5.616E+01 5.154E+00 3.279E-06 0.000E+00 0.000E+00 3.279E-06 5.154E+00 1.537E+00  0.0344 0.46937
  1.700E+01 6.230E+01 4.493E+00 3.713E-06 0.000E+00 0.000E+00 3.713E-06 4.493E+00 2.162E+00  0.0423 0.50792
  2.000E+01 6.802E+01 4.022E+00 4.118E-06 0.000E+00 0.000E+00 4.118E-06 4.022E+00 2.869E+00  0.0504 0.54129
  2.500E+01 7.686E+01 3.481E+00 4.747E-06 0.000E+00 0.000E+00 4.747E-06 3.481E+00 4.209E+00  0.0644 0.58827
  3.000E+01 8.509E+01 3.116E+00 5.336E-06 0.000E+00 0.000E+00 5.336E-06 3.116E+00 5.730E+00  0.0789 0.62720
  3.500E+01 9.285E+01 2.853E+00 5.900E-06 0.000E+00 0.000E+00 5.900E-06 2.853E+00 7.408E+00  0.0939 0.66011
  4.000E+01 1.003E+02 2.656E+00 6.446E-06 0.000E+00 0.000E+00 6.446E-06 2.656E+00 9.226E+00  0.1095 0.68834
  4.500E+01 1.074E+02 2.503E+00 6.981E-06 0.000E+00 0.000E+00 6.981E-06 2.503E+00 1.117E+01  0.1257 0.71286
  5.000E+01 1.143E+02 2.381E+00 7.509E-06 0.000E+00 0.000E+00 7.509E-06 2.381E+00 1.321E+01  0.1437 0.73434
  5.500E+01 1.210E+02 2.281E+00 8.032E-06 0.000E+00 0.000E+00 8.032E-06 2.281E+00 1.536E+01  0.1696 0.75332
  6.000E+01 1.276E+02 2.198E+00 8.553E-06 0.000E+00 0.000E+00 8.553E-06 2.198E+00 1.759E+01  0.1951 0.77019
  7.000E+01 1.403E+02 2.070E+00 9.595E-06 0.000E+00 0.000E+00 9.595E-06 2.070E+00 2.228E+01  0.2446 0.79887
  8.000E+01 1.527E+02 1.976E+00 1.064E-05 0.000E+00 0.000E+00 1.064E-05 1.976E+00 2.723E+01  0.2922 0.82227
  9.000E+01 1.647E+02 1.905E+00 1.170E-05 0.000E+00 0.000E+00 1.170E-05 1.905E+00 3.238E+01  0.3379 0.84166
  1.000E+02 1.764E+02 1.851E+00 1.278E-05 0.000E+00 0.000E+00 1.278E-05 1.851E+00 3.771E+01  0.3821 0.85794
  1.200E+02 1.994E+02 1.773E+00 1.499E-05 0.000E+00 0.000E+00 1.499E-05 1.773E+00 4.875E+01  0.4659 0.88361
  1.400E+02 2.218E+02 1.723E+00 1.727E-05 0.000E+00 0.000E+00 1.727E-05 1.723E+00 6.020E+01  0.5447 0.90278
  1.700E+02 2.546E+02 1.676E+00 2.083E-05 3.069E-14 0.000E+00 2.083E-05 1.676E+00 7.785E+01  0.6549 0.92363
  2.000E+02 2.868E+02 1.650E+00 2.457E-05 6.849E-12 0.000E+00 2.457E-05 1.650E+00 9.589E+01  0.7571 0.93835
  2.500E+02 3.396E+02 1.629E+00 3.116E-05 5.671E-08 0.000E+00 3.122E-05 1.629E+00 1.264E+02  0.9131 0.95485
  3.000E+02 3.917E+02 1.622E+00 3.817E-05 4.923E-07 0.000E+00 3.867E-05 1.623E+00 1.571E+02  1.0548 0.96548
  3.500E+02 4.432E+02 1.623E+00 4.557E-05 1.347E-06 0.000E+00 4.692E-05 1.624E+00 1.880E+02  1.1849 0.97274
  4.000E+02 4.945E+02 1.628E+00 5.331E-05 2.600E-06 0.000E+00 5.591E-05 1.628E+00 2.187E+02  1.3055 0.97793
  4.500E+02 5.455E+02 1.635E+00 6.138E-05 4.237E-06 0.000E+00 6.562E-05 1.635E+00 2.493E+02  1.4181 0.98176
  5.000E+02 5.964E+02 1.643E+00 6.975E-05 6.245E-06 0.000E+00 7.599E-05 1.643E+00 2.799E+02  1.5238 0.98467
  5.500E+02 6.471E+02 1.651E+00 7.840E-05 8.609E-06 0.000E+00 8.701E-05 1.651E+00 3.102E+02  1.6234 0.98693
  6.000E+02 6.977E+02 1.659E+00 8.731E-05 1.132E-05 0.000E+00 9.863E-05 1.659E+00 3.404E+02  1.7177 0.98873
  7.000E+02 7.987E+02 1.676E+00 1.058E-04 1.773E-05 0.000E+00 1.236E-04 1.676E+00 4.004E+02  1.8928 0.99136
  8.000E+02 8.995E+02 1.692E+00 1.253E-04 2.538E-05 0.000E+00 1.507E-04 1.692E+00 4.598E+02  2.0526 0.99317
  9.000E+02 1.000E+03 1.706E+00 1.455E-04 3.421E-05 0.000E+00 1.797E-04 1.707E+00 5.186E+02  2.1997 0.99447
  1.000E+03 1.101E+03 1.720E+00 1.665E-04 4.413E-05 0.000E+00 2.106E-04 1.720E+00 5.770E+02  2.3363 0.99542
  1.200E+03 1.301E+03 1.745E+00 2.103E-04 6.702E-05 2.256E-05 2.999E-04 1.745E+00 6.924E+02  2.5833 0.99672
  1.400E+03 1.502E+03 1.767E+00 2.566E-04 9.361E-05 6.183E-05 4.120E-04 1.767E+00 8.063E+02  2.8025 0.99753
  1.700E+03 1.803E+03 1.794E+00 3.297E-04 1.397E-04 1.328E-04 6.021E-04 1.795E+00 9.748E+02  3.0917 0.99829
  2.000E+03 2.103E+03 1.817E+00 4.068E-04 1.923E-04 2.166E-04 8.157E-04 1.818E+00 1.141E+03  3.3447 0.99874
  2.500E+03 2.604E+03 1.849E+00 5.427E-04 2.927E-04 3.793E-04 1.215E-03 1.850E+00 1.413E+03  3.7072 0.99918
  3.000E+03 3.104E+03 1.875E+00 6.866E-04 4.068E-04 5.508E-04 1.644E-03 1.876E+00 1.682E+03  4.0159 0.99942
  3.500E+03 3.604E+03 1.896E+00 8.374E-04 5.325E-04 7.331E-04 2.103E-03 1.898E+00 1.947E+03  4.2850 0.99957
  4.000E+03 4.104E+03 1.914E+00 9.941E-04 6.816E-04 9.284E-04 2.604E-03 1.917E+00 2.209E+03  4.5237 0.99967
  4.500E+03 4.604E+03 1.930E+00 1.156E-03 8.456E-04 1.132E-03 3.133E-03 1.933E+00 2.469E+03  4.7384 0.99974
  5.000E+03 5.105E+03 1.944E+00 1.323E-03 1.019E-03 1.328E-03 3.670E-03 1.948E+00 2.726E+03  4.9335 0.99979
  5.500E+03 5.605E+03 1.956E+00 1.494E-03 1.202E-03 1.539E-03 4.236E-03 1.961E+00 2.982E+03  5.1123 0.99982
  6.000E+03 6.105E+03 1.968E+00 1.669E-03 1.394E-03 1.737E-03 4.799E-03 1.972E+00 3.236E+03  5.2774 0.99985
  7.000E+03 7.105E+03 1.987E+00 2.030E-03 1.799E-03 2.155E-03 5.984E-03 1.993E+00 3.741E+03  5.5736 0.99989
  8.000E+03 8.105E+03 2.004E+00 2.403E-03 2.231E-03 2.572E-03 7.207E-03 2.011E+00 4.240E+03  5.8336 0.99992
  9.000E+03 9.105E+03 2.018E+00 2.788E-03 2.687E-03 2.965E-03 8.440E-03 2.026E+00 4.736E+03  6.0652 0.99993
  1.000E+04 1.011E+04 2.030E+00 3.183E-03 3.165E-03 3.371E-03 9.719E-03 2.040E+00 5.228E+03  6.2735 0.99995
  1.200E+04 1.211E+04 2.052E+00 4.000E-03 4.175E-03 4.196E-03 1.237E-02 2.064E+00 6.202E+03  6.6347 0.99996
  1.400E+04 1.411E+04 2.070E+00 4.848E-03 5.249E-03 5.024E-03 1.512E-02 2.085E+00 7.166E+03  6.9405 0.99997
  1.700E+04 1.711E+04 2.092E+00 6.168E-03 6.960E-03 6.254E-03 1.938E-02 2.112E+00 8.596E+03  7.3262 0.99998
  2.000E+04 2.011E+04 2.110E+00 7.538E-03 8.773E-03 7.464E-03 2.377E-02 2.134E+00 1.001E+04  7.6494 0.99999
  2.500E+04 2.511E+04 2.135E+00 9.911E-03 1.198E-02 9.457E-03 3.134E-02 2.166E+00 1.233E+04  8.0936 0.99999
  3.000E+04 3.011E+04 2.155E+00 1.238E-02 1.536E-02 1.142E-02 3.916E-02 2.194E+00 1.463E+04  8.4568 0.99999
  3.500E+04 3.511E+04 2.171E+00 1.492E-02 1.891E-02 1.340E-02 4.723E-02 2.218E+00 1.689E+04  8.7641 1.00000
  4.000E+04 4.011E+04 2.185E+00 1.753E-02 2.257E-02 1.537E-02 5.547E-02 2.240E+00 1.914E+04  9.0304 1.00000
  4.500E+04 4.511E+04 2.197E+00 2.020E-02 2.635E-02 1.731E-02 6.386E-02 2.261E+00 2.136E+04  9.2654 1.00000
  5.000E+04 5.011E+04 2.208E+00 2.292E-02 3.022E-02 1.926E-02 7.239E-02 2.280E+00 2.356E+04  9.4757 1.00000
  5.500E+04 5.511E+04 2.217E+00 2.568E-02 3.417E-02 2.122E-02 8.107E-02 2.299E+00 2.574E+04  9.6659 1.00000
  6.000E+04 6.011E+04 2.226E+00 2.848E-02 3.820E-02 2.316E-02 8.985E-02 2.316E+00 2.791E+04  9.8396 1.00000
  7.000E+04 7.011E+04 2.242E+00 3.420E-02 4.645E-02 2.702E-02 1.077E-01 2.349E+00 3.220E+04 10.1474 1.00000
  8.000E+04 8.011E+04 2.255E+00 4.003E-02 5.493E-02 3.090E-02 1.259E-01 2.381E+00 3.643E+04 10.4141 1.00000
  9.000E+04 9.011E+04 2.266E+00 4.598E-02 6.359E-02 3.478E-02 1.443E-01 2.411E+00 4.060E+04 10.6494 1.00000
  1.000E+05 1.001E+05 2.276E+00 5.202E-02 7.241E-02 3.859E-02 1.630E-01 2.439E+00 4.473E+04 10.8598 1.00000
  1.200E+05 1.201E+05 2.294E+00 6.434E-02 9.046E-02 4.636E-02 2.012E-01 2.495E+00 5.283E+04 11.2241 1.00000
  1.400E+05 1.401E+05 2.309E+00 7.694E-02 1.089E-01 5.413E-02 2.400E-01 2.549E+00 6.076E+04 11.5322 1.00000
  1.700E+05 1.701E+05 2.327E+00 9.625E-02 1.373E-01 6.582E-02 2.994E-01 2.627E+00 7.236E+04 11.9202 1.00000
  2.000E+05 2.001E+05 2.343E+00 1.160E-01 1.663E-01 7.758E-02 3.599E-01 2.703E+00 8.362E+04 12.2451 1.00000
  2.500E+05 2.501E+05 2.364E+00 1.496E-01 2.157E-01 9.726E-02 4.625E-01 2.826E+00 1.017E+05 12.6912 1.00000
  3.000E+05 3.001E+05 2.381E+00 1.839E-01 2.661E-01 1.171E-01 5.671E-01 2.948E+00 1.190E+05 13.0557 1.00000
  3.500E+05 3.501E+05 2.396E+00 2.188E-01 3.172E-01 1.372E-01 6.732E-01 3.069E+00 1.357E+05 13.3639 1.00000
  4.000E+05 4.001E+05 2.408E+00 2.541E-01 3.689E-01 1.574E-01 7.804E-01 3.189E+00 1.517E+05 13.6308 1.00000
  4.500E+05 4.501E+05 2.419E+00 2.898E-01 4.211E-01 1.777E-01 8.887E-01 3.308E+00 1.671E+05 13.8664 1.00000
  5.000E+05 5.001E+05 2.430E+00 3.259E-01 4.738E-01 1.982E-01 9.979E-01 3.427E+00 1.819E+05 14.0770 1.00000
  5.500E+05 5.501E+05 2.439E+00 3.623E-01 5.267E-01 2.186E-01 1.108E+00 3.546E+00 1.962E+05 14.2676 1.00000
  6.000E+05 6.001E+05 2.447E+00 3.990E-01 5.800E-01 2.391E-01 1.218E+00 3.665E+00 2.101E+05 14.4416 1.00000
  7.000E+05 7.001E+05 2.462E+00 4.730E-01 6.873E-01 2.804E-01 1.441E+00 3.902E+00 2.366E+05 14.7499 1.00000
  8.000E+05 8.001E+05 2.474E+00 5.478E-01 7.954E-01 3.222E-01 1.665E+00 4.140E+00 2.615E+05 15.0169 1.00000
  9.000E+05 9.001E+05 2.486E+00 6.232E-01 9.042E-01 3.644E-01 1.892E+00 4.378E+00 2.850E+05 15.2524 1.00000
  1.000E+06 1.000E+06 2.496E+00 6.992E-01 1.014E+00 4.070E-01 2.120E+00 4.616E+00 3.072E+05 15.4631 1.00000
  1.200E+06 1.200E+06 2.514E+00 8.525E-01 1.234E+00 4.932E-01 2.579E+00 5.093E+00 3.485E+05 15.8277 1.00000
  1.400E+06 1.400E+06 2.529E+00 1.007E+00 1.455E+00 5.806E-01 3.043E+00 5.571E+00 3.861E+05 16.1360 1.00000
  1.700E+06 1.700E+06 2.548E+00 1.241E+00 1.789E+00 7.139E-01 3.744E+00 6.292E+00 4.369E+05 16.5243 1.00000
  2.000E+06 2.000E+06 2.564E+00 1.478E+00 2.125E+00 8.493E-01 4.452E+00 7.016E+00 4.821E+05 16.8493 1.00000
  2.500E+06 2.500E+06 2.586E+00 1.875E+00 2.687E+00 1.079E+00 5.641E+00 8.227E+00 5.481E+05 17.2956 1.00000
  3.000E+06 3.000E+06 2.604E+00 2.275E+00 3.252E+00 1.314E+00 6.841E+00 9.445E+00 6.050E+05 17.6602 1.00000
  3.500E+06 3.500E+06 2.620E+00 2.678E+00 3.819E+00 1.552E+00 8.049E+00 1.067E+01 6.549E+05 17.9685 1.00000
  4.000E+06 4.000E+06 2.634E+00 3.083E+00 4.387E+00 1.793E+00 9.263E+00 1.190E+01 6.993E+05 18.2355 1.00000
  4.500E+06 4.500E+06 2.646E+00 3.490E+00 4.956E+00 2.038E+00 1.048E+01 1.313E+01 7.394E+05 18.4711 1.00000
  5.000E+06 5.000E+06 2.656E+00 3.898E+00 5.526E+00 2.285E+00 1.171E+01 1.436E+01 7.758E+05 18.6818 1.00000
  5.500E+06 5.500E+06 2.666E+00 4.306E+00 6.096E+00 2.535E+00 1.294E+01 1.560E+01 8.092E+05 18.8724 1.00000
  6.000E+06 6.000E+06 2.675E+00 4.716E+00 6.667E+00 2.788E+00 1.417E+01 1.685E+01 8.401E+05 19.0465 1.00000
  7.000E+06 7.000E+06 2.691E+00 5.538E+00 7.811E+00 3.298E+00 1.665E+01 1.934E+01 8.956E+05 19.3547 1.00000
  8.000E+06 8.000E+06 2.705E+00 6.363E+00 8.957E+00 3.817E+00 1.914E+01 2.184E+01 9.444E+05 19.6218 1.00000
  9.000E+06 9.000E+06 2.718E+00 7.190E+00 1.010E+01 4.342E+00 2.164E+01 2.435E+01 9.878E+05 19.8574 1.00000
  1.000E+07 1.000E+07 2.729E+00 8.018E+00 1.125E+01 4.874E+00 2.414E+01 2.687E+01 1.027E+06 20.0681 1.00000
  1.200E+07 1.200E+07 2.748E+00 9.679E+00 1.355E+01 5.953E+00 2.918E+01 3.193E+01 1.095E+06 20.4327 1.00000
  1.400E+07 1.400E+07 2.765E+00 1.134E+01 1.585E+01 7.052E+00 3.424E+01 3.701E+01 1.154E+06 20.7410 1.00000
  1.700E+07 1.700E+07 2.786E+00 1.385E+01 1.930E+01 8.731E+00 4.188E+01 4.466E+01 1.228E+06 21.1293 1.00000
  2.000E+07 2.000E+07 2.804E+00 1.636E+01 2.275E+01 1.044E+01 4.955E+01 5.236E+01 1.290E+06 21.4544 1.00000
  2.500E+07 2.500E+07 2.828E+00 2.055E+01 2.852E+01 1.336E+01 6.242E+01 6.525E+01 1.376E+06 21.9007 1.00000
  3.000E+07 3.000E+07 2.848E+00 2.474E+01 3.428E+01 1.633E+01 7.536E+01 7.821E+01 1.447E+06 22.2653 1.00000
  3.500E+07 3.500E+07 2.866E+00 2.895E+01 4.005E+01 1.937E+01 8.836E+01 9.123E+01 1.506E+06 22.5736 1.00000
  4.000E+07 4.000E+07 2.881E+00 3.316E+01 4.582E+01 2.245E+01 1.014E+02 1.043E+02 1.557E+06 22.8407 1.00000
  4.500E+07 4.500E+07 2.894E+00 3.737E+01 5.159E+01 2.557E+01 1.145E+02 1.174E+02 1.603E+06 23.0762 1.00000
  5.000E+07 5.000E+07 2.906E+00 4.158E+01 5.736E+01 2.874E+01 1.277E+02 1.306E+02 1.643E+06 23.2869 1.00000
  5.500E+07 5.500E+07 2.917E+00 4.579E+01 6.313E+01 3.194E+01 1.409E+02 1.438E+02 1.679E+06 23.4776 1.00000
  6.000E+07 6.000E+07 2.927E+00 5.001E+01 6.890E+01 3.517E+01 1.541E+02 1.570E+02 1.713E+06 23.6516 1.00000
  7.000E+07 7.000E+07 2.945E+00 5.845E+01 8.045E+01 4.172E+01 1.806E+02 1.836E+02 1.772E+06 23.9599 1.00000
  8.000E+07 8.000E+07 2.960E+00 6.690E+01 9.200E+01 4.838E+01 2.073E+02 2.102E+02 1.823E+06 24.2270 1.00000
  9.000E+07 9.000E+07 2.974E+00 7.534E+01 1.036E+02 5.513E+01 2.340E+02 2.370E+02 1.868E+06 24.4625 1.00000
  1.000E+08 1.000E+08 2.987E+00 8.379E+01 1.151E+02 6.197E+01 2.609E+02 2.638E+02 1.908E+06 24.6732 1.00000
  1.200E+08 1.200E+08 3.008E+00 1.007E+02 1.382E+02 7.587E+01 3.148E+02 3.178E+02 1.977E+06 25.0379 1.00000
  1.400E+08 1.400E+08 3.027E+00 1.176E+02 1.613E+02 9.003E+01 3.690E+02 3.720E+02 2.036E+06 25.3462 1.00000
  1.700E+08 1.700E+08 3.050E+00 1.430E+02 1.960E+02 1.117E+02 4.507E+02 4.537E+02 2.109E+06 25.7345 1.00000
  2.000E+08 2.000E+08 3.070E+00 1.684E+02 2.306E+02 1.338E+02 5.329E+02 5.359E+02 2.170E+06 26.0595 1.00000
  2.500E+08 2.500E+08 3.097E+00 2.107E+02 2.884E+02 1.715E+02 6.707E+02 6.738E+02 2.254E+06 26.5058 1.00000
  3.000E+08 3.000E+08 3.120E+00 2.531E+02 3.462E+02 2.101E+02 8.094E+02 8.125E+02 2.322E+06 26.8705 1.00000
  3.500E+08 3.500E+08 3.139E+00 2.954E+02 4.040E+02 2.495E+02 9.489E+02 9.520E+02 2.379E+06 27.1788 1.00000
  4.000E+08 4.000E+08 3.156E+00 3.377E+02 4.618E+02 2.895E+02 1.089E+03 1.092E+03 2.428E+06 27.4458 1.00000
  4.500E+08 4.500E+08 3.171E+00 3.801E+02 5.196E+02 3.301E+02 1.230E+03 1.233E+03 2.471E+06 27.6814 1.00000
  5.000E+08 5.000E+08 3.184E+00 4.225E+02 5.773E+02 3.712E+02 1.371E+03 1.374E+03 2.509E+06 27.8921 1.00000
  5.500E+08 5.500E+08 3.196E+00 4.648E+02 6.351E+02 4.128E+02 1.513E+03 1.516E+03 2.544E+06 28.0827 1.00000
  6.000E+08 6.000E+08 3.208E+00 5.072E+02 6.929E+02 4.549E+02 1.655E+03 1.658E+03 2.576E+06 28.2568 1.00000
  7.000E+08 7.000E+08 3.228E+00 5.919E+02 8.085E+02 5.402E+02 1.941E+03 1.944E+03 2.632E+06 28.5651 1.00000
  8.000E+08 8.000E+08 3.245E+00 6.766E+02 9.240E+02 6.270E+02 2.228E+03 2.231E+03 2.680E+06 28.8321 1.00000
  9.000E+08 9.000E+08 3.260E+00 7.614E+02 1.040E+03 7.151E+02 2.516E+03 2.519E+03 2.722E+06 29.0677 1.00000
  1.000E+09 1.000E+09 3.274E+00 8.461E+02 1.155E+03 8.044E+02 2.806E+03 2.809E+03 2.760E+06 29.2784 1.00000
