 Incident particle is a Muon with M = 105.65839 MeV
 Index = 0: BorosilicateGlass
      Absorber with <Z/A> = 0.49706
 Sternheimer coef:  a     k=m_s   x_0    x_1    I[eV]   Cbar  delta0
                 0.0827  3.5224  0.1479  2.9933  134.0  3.9708 0.00

 *** Table generated with PUMAS v1.00 ***

      T         p     Ionization  brems     pair     photonuc  Radloss    dE/dx   CSDA Range  delta   beta
    [MeV]    [MeV/c]  -----------------------[MeV cm^2/g]------------------------  [g/cm^2]
  1.000E+00 1.457E+01 4.051E+01 1.058E-06 0.000E+00 0.000E+00 1.058E-06 4.051E+01 1.234E-02  0.0000 0.13661
  1.200E+00 1.597E+01 3.508E+01 1.215E-06 0.000E+00 0.000E+00 1.215E-06 3.508E+01 1.766E-02  0.0000 0.14944
  1.400E+00 1.726E+01 3.104E+01 1.365E-06 0.000E+00 0.000E+00 1.365E-06 3.104E+01 2.373E-02  0.0000 0.16119
  1.700E+00 1.903E+01 2.660E+01 1.578E-06 0.000E+00 0.000E+00 1.578E-06 2.660E+01 3.420E-02  0.0000 0.17725
  2.000E+00 2.066E+01 2.336E+01 1.780E-06 0.000E+00 0.000E+00 1.780E-06 2.336E+01 4.627E-02  0.0000 0.19186
  2.500E+00 2.312E+01 1.954E+01 2.095E-06 0.000E+00 0.000E+00 2.095E-06 1.954E+01 6.976E-02  0.0000 0.21376
  3.000E+00 2.536E+01 1.689E+01 2.390E-06 0.000E+00 0.000E+00 2.390E-06 1.689E+01 9.736E-02  0.0000 0.23336
  3.500E+00 2.742E+01 1.493E+01 2.668E-06 0.000E+00 0.000E+00 2.668E-06 1.493E+01 1.289E-01  0.0000 0.25120
  4.000E+00 2.935E+01 1.343E+01 2.932E-06 0.000E+00 0.000E+00 2.932E-06 1.343E+01 1.643E-01  0.0000 0.26763
  4.500E+00 3.116E+01 1.223E+01 3.183E-06 0.000E+00 0.000E+00 3.183E-06 1.223E+01 2.033E-01  0.0000 0.28290
  5.000E+00 3.289E+01 1.125E+01 3.423E-06 0.000E+00 0.000E+00 3.423E-06 1.125E+01 2.460E-01  0.0000 0.29720
  5.500E+00 3.453E+01 1.044E+01 3.654E-06 0.000E+00 0.000E+00 3.654E-06 1.044E+01 2.921E-01  0.0000 0.31066
  6.000E+00 3.611E+01 9.753E+00 3.877E-06 0.000E+00 0.000E+00 3.877E-06 9.753E+00 3.417E-01  0.0000 0.32339
  7.000E+00 3.909E+01 8.652E+00 4.301E-06 0.000E+00 0.000E+00 4.301E-06 8.652E+00 4.508E-01  0.0000 0.34700
  8.000E+00 4.189E+01 7.808E+00 4.699E-06 0.000E+00 0.000E+00 4.699E-06 7.808E+00 5.726E-01  0.0000 0.36854
  9.000E+00 4.453E+01 7.140E+00 5.077E-06 0.000E+00 0.000E+00 5.077E-06 7.140E+00 7.067E-01  0.0000 0.38836
  1.000E+01 4.704E+01 6.597E+00 5.437E-06 0.000E+00 0.000E+00 5.437E-06 6.597E+00 8.525E-01  0.0000 0.40675
  1.200E+01 5.177E+01 5.767E+00 6.113E-06 0.000E+00 0.000E+00 6.113E-06 5.767E+00 1.177E+00  0.0000 0.43998
  1.400E+01 5.616E+01 5.161E+00 6.742E-06 0.000E+00 0.000E+00 6.742E-06 5.161E+00 1.545E+00  0.0000 0.46937
  1.700E+01 6.230E+01 4.508E+00 7.619E-06 0.000E+00 0.000E+00 7.619E-06 4.508E+00 2.168E+00  0.0000 0.50792
  2.000E+01 6.802E+01 4.043E+00 8.435E-06 0.000E+00 0.000E+00 8.435E-06 4.043E+00 2.872E+00  0.0000 0.54129
  2.500E+01 7.686E+01 3.507E+00 9.700E-06 0.000E+00 0.000E+00 9.700E-06 3.507E+00 4.203E+00  0.0000 0.58827
  3.000E+01 8.509E+01 3.146E+00 1.089E-05 0.000E+00 0.000E+00 1.089E-05 3.146E+00 5.711E+00  0.0000 0.62720
  3.500E+01 9.285E+01 2.886E+00 1.202E-05 0.000E+00 0.000E+00 1.202E-05 2.886E+00 7.372E+00  0.0000 0.66011
  4.000E+01 1.003E+02 2.691E+00 1.312E-05 0.000E+00 0.000E+00 1.312E-05 2.691E+00 9.167E+00  0.0000 0.68834
  4.500E+01 1.074E+02 2.540E+00 1.419E-05 0.000E+00 0.000E+00 1.419E-05 2.540E+00 1.108E+01  0.0000 0.71286
  5.000E+01 1.143E+02 2.420E+00 1.526E-05 0.000E+00 0.000E+00 1.526E-05 2.420E+00 1.310E+01  0.0000 0.73434
  5.500E+01 1.210E+02 2.323E+00 1.631E-05 0.000E+00 0.000E+00 1.631E-05 2.323E+00 1.521E+01  0.0000 0.75332
  6.000E+01 1.276E+02 2.243E+00 1.736E-05 0.000E+00 0.000E+00 1.736E-05 2.243E+00 1.740E+01  0.0000 0.77019
  7.000E+01 1.403E+02 2.119E+00 1.947E-05 0.000E+00 0.000E+00 1.947E-05 2.119E+00 2.199E+01  0.0000 0.79887
  8.000E+01 1.527E+02 2.029E+00 2.159E-05 0.000E+00 0.000E+00 2.159E-05 2.029E+00 2.681E+01  0.0068 0.82227
  9.000E+01 1.647E+02 1.960E+00 2.374E-05 0.000E+00 0.000E+00 2.374E-05 1.960E+00 3.182E+01  0.0277 0.84166
  1.000E+02 1.764E+02 1.907E+00 2.592E-05 0.000E+00 0.000E+00 2.592E-05 1.907E+00 3.700E+01  0.0500 0.85794
  1.200E+02 1.994E+02 1.832E+00 3.039E-05 0.000E+00 0.000E+00 3.039E-05 1.832E+00 4.770E+01  0.0972 0.88361
  1.400E+02 2.218E+02 1.784E+00 3.503E-05 0.000E+00 0.000E+00 3.503E-05 1.784E+00 5.876E+01  0.1459 0.90278
  1.700E+02 2.546E+02 1.740E+00 4.229E-05 2.850E-14 0.000E+00 4.229E-05 1.740E+00 7.579E+01  0.2196 0.92363
  2.000E+02 2.868E+02 1.716E+00 4.991E-05 6.778E-12 0.000E+00 4.991E-05 1.716E+00 9.315E+01  0.2924 0.93835
  2.500E+02 3.396E+02 1.699E+00 6.337E-05 1.114E-07 0.000E+00 6.348E-05 1.699E+00 1.224E+02  0.4097 0.95485
  3.000E+02 3.917E+02 1.696E+00 7.770E-05 1.040E-06 0.000E+00 7.874E-05 1.696E+00 1.519E+02  0.5210 0.96548
  3.500E+02 4.432E+02 1.699E+00 9.283E-05 2.892E-06 0.000E+00 9.572E-05 1.699E+00 1.813E+02  0.6264 0.97274
  4.000E+02 4.945E+02 1.707E+00 1.087E-04 5.628E-06 0.000E+00 1.143E-04 1.707E+00 2.107E+02  0.7261 0.97793
  4.500E+02 5.455E+02 1.716E+00 1.252E-04 9.215E-06 0.000E+00 1.344E-04 1.716E+00 2.399E+02  0.8208 0.98176
  5.000E+02 5.964E+02 1.725E+00 1.424E-04 1.362E-05 0.000E+00 1.560E-04 1.726E+00 2.690E+02  0.9108 0.98467
  5.500E+02 6.471E+02 1.735E+00 1.601E-04 1.882E-05 0.000E+00 1.790E-04 1.736E+00 2.979E+02  0.9965 0.98693
  6.000E+02 6.977E+02 1.746E+00 1.784E-04 2.478E-05 0.000E+00 2.032E-04 1.746E+00 3.266E+02  1.0783 0.98873
  7.000E+02 7.987E+02 1.765E+00 2.165E-04 3.890E-05 0.000E+00 2.554E-04 1.766E+00 3.836E+02  1.2315 0.99136
  8.000E+02 8.995E+02 1.784E+00 2.565E-04 5.578E-05 0.000E+00 3.122E-04 1.784E+00 4.399E+02  1.3728 0.99317
  9.000E+02 1.000E+03 1.801E+00 2.981E-04 7.525E-05 0.000E+00 3.733E-04 1.802E+00 4.957E+02  1.5038 0.99447
  1.000E+03 1.101E+03 1.817E+00 3.412E-04 9.715E-05 0.000E+00 4.383E-04 1.818E+00 5.509E+02  1.6260 0.99542
  1.200E+03 1.301E+03 1.846E+00 4.314E-04 1.477E-04 2.254E-05 6.017E-04 1.846E+00 6.601E+02  1.8485 0.99672
  1.400E+03 1.502E+03 1.871E+00 5.265E-04 2.064E-04 6.162E-05 7.946E-04 1.871E+00 7.677E+02  2.0470 0.99753
  1.700E+03 1.803E+03 1.902E+00 6.770E-04 3.082E-04 1.319E-04 1.117E-03 1.904E+00 9.267E+02  2.3101 0.99829
  2.000E+03 2.103E+03 1.929E+00 8.356E-04 4.245E-04 2.147E-04 1.475E-03 1.931E+00 1.083E+03  2.5409 0.99874
  2.500E+03 2.604E+03 1.966E+00 1.115E-03 6.463E-04 3.746E-04 2.136E-03 1.968E+00 1.340E+03  2.8726 0.99918
  3.000E+03 3.104E+03 1.995E+00 1.411E-03 8.983E-04 5.425E-04 2.851E-03 1.998E+00 1.592E+03  3.1555 0.99942
  3.500E+03 3.604E+03 2.020E+00 1.720E-03 1.176E-03 7.204E-04 3.616E-03 2.023E+00 1.841E+03  3.4024 0.99957
  4.000E+03 4.104E+03 2.041E+00 2.041E-03 1.490E-03 9.105E-04 4.442E-03 2.045E+00 2.086E+03  3.6216 0.99967
  4.500E+03 4.604E+03 2.059E+00 2.373E-03 1.831E-03 1.108E-03 5.312E-03 2.064E+00 2.330E+03  3.8189 0.99974
  5.000E+03 5.105E+03 2.075E+00 2.714E-03 2.191E-03 1.298E-03 6.204E-03 2.081E+00 2.571E+03  3.9982 0.99979
  5.500E+03 5.605E+03 2.090E+00 3.064E-03 2.570E-03 1.503E-03 7.137E-03 2.097E+00 2.810E+03  4.1627 0.99982
  6.000E+03 6.105E+03 2.103E+00 3.422E-03 2.965E-03 1.694E-03 8.081E-03 2.111E+00 3.048E+03  4.3146 0.99985
  7.000E+03 7.105E+03 2.125E+00 4.158E-03 3.801E-03 2.099E-03 1.006E-02 2.135E+00 3.519E+03  4.5877 0.99989
  8.000E+03 8.105E+03 2.145E+00 4.919E-03 4.689E-03 2.501E-03 1.211E-02 2.157E+00 3.985E+03  4.8281 0.99992
  9.000E+03 9.105E+03 2.161E+00 5.702E-03 5.625E-03 2.880E-03 1.421E-02 2.176E+00 4.447E+03  5.0428 0.99993
  1.000E+04 1.011E+04 2.176E+00 6.505E-03 6.602E-03 3.270E-03 1.638E-02 2.192E+00 4.904E+03  5.2368 0.99995
  1.200E+04 1.211E+04 2.201E+00 8.162E-03 8.666E-03 4.063E-03 2.089E-02 2.222E+00 5.811E+03  5.5766 0.99996
  1.400E+04 1.411E+04 2.221E+00 9.877E-03 1.086E-02 4.858E-03 2.559E-02 2.247E+00 6.706E+03  5.8676 0.99997
  1.700E+04 1.711E+04 2.246E+00 1.254E-02 1.433E-02 6.037E-03 3.292E-02 2.279E+00 8.032E+03  6.2382 0.99998
  2.000E+04 2.011E+04 2.267E+00 1.530E-02 1.801E-02 7.195E-03 4.051E-02 2.307E+00 9.340E+03  6.5515 0.99999
  2.500E+04 2.511E+04 2.294E+00 2.008E-02 2.448E-02 9.098E-03 5.366E-02 2.348E+00 1.149E+04  6.9856 0.99999
  3.000E+04 3.011E+04 2.315E+00 2.502E-02 3.131E-02 1.097E-02 6.731E-02 2.383E+00 1.360E+04  7.3431 0.99999
  3.500E+04 3.511E+04 2.333E+00 3.011E-02 3.843E-02 1.286E-02 8.141E-02 2.415E+00 1.569E+04  7.6469 1.00000
  4.000E+04 4.011E+04 2.348E+00 3.533E-02 4.579E-02 1.473E-02 9.585E-02 2.444E+00 1.775E+04  7.9110 1.00000
  4.500E+04 4.511E+04 2.362E+00 4.065E-02 5.335E-02 1.658E-02 1.106E-01 2.472E+00 1.978E+04  8.1446 1.00000
  5.000E+04 5.011E+04 2.373E+00 4.606E-02 6.109E-02 1.843E-02 1.256E-01 2.499E+00 2.179E+04  8.3540 1.00000
  5.500E+04 5.511E+04 2.384E+00 5.156E-02 6.899E-02 2.029E-02 1.408E-01 2.524E+00 2.378E+04  8.5437 1.00000
  6.000E+04 6.011E+04 2.393E+00 5.713E-02 7.702E-02 2.214E-02 1.563E-01 2.549E+00 2.575E+04  8.7170 1.00000
  7.000E+04 7.011E+04 2.410E+00 6.846E-02 9.344E-02 2.580E-02 1.877E-01 2.597E+00 2.964E+04  9.0245 1.00000
  8.000E+04 8.011E+04 2.424E+00 8.003E-02 1.103E-01 2.947E-02 2.198E-01 2.644E+00 3.346E+04  9.2910 1.00000
  9.000E+04 9.011E+04 2.436E+00 9.179E-02 1.274E-01 3.315E-02 2.524E-01 2.688E+00 3.721E+04  9.5263 1.00000
  1.000E+05 1.001E+05 2.447E+00 1.037E-01 1.449E-01 3.676E-02 2.854E-01 2.732E+00 4.090E+04  9.7367 1.00000
  1.200E+05 1.201E+05 2.466E+00 1.280E-01 1.805E-01 4.411E-02 3.527E-01 2.819E+00 4.810E+04 10.1010 1.00000
  1.400E+05 1.401E+05 2.482E+00 1.528E-01 2.170E-01 5.147E-02 4.213E-01 2.903E+00 5.510E+04 10.4091 1.00000
  1.700E+05 1.701E+05 2.502E+00 1.908E-01 2.728E-01 6.252E-02 5.261E-01 3.028E+00 6.522E+04 10.7971 1.00000
  2.000E+05 2.001E+05 2.518E+00 2.295E-01 3.296E-01 7.363E-02 6.327E-01 3.151E+00 7.493E+04 11.1220 1.00000
  2.500E+05 2.501E+05 2.541E+00 2.952E-01 4.262E-01 9.222E-02 8.136E-01 3.355E+00 9.032E+04 11.5681 1.00000
  3.000E+05 3.001E+05 2.560E+00 3.622E-01 5.245E-01 1.110E-01 9.977E-01 3.557E+00 1.048E+05 11.9326 1.00000
  3.500E+05 3.501E+05 2.575E+00 4.303E-01 6.240E-01 1.299E-01 1.184E+00 3.759E+00 1.185E+05 12.2408 1.00000
  4.000E+05 4.001E+05 2.589E+00 4.991E-01 7.245E-01 1.490E-01 1.373E+00 3.962E+00 1.314E+05 12.5077 1.00000
  4.500E+05 4.501E+05 2.601E+00 5.686E-01 8.259E-01 1.682E-01 1.563E+00 4.164E+00 1.438E+05 12.7433 1.00000
  5.000E+05 5.001E+05 2.612E+00 6.387E-01 9.279E-01 1.875E-01 1.754E+00 4.366E+00 1.555E+05 12.9539 1.00000
  5.500E+05 5.501E+05 2.621E+00 7.094E-01 1.030E+00 2.067E-01 1.947E+00 4.568E+00 1.667E+05 13.1445 1.00000
  6.000E+05 6.001E+05 2.630E+00 7.804E-01 1.134E+00 2.260E-01 2.140E+00 4.770E+00 1.774E+05 13.3185 1.00000
  7.000E+05 7.001E+05 2.646E+00 9.238E-01 1.341E+00 2.650E-01 2.530E+00 5.176E+00 1.975E+05 13.6268 1.00000
  8.000E+05 8.001E+05 2.660E+00 1.068E+00 1.550E+00 3.044E-01 2.922E+00 5.582E+00 2.162E+05 13.8938 1.00000
  9.000E+05 9.001E+05 2.672E+00 1.214E+00 1.759E+00 3.441E-01 3.318E+00 5.990E+00 2.335E+05 14.1293 1.00000
  1.000E+06 1.000E+06 2.683E+00 1.361E+00 1.970E+00 3.843E-01 3.715E+00 6.398E+00 2.496E+05 14.3400 1.00000
  1.200E+06 1.200E+06 2.702E+00 1.656E+00 2.393E+00 4.655E-01 4.515E+00 7.217E+00 2.791E+05 14.7046 1.00000
  1.400E+06 1.400E+06 2.718E+00 1.954E+00 2.819E+00 5.479E-01 5.321E+00 8.039E+00 3.054E+05 15.0129 1.00000
  1.700E+06 1.700E+06 2.739E+00 2.405E+00 3.460E+00 6.734E-01 6.538E+00 9.277E+00 3.402E+05 15.4012 1.00000
  2.000E+06 2.000E+06 2.756E+00 2.858E+00 4.103E+00 8.010E-01 7.763E+00 1.052E+01 3.707E+05 15.7262 1.00000
  2.500E+06 2.500E+06 2.780E+00 3.620E+00 5.181E+00 1.018E+00 9.818E+00 1.260E+01 4.143E+05 16.1725 1.00000
  3.000E+06 3.000E+06 2.800E+00 4.387E+00 6.261E+00 1.238E+00 1.189E+01 1.469E+01 4.511E+05 16.5371 1.00000
  3.500E+06 3.500E+06 2.816E+00 5.157E+00 7.345E+00 1.463E+00 1.397E+01 1.678E+01 4.831E+05 16.8454 1.00000
  4.000E+06 4.000E+06 2.831E+00 5.931E+00 8.431E+00 1.690E+00 1.605E+01 1.888E+01 5.112E+05 17.1124 1.00000
  4.500E+06 4.500E+06 2.844E+00 6.707E+00 9.518E+00 1.921E+00 1.815E+01 2.099E+01 5.363E+05 17.3480 1.00000
  5.000E+06 5.000E+06 2.856E+00 7.485E+00 1.061E+01 2.153E+00 2.025E+01 2.310E+01 5.591E+05 17.5587 1.00000
  5.500E+06 5.500E+06 2.866E+00 8.265E+00 1.170E+01 2.389E+00 2.235E+01 2.522E+01 5.798E+05 17.7493 1.00000
  6.000E+06 6.000E+06 2.876E+00 9.046E+00 1.279E+01 2.626E+00 2.446E+01 2.734E+01 5.989E+05 17.9234 1.00000
  7.000E+06 7.000E+06 2.893E+00 1.061E+01 1.497E+01 3.107E+00 2.869E+01 3.158E+01 6.330E+05 18.2316 1.00000
  8.000E+06 8.000E+06 2.908E+00 1.218E+01 1.716E+01 3.596E+00 3.293E+01 3.584E+01 6.628E+05 18.4987 1.00000
  9.000E+06 9.000E+06 2.922E+00 1.376E+01 1.934E+01 4.090E+00 3.719E+01 4.011E+01 6.892E+05 18.7343 1.00000
  1.000E+07 1.000E+07 2.934E+00 1.533E+01 2.153E+01 4.591E+00 4.145E+01 4.439E+01 7.129E+05 18.9450 1.00000
  1.200E+07 1.200E+07 2.954E+00 1.849E+01 2.591E+01 5.607E+00 5.001E+01 5.296E+01 7.543E+05 19.3096 1.00000
  1.400E+07 1.400E+07 2.972E+00 2.165E+01 3.030E+01 6.642E+00 5.859E+01 6.156E+01 7.895E+05 19.6179 1.00000
  1.700E+07 1.700E+07 2.995E+00 2.640E+01 3.688E+01 8.223E+00 7.151E+01 7.450E+01 8.340E+05 20.0062 1.00000
  2.000E+07 2.000E+07 3.014E+00 3.117E+01 4.346E+01 9.834E+00 8.446E+01 8.748E+01 8.712E+05 20.3313 1.00000
  2.500E+07 2.500E+07 3.040E+00 3.911E+01 5.445E+01 1.258E+01 1.061E+02 1.092E+02 9.227E+05 20.7776 1.00000
  3.000E+07 3.000E+07 3.062E+00 4.707E+01 6.543E+01 1.538E+01 1.279E+02 1.309E+02 9.647E+05 21.1422 1.00000
  3.500E+07 3.500E+07 3.081E+00 5.503E+01 7.642E+01 1.824E+01 1.497E+02 1.528E+02 1.000E+06 21.4505 1.00000
  4.000E+07 4.000E+07 3.097E+00 6.300E+01 8.742E+01 2.114E+01 1.716E+02 1.747E+02 1.031E+06 21.7176 1.00000
  4.500E+07 4.500E+07 3.111E+00 7.098E+01 9.841E+01 2.408E+01 1.935E+02 1.966E+02 1.058E+06 21.9531 1.00000
  5.000E+07 5.000E+07 3.124E+00 7.896E+01 1.094E+02 2.706E+01 2.154E+02 2.186E+02 1.082E+06 22.1638 1.00000
  5.500E+07 5.500E+07 3.136E+00 8.694E+01 1.204E+02 3.007E+01 2.374E+02 2.406E+02 1.104E+06 22.3545 1.00000
  6.000E+07 6.000E+07 3.147E+00 9.492E+01 1.314E+02 3.311E+01 2.594E+02 2.626E+02 1.124E+06 22.5285 1.00000
  7.000E+07 7.000E+07 3.166E+00 1.109E+02 1.534E+02 3.928E+01 3.036E+02 3.068E+02 1.159E+06 22.8368 1.00000
  8.000E+07 8.000E+07 3.183E+00 1.269E+02 1.754E+02 4.555E+01 3.478E+02 3.510E+02 1.190E+06 23.1039 1.00000
  9.000E+07 9.000E+07 3.197E+00 1.429E+02 1.974E+02 5.191E+01 3.922E+02 3.954E+02 1.217E+06 23.3394 1.00000
  1.000E+08 1.000E+08 3.211E+00 1.589E+02 2.194E+02 5.834E+01 4.366E+02 4.398E+02 1.241E+06 23.5501 1.00000
  1.200E+08 1.200E+08 3.234E+00 1.908E+02 2.634E+02 7.143E+01 5.257E+02 5.289E+02 1.282E+06 23.9148 1.00000
  1.400E+08 1.400E+08 3.254E+00 2.228E+02 3.075E+02 8.477E+01 6.151E+02 6.183E+02 1.317E+06 24.2231 1.00000
  1.700E+08 1.700E+08 3.279E+00 2.708E+02 3.735E+02 1.052E+02 7.495E+02 7.528E+02 1.361E+06 24.6114 1.00000
  2.000E+08 2.000E+08 3.300E+00 3.189E+02 4.395E+02 1.260E+02 8.844E+02 8.877E+02 1.398E+06 24.9364 1.00000
  2.500E+08 2.500E+08 3.330E+00 3.989E+02 5.496E+02 1.615E+02 1.110E+03 1.113E+03 1.449E+06 25.3827 1.00000
  3.000E+08 3.000E+08 3.354E+00 4.790E+02 6.597E+02 1.979E+02 1.336E+03 1.340E+03 1.490E+06 25.7474 1.00000
  3.500E+08 3.500E+08 3.375E+00 5.590E+02 7.697E+02 2.349E+02 1.564E+03 1.567E+03 1.525E+06 26.0557 1.00000
  4.000E+08 4.000E+08 3.393E+00 6.391E+02 8.798E+02 2.726E+02 1.791E+03 1.795E+03 1.555E+06 26.3227 1.00000
  4.500E+08 4.500E+08 3.409E+00 7.192E+02 9.899E+02 3.108E+02 2.020E+03 2.023E+03 1.581E+06 26.5583 1.00000
  5.000E+08 5.000E+08 3.423E+00 7.992E+02 1.100E+03 3.495E+02 2.249E+03 2.252E+03 1.604E+06 26.7690 1.00000
  5.500E+08 5.500E+08 3.436E+00 8.793E+02 1.210E+03 3.887E+02 2.478E+03 2.481E+03 1.625E+06 26.9596 1.00000
  6.000E+08 6.000E+08 3.448E+00 9.594E+02 1.320E+03 4.283E+02 2.708E+03 2.711E+03 1.645E+06 27.1337 1.00000
  7.000E+08 7.000E+08 3.470E+00 1.120E+03 1.540E+03 5.086E+02 3.168E+03 3.172E+03 1.679E+06 27.4420 1.00000
  8.000E+08 8.000E+08 3.489E+00 1.280E+03 1.760E+03 5.904E+02 3.630E+03 3.634E+03 1.708E+06 27.7090 1.00000
  9.000E+08 9.000E+08 3.505E+00 1.440E+03 1.981E+03 6.733E+02 4.094E+03 4.097E+03 1.734E+06 27.9446 1.00000
  1.000E+09 1.000E+09 3.520E+00 1.600E+03 2.201E+03 7.573E+02 4.558E+03 4.562E+03 1.758E+06 28.1553 1.00000
