 Incident particle is a Muon with M = 105.65839 MeV
 Index = 0: BromineGas
      Absorber with <Z/A> = 0.43803
 Sternheimer coef:  a     k=m_s   x_0    x_1    I[eV]   Cbar  delta0
                 0.0633  3.4670  1.5262  4.9899  343.0 11.7307 0.00

 *** Table generated with PUMAS v1.00 ***

      T         p     Ionization  brems     pair     photonuc  Radloss    dE/dx   CSDA Range  delta   beta
    [MeV]    [MeV/c]  -----------------------[MeV cm^2/g]------------------------  [g/cm^2]
  1.000E+00 1.457E+01 2.893E+01 2.828E-06 0.000E+00 0.000E+00 2.828E-06 2.893E+01 1.728E-02  0.0000 0.13661
  1.200E+00 1.597E+01 2.526E+01 3.250E-06 0.000E+00 0.000E+00 3.250E-06 2.526E+01 2.470E-02  0.0000 0.14944
  1.400E+00 1.726E+01 2.249E+01 3.651E-06 0.000E+00 0.000E+00 3.651E-06 2.249E+01 3.311E-02  0.0000 0.16119
  1.700E+00 1.903E+01 1.941E+01 4.220E-06 0.000E+00 0.000E+00 4.220E-06 1.941E+01 4.750E-02  0.0000 0.17725
  2.000E+00 2.066E+01 1.715E+01 4.756E-06 0.000E+00 0.000E+00 4.756E-06 1.715E+01 6.398E-02  0.0000 0.19186
  2.500E+00 2.312E+01 1.445E+01 5.590E-06 0.000E+00 0.000E+00 5.590E-06 1.445E+01 9.585E-02  0.0000 0.21376
  3.000E+00 2.536E+01 1.256E+01 6.363E-06 0.000E+00 0.000E+00 6.363E-06 1.256E+01 1.330E-01  0.0000 0.23336
  3.500E+00 2.742E+01 1.116E+01 7.088E-06 0.000E+00 0.000E+00 7.088E-06 1.116E+01 1.754E-01  0.0000 0.25120
  4.000E+00 2.935E+01 1.007E+01 7.772E-06 0.000E+00 0.000E+00 7.772E-06 1.007E+01 2.226E-01  0.0000 0.26763
  4.500E+00 3.116E+01 9.198E+00 8.421E-06 0.000E+00 0.000E+00 8.421E-06 9.198E+00 2.746E-01  0.0000 0.28290
  5.000E+00 3.289E+01 8.485E+00 9.040E-06 0.000E+00 0.000E+00 9.040E-06 8.485E+00 3.313E-01  0.0000 0.29720
  5.500E+00 3.453E+01 7.890E+00 9.632E-06 0.000E+00 0.000E+00 9.632E-06 7.890E+00 3.924E-01  0.0000 0.31066
  6.000E+00 3.611E+01 7.386E+00 1.020E-05 0.000E+00 0.000E+00 1.020E-05 7.386E+00 4.579E-01  0.0000 0.32339
  7.000E+00 3.909E+01 6.575E+00 1.128E-05 0.000E+00 0.000E+00 1.128E-05 6.575E+00 6.017E-01  0.0000 0.34700
  8.000E+00 4.189E+01 5.950E+00 1.228E-05 0.000E+00 0.000E+00 1.228E-05 5.950E+00 7.618E-01  0.0000 0.36854
  9.000E+00 4.453E+01 5.454E+00 1.324E-05 0.000E+00 0.000E+00 1.324E-05 5.454E+00 9.375E-01  0.0000 0.38836
  1.000E+01 4.704E+01 5.049E+00 1.414E-05 0.000E+00 0.000E+00 1.414E-05 5.049E+00 1.128E+00  0.0000 0.40675
  1.200E+01 5.177E+01 4.429E+00 1.582E-05 0.000E+00 0.000E+00 1.582E-05 4.429E+00 1.552E+00  0.0000 0.43998
  1.400E+01 5.616E+01 3.975E+00 1.739E-05 0.000E+00 0.000E+00 1.739E-05 3.975E+00 2.029E+00  0.0000 0.46937
  1.700E+01 6.230E+01 3.483E+00 1.955E-05 0.000E+00 0.000E+00 1.955E-05 3.483E+00 2.838E+00  0.0000 0.50792
  2.000E+01 6.802E+01 3.131E+00 2.156E-05 0.000E+00 0.000E+00 2.156E-05 3.131E+00 3.747E+00  0.0000 0.54129
  2.500E+01 7.686E+01 2.725E+00 2.467E-05 0.000E+00 0.000E+00 2.467E-05 2.725E+00 5.463E+00  0.0000 0.58827
  3.000E+01 8.509E+01 2.451E+00 2.758E-05 0.000E+00 0.000E+00 2.758E-05 2.451E+00 7.401E+00  0.0000 0.62720
  3.500E+01 9.285E+01 2.253E+00 3.037E-05 0.000E+00 0.000E+00 3.037E-05 2.253E+00 9.531E+00  0.0000 0.66011
  4.000E+01 1.003E+02 2.105E+00 3.308E-05 0.000E+00 0.000E+00 3.308E-05 2.105E+00 1.183E+01  0.0000 0.68834
  4.500E+01 1.074E+02 1.990E+00 3.573E-05 0.000E+00 0.000E+00 3.573E-05 1.990E+00 1.427E+01  0.0000 0.71286
  5.000E+01 1.143E+02 1.898E+00 3.836E-05 0.000E+00 0.000E+00 3.836E-05 1.898E+00 1.685E+01  0.0000 0.73434
  5.500E+01 1.210E+02 1.824E+00 4.097E-05 0.000E+00 0.000E+00 4.097E-05 1.824E+00 1.953E+01  0.0000 0.75332
  6.000E+01 1.276E+02 1.763E+00 4.358E-05 0.000E+00 0.000E+00 4.358E-05 1.763E+00 2.232E+01  0.0000 0.77019
  7.000E+01 1.403E+02 1.670E+00 4.882E-05 0.000E+00 0.000E+00 4.882E-05 1.670E+00 2.815E+01  0.0000 0.79887
  8.000E+01 1.527E+02 1.602E+00 5.411E-05 0.000E+00 0.000E+00 5.411E-05 1.602E+00 3.427E+01  0.0000 0.82227
  9.000E+01 1.647E+02 1.551E+00 5.949E-05 0.000E+00 0.000E+00 5.949E-05 1.552E+00 4.061E+01  0.0000 0.84166
  1.000E+02 1.764E+02 1.513E+00 6.496E-05 0.000E+00 0.000E+00 6.496E-05 1.513E+00 4.714E+01  0.0000 0.85794
  1.200E+02 1.994E+02 1.461E+00 7.622E-05 0.000E+00 0.000E+00 7.622E-05 1.461E+00 6.059E+01  0.0000 0.88361
  1.400E+02 2.218E+02 1.429E+00 8.792E-05 0.000E+00 0.000E+00 8.792E-05 1.429E+00 7.443E+01  0.0000 0.90278
  1.700E+02 2.546E+02 1.403E+00 1.063E-04 0.000E+00 0.000E+00 1.063E-04 1.403E+00 9.562E+01  0.0000 0.92363
  2.000E+02 2.868E+02 1.391E+00 1.257E-04 0.000E+00 0.000E+00 1.257E-04 1.391E+00 1.171E+02  0.0000 0.93835
  2.500E+02 3.396E+02 1.389E+00 1.600E-04 0.000E+00 0.000E+00 1.600E-04 1.389E+00 1.531E+02  0.0000 0.95485
  3.000E+02 3.917E+02 1.396E+00 1.967E-04 0.000E+00 0.000E+00 1.967E-04 1.396E+00 1.890E+02  0.0000 0.96548
  3.500E+02 4.432E+02 1.408E+00 2.355E-04 7.091E-06 0.000E+00 2.426E-04 1.409E+00 2.246E+02  0.0000 0.97274
  4.000E+02 4.945E+02 1.423E+00 2.763E-04 1.573E-05 0.000E+00 2.920E-04 1.423E+00 2.599E+02  0.0000 0.97793
  4.500E+02 5.455E+02 1.438E+00 3.190E-04 2.620E-05 0.000E+00 3.451E-04 1.438E+00 2.949E+02  0.0000 0.98176
  5.000E+02 5.964E+02 1.453E+00 3.633E-04 3.905E-05 0.000E+00 4.023E-04 1.454E+00 3.295E+02  0.0000 0.98467
  5.500E+02 6.471E+02 1.468E+00 4.092E-04 5.424E-05 0.000E+00 4.634E-04 1.469E+00 3.637E+02  0.0000 0.98693
  6.000E+02 6.977E+02 1.483E+00 4.566E-04 7.172E-05 0.000E+00 5.283E-04 1.484E+00 3.976E+02  0.0000 0.98873
  7.000E+02 7.987E+02 1.511E+00 5.555E-04 1.131E-04 0.000E+00 6.687E-04 1.512E+00 4.643E+02  0.0000 0.99136
  8.000E+02 8.995E+02 1.537E+00 6.595E-04 1.627E-04 0.000E+00 8.222E-04 1.538E+00 5.299E+02  0.0000 0.99317
  9.000E+02 1.000E+03 1.562E+00 7.679E-04 2.200E-04 0.000E+00 9.879E-04 1.563E+00 5.944E+02  0.0000 0.99447
  1.000E+03 1.101E+03 1.584E+00 8.805E-04 2.845E-04 0.000E+00 1.165E-03 1.585E+00 6.579E+02  0.0000 0.99542
  1.200E+03 1.301E+03 1.624E+00 1.117E-03 4.334E-04 2.248E-05 1.573E-03 1.626E+00 7.825E+02  0.0000 0.99672
  1.400E+03 1.502E+03 1.660E+00 1.366E-03 6.065E-04 6.114E-05 2.034E-03 1.662E+00 9.042E+02  0.0000 0.99753
  1.700E+03 1.803E+03 1.706E+00 1.762E-03 9.067E-04 1.300E-04 2.799E-03 1.708E+00 1.082E+03  0.0000 0.99829
  2.000E+03 2.103E+03 1.745E+00 2.180E-03 1.250E-03 2.103E-04 3.640E-03 1.748E+00 1.256E+03  0.0000 0.99874
  2.500E+03 2.604E+03 1.799E+00 2.918E-03 1.904E-03 3.643E-04 5.186E-03 1.804E+00 1.537E+03  0.0000 0.99918
  3.000E+03 3.104E+03 1.844E+00 3.700E-03 2.647E-03 5.244E-04 6.871E-03 1.851E+00 1.811E+03  0.0000 0.99942
  3.500E+03 3.604E+03 1.883E+00 4.519E-03 3.466E-03 6.928E-04 8.678E-03 1.891E+00 2.078E+03 -0.0040 0.99957
  4.000E+03 4.104E+03 1.916E+00 5.370E-03 4.363E-03 8.719E-04 1.060E-02 1.926E+00 2.340E+03 -0.0030 0.99967
  4.500E+03 4.604E+03 1.945E+00 6.250E-03 5.325E-03 1.057E-03 1.263E-02 1.957E+00 2.598E+03  0.0065 0.99974
  5.000E+03 5.105E+03 1.970E+00 7.155E-03 6.341E-03 1.235E-03 1.473E-02 1.985E+00 2.851E+03  0.0219 0.99979
  5.500E+03 5.605E+03 1.992E+00 8.083E-03 7.406E-03 1.426E-03 1.691E-02 2.009E+00 3.102E+03  0.0412 0.99982
  6.000E+03 6.105E+03 2.013E+00 9.032E-03 8.517E-03 1.603E-03 1.915E-02 2.032E+00 3.349E+03  0.0633 0.99985
  7.000E+03 7.105E+03 2.048E+00 1.099E-02 1.086E-02 1.978E-03 2.382E-02 2.071E+00 3.837E+03  0.1128 0.99989
  8.000E+03 8.105E+03 2.077E+00 1.301E-02 1.335E-02 2.350E-03 2.870E-02 2.106E+00 4.316E+03  0.1660 0.99992
  9.000E+03 9.105E+03 2.103E+00 1.508E-02 1.596E-02 2.697E-03 3.374E-02 2.136E+00 4.787E+03  0.2208 0.99993
  1.000E+04 1.011E+04 2.125E+00 1.721E-02 1.868E-02 3.056E-03 3.895E-02 2.164E+00 5.252E+03  0.2760 0.99995
  1.200E+04 1.211E+04 2.162E+00 2.161E-02 2.442E-02 3.781E-03 4.981E-02 2.212E+00 6.167E+03  0.3847 0.99996
  1.400E+04 1.411E+04 2.193E+00 2.616E-02 3.048E-02 4.505E-03 6.115E-02 2.254E+00 7.062E+03  0.4894 0.99997
  1.700E+04 1.711E+04 2.230E+00 3.323E-02 4.009E-02 5.575E-03 7.890E-02 2.309E+00 8.378E+03  0.6373 0.99998
  2.000E+04 2.011E+04 2.260E+00 4.054E-02 5.021E-02 6.622E-03 9.737E-02 2.357E+00 9.664E+03  0.7744 0.99999
  2.500E+04 2.511E+04 2.299E+00 5.316E-02 6.798E-02 8.336E-03 1.295E-01 2.428E+00 1.175E+04  0.9816 0.99999
  3.000E+04 3.011E+04 2.329E+00 6.623E-02 8.666E-02 1.001E-02 1.629E-01 2.492E+00 1.379E+04  1.1663 0.99999
  3.500E+04 3.511E+04 2.354E+00 7.967E-02 1.061E-01 1.171E-02 1.974E-01 2.552E+00 1.577E+04  1.3330 1.00000
  4.000E+04 4.011E+04 2.375E+00 9.341E-02 1.261E-01 1.338E-02 2.328E-01 2.608E+00 1.771E+04  1.4847 1.00000
  4.500E+04 4.511E+04 2.393E+00 1.074E-01 1.466E-01 1.503E-02 2.690E-01 2.662E+00 1.961E+04  1.6241 1.00000
  5.000E+04 5.011E+04 2.409E+00 1.217E-01 1.675E-01 1.667E-02 3.058E-01 2.715E+00 2.146E+04  1.7530 1.00000
  5.500E+04 5.511E+04 2.423E+00 1.361E-01 1.888E-01 1.833E-02 3.433E-01 2.766E+00 2.329E+04  1.8730 1.00000
  6.000E+04 6.011E+04 2.435E+00 1.508E-01 2.105E-01 1.996E-02 3.812E-01 2.816E+00 2.508E+04  1.9853 1.00000
  7.000E+04 7.011E+04 2.457E+00 1.805E-01 2.546E-01 2.321E-02 4.584E-01 2.915E+00 2.857E+04  2.1903 1.00000
  8.000E+04 8.011E+04 2.475E+00 2.109E-01 2.997E-01 2.646E-02 5.371E-01 3.012E+00 3.195E+04  2.3740 1.00000
  9.000E+04 9.011E+04 2.490E+00 2.417E-01 3.456E-01 2.971E-02 6.170E-01 3.107E+00 3.522E+04  2.5406 1.00000
  1.000E+05 1.001E+05 2.504E+00 2.729E-01 3.922E-01 3.289E-02 6.981E-01 3.202E+00 3.839E+04  2.6931 1.00000
  1.200E+05 1.201E+05 2.527E+00 3.365E-01 4.871E-01 3.937E-02 8.629E-01 3.390E+00 4.446E+04  2.9645 1.00000
  1.400E+05 1.401E+05 2.545E+00 4.012E-01 5.837E-01 4.585E-02 1.031E+00 3.576E+00 5.021E+04  3.2009 1.00000
  1.700E+05 1.701E+05 2.568E+00 5.001E-01 7.312E-01 5.556E-02 1.287E+00 3.855E+00 5.829E+04  3.5074 1.00000
  2.000E+05 2.001E+05 2.587E+00 6.007E-01 8.811E-01 6.531E-02 1.547E+00 4.134E+00 6.581E+04  3.7708 1.00000
  2.500E+05 2.501E+05 2.612E+00 7.715E-01 1.135E+00 8.161E-02 1.988E+00 4.600E+00 7.729E+04  4.1422 1.00000
  3.000E+05 3.001E+05 2.632E+00 9.451E-01 1.392E+00 9.802E-02 2.436E+00 5.068E+00 8.766E+04  4.4533 1.00000
  3.500E+05 3.501E+05 2.649E+00 1.121E+00 1.653E+00 1.146E-01 2.888E+00 5.537E+00 9.711E+04  4.7213 1.00000
  4.000E+05 4.001E+05 2.663E+00 1.299E+00 1.915E+00 1.313E-01 3.345E+00 6.008E+00 1.058E+05  4.9570 1.00000
  4.500E+05 4.501E+05 2.675E+00 1.478E+00 2.179E+00 1.480E-01 3.805E+00 6.480E+00 1.138E+05  5.1674 1.00000
  5.000E+05 5.001E+05 2.686E+00 1.659E+00 2.444E+00 1.649E-01 4.268E+00 6.954E+00 1.213E+05  5.3575 1.00000
  5.500E+05 5.501E+05 2.696E+00 1.841E+00 2.711E+00 1.817E-01 4.734E+00 7.429E+00 1.282E+05  5.5309 1.00000
  6.000E+05 6.001E+05 2.705E+00 2.024E+00 2.979E+00 1.985E-01 5.201E+00 7.906E+00 1.347E+05  5.6904 1.00000
  7.000E+05 7.001E+05 2.720E+00 2.392E+00 3.516E+00 2.325E-01 6.141E+00 8.861E+00 1.467E+05  5.9755 1.00000
  8.000E+05 8.001E+05 2.733E+00 2.764E+00 4.057E+00 2.669E-01 7.087E+00 9.820E+00 1.574E+05  6.2250 1.00000
  9.000E+05 9.001E+05 2.745E+00 3.137E+00 4.599E+00 3.015E-01 8.038E+00 1.078E+01 1.672E+05  6.4468 1.00000
  1.000E+06 1.000E+06 2.755E+00 3.513E+00 5.143E+00 3.365E-01 8.992E+00 1.175E+01 1.761E+05  6.6465 1.00000
  1.200E+06 1.200E+06 2.773E+00 4.268E+00 6.236E+00 4.073E-01 1.091E+01 1.369E+01 1.919E+05  6.9948 1.00000
  1.400E+06 1.400E+06 2.788E+00 5.029E+00 7.333E+00 4.791E-01 1.284E+01 1.563E+01 2.056E+05  7.2917 1.00000
  1.700E+06 1.700E+06 2.807E+00 6.178E+00 8.984E+00 5.884E-01 1.575E+01 1.856E+01 2.233E+05  7.6684 1.00000
  2.000E+06 2.000E+06 2.823E+00 7.334E+00 1.064E+01 6.995E-01 1.867E+01 2.150E+01 2.383E+05  7.9859 1.00000
  2.500E+06 2.500E+06 2.845E+00 9.271E+00 1.341E+01 8.881E-01 2.357E+01 2.641E+01 2.594E+05  8.4244 1.00000
  3.000E+06 3.000E+06 2.862E+00 1.122E+01 1.619E+01 1.080E+00 2.848E+01 3.135E+01 2.769E+05  8.7845 1.00000
  3.500E+06 3.500E+06 2.877E+00 1.317E+01 1.897E+01 1.275E+00 3.342E+01 3.629E+01 2.917E+05  9.0901 1.00000
  4.000E+06 4.000E+06 2.890E+00 1.513E+01 2.175E+01 1.473E+00 3.836E+01 4.125E+01 3.047E+05  9.3555 1.00000
  4.500E+06 4.500E+06 2.902E+00 1.710E+01 2.454E+01 1.674E+00 4.332E+01 4.622E+01 3.161E+05  9.5899 1.00000
  5.000E+06 5.000E+06 2.912E+00 1.907E+01 2.733E+01 1.877E+00 4.828E+01 5.119E+01 3.264E+05  9.8000 1.00000
  5.500E+06 5.500E+06 2.921E+00 2.104E+01 3.013E+01 2.081E+00 5.325E+01 5.617E+01 3.358E+05  9.9901 1.00000
  6.000E+06 6.000E+06 2.930E+00 2.302E+01 3.292E+01 2.288E+00 5.823E+01 6.116E+01 3.443E+05 10.1639 1.00000
  7.000E+06 7.000E+06 2.945E+00 2.697E+01 3.852E+01 2.707E+00 6.820E+01 7.115E+01 3.595E+05 10.4719 1.00000
  8.000E+06 8.000E+06 2.958E+00 3.094E+01 4.412E+01 3.131E+00 7.819E+01 8.115E+01 3.727E+05 10.7388 1.00000
  9.000E+06 9.000E+06 2.970E+00 3.491E+01 4.972E+01 3.562E+00 8.819E+01 9.116E+01 3.844E+05 10.9744 1.00000
  1.000E+07 1.000E+07 2.981E+00 3.888E+01 5.533E+01 3.997E+00 9.821E+01 1.012E+02 3.948E+05 11.1851 1.00000
  1.200E+07 1.200E+07 2.999E+00 4.685E+01 6.655E+01 4.881E+00 1.183E+02 1.213E+02 4.129E+05 11.5497 1.00000
  1.400E+07 1.400E+07 3.015E+00 5.482E+01 7.777E+01 5.781E+00 1.384E+02 1.414E+02 4.282E+05 11.8580 1.00000
  1.700E+07 1.700E+07 3.035E+00 6.679E+01 9.462E+01 7.156E+00 1.686E+02 1.716E+02 4.476E+05 12.2463 1.00000
  2.000E+07 2.000E+07 3.051E+00 7.878E+01 1.115E+02 8.558E+00 1.988E+02 2.019E+02 4.637E+05 12.5714 1.00000
  2.500E+07 2.500E+07 3.075E+00 9.877E+01 1.396E+02 1.094E+01 2.493E+02 2.524E+02 4.860E+05 13.0177 1.00000
  3.000E+07 3.000E+07 3.094E+00 1.188E+02 1.677E+02 1.338E+01 2.999E+02 3.029E+02 5.042E+05 13.3823 1.00000
  3.500E+07 3.500E+07 3.110E+00 1.388E+02 1.958E+02 1.587E+01 3.505E+02 3.536E+02 5.195E+05 13.6906 1.00000
  4.000E+07 4.000E+07 3.125E+00 1.589E+02 2.239E+02 1.839E+01 4.012E+02 4.043E+02 5.328E+05 13.9577 1.00000
  4.500E+07 4.500E+07 3.137E+00 1.789E+02 2.520E+02 2.095E+01 4.519E+02 4.550E+02 5.445E+05 14.1932 1.00000
  5.000E+07 5.000E+07 3.149E+00 1.990E+02 2.802E+02 2.354E+01 5.027E+02 5.058E+02 5.549E+05 14.4039 1.00000
  5.500E+07 5.500E+07 3.159E+00 2.190E+02 3.083E+02 2.616E+01 5.535E+02 5.566E+02 5.643E+05 14.5946 1.00000
  6.000E+07 6.000E+07 3.168E+00 2.391E+02 3.364E+02 2.880E+01 6.043E+02 6.075E+02 5.729E+05 14.7686 1.00000
  7.000E+07 7.000E+07 3.185E+00 2.792E+02 3.927E+02 3.417E+01 7.061E+02 7.093E+02 5.882E+05 15.0769 1.00000
  8.000E+07 8.000E+07 3.200E+00 3.193E+02 4.490E+02 3.962E+01 8.080E+02 8.112E+02 6.014E+05 15.3440 1.00000
  9.000E+07 9.000E+07 3.213E+00 3.595E+02 5.053E+02 4.515E+01 9.099E+02 9.131E+02 6.131E+05 15.5795 1.00000
  1.000E+08 1.000E+08 3.225E+00 3.997E+02 5.615E+02 5.074E+01 1.012E+03 1.015E+03 6.235E+05 15.7902 1.00000
  1.200E+08 1.200E+08 3.245E+00 4.800E+02 6.741E+02 6.212E+01 1.216E+03 1.219E+03 6.415E+05 16.1549 1.00000
  1.400E+08 1.400E+08 3.263E+00 5.603E+02 7.867E+02 7.372E+01 1.421E+03 1.424E+03 6.567E+05 16.4632 1.00000
  1.700E+08 1.700E+08 3.285E+00 6.809E+02 9.556E+02 9.148E+01 1.728E+03 1.731E+03 6.759E+05 16.8515 1.00000
  2.000E+08 2.000E+08 3.304E+00 8.014E+02 1.124E+03 1.096E+02 2.035E+03 2.039E+03 6.920E+05 17.1765 1.00000
  2.500E+08 2.500E+08 3.330E+00 1.002E+03 1.406E+03 1.405E+02 2.549E+03 2.552E+03 7.140E+05 17.6228 1.00000
  3.000E+08 3.000E+08 3.351E+00 1.203E+03 1.687E+03 1.721E+02 3.063E+03 3.066E+03 7.320E+05 17.9875 1.00000
  3.500E+08 3.500E+08 3.369E+00 1.404E+03 1.969E+03 2.043E+02 3.577E+03 3.581E+03 7.471E+05 18.2958 1.00000
  4.000E+08 4.000E+08 3.385E+00 1.605E+03 2.250E+03 2.370E+02 4.093E+03 4.096E+03 7.602E+05 18.5628 1.00000
  4.500E+08 4.500E+08 3.399E+00 1.806E+03 2.532E+03 2.703E+02 4.608E+03 4.612E+03 7.717E+05 18.7984 1.00000
  5.000E+08 5.000E+08 3.412E+00 2.007E+03 2.813E+03 3.040E+02 5.124E+03 5.128E+03 7.820E+05 19.0091 1.00000
  5.500E+08 5.500E+08 3.424E+00 2.208E+03 3.095E+03 3.380E+02 5.641E+03 5.644E+03 7.913E+05 19.1997 1.00000
  6.000E+08 6.000E+08 3.434E+00 2.409E+03 3.376E+03 3.725E+02 6.158E+03 6.161E+03 7.998E+05 19.3738 1.00000
  7.000E+08 7.000E+08 3.453E+00 2.811E+03 3.939E+03 4.423E+02 7.193E+03 7.196E+03 8.149E+05 19.6821 1.00000
  8.000E+08 8.000E+08 3.470E+00 3.213E+03 4.502E+03 5.134E+02 8.228E+03 8.232E+03 8.279E+05 19.9491 1.00000
  9.000E+08 9.000E+08 3.484E+00 3.615E+03 5.065E+03 5.855E+02 9.265E+03 9.269E+03 8.394E+05 20.1847 1.00000
  1.000E+09 1.000E+09 3.497E+00 4.017E+03 5.628E+03 6.586E+02 1.030E+04 1.031E+04 8.496E+05 20.3954 1.00000
