 Incident particle is a Muon with M = 105.65839 MeV
 Index = 0: Butane
      Absorber with <Z/A> = 0.58484
 Sternheimer coef:  a     k=m_s   x_0    x_1    I[eV]   Cbar  delta0
                 0.1085  3.4884  1.3792  3.7528   48.3  8.5651 0.00

 *** Table generated with PUMAS v1.00 ***

      T         p     Ionization  brems     pair     photonuc  Radloss    dE/dx   CSDA Range  delta   beta
    [MeV]    [MeV/c]  -----------------------[MeV cm^2/g]------------------------  [g/cm^2]
  1.000E+00 1.457E+01 5.749E+01 5.985E-07 0.000E+00 0.000E+00 5.985E-07 5.749E+01 8.698E-03  0.0000 0.13661
  1.200E+00 1.597E+01 4.948E+01 6.841E-07 0.000E+00 0.000E+00 6.841E-07 4.948E+01 1.246E-02  0.0000 0.14944
  1.400E+00 1.726E+01 4.358E+01 7.659E-07 0.000E+00 0.000E+00 7.659E-07 4.358E+01 1.677E-02  0.0000 0.16119
  1.700E+00 1.903E+01 3.713E+01 8.827E-07 0.000E+00 0.000E+00 8.827E-07 3.713E+01 2.426E-02  0.0000 0.17725
  2.000E+00 2.066E+01 3.246E+01 9.936E-07 0.000E+00 0.000E+00 9.936E-07 3.246E+01 3.292E-02  0.0000 0.19186
  2.500E+00 2.312E+01 2.700E+01 1.168E-06 0.000E+00 0.000E+00 1.168E-06 2.700E+01 4.988E-02  0.0000 0.21376
  3.000E+00 2.536E+01 2.324E+01 1.331E-06 0.000E+00 0.000E+00 1.331E-06 2.324E+01 6.989E-02  0.0000 0.23336
  3.500E+00 2.742E+01 2.048E+01 1.485E-06 0.000E+00 0.000E+00 1.485E-06 2.048E+01 9.286E-02  0.0000 0.25120
  4.000E+00 2.935E+01 1.836E+01 1.632E-06 0.000E+00 0.000E+00 1.632E-06 1.836E+01 1.187E-01  0.0000 0.26763
  4.500E+00 3.116E+01 1.668E+01 1.772E-06 0.000E+00 0.000E+00 1.772E-06 1.668E+01 1.473E-01  0.0000 0.28290
  5.000E+00 3.289E+01 1.531E+01 1.907E-06 0.000E+00 0.000E+00 1.907E-06 1.531E+01 1.786E-01  0.0000 0.29720
  5.500E+00 3.453E+01 1.418E+01 2.036E-06 0.000E+00 0.000E+00 2.036E-06 1.418E+01 2.126E-01  0.0000 0.31066
  6.000E+00 3.611E+01 1.323E+01 2.161E-06 0.000E+00 0.000E+00 2.161E-06 1.323E+01 2.491E-01  0.0000 0.32339
  7.000E+00 3.909E+01 1.170E+01 2.400E-06 0.000E+00 0.000E+00 2.400E-06 1.170E+01 3.296E-01  0.0000 0.34700
  8.000E+00 4.189E+01 1.054E+01 2.625E-06 0.000E+00 0.000E+00 2.625E-06 1.054E+01 4.198E-01  0.0000 0.36854
  9.000E+00 4.453E+01 9.616E+00 2.839E-06 0.000E+00 0.000E+00 2.839E-06 9.616E+00 5.193E-01  0.0000 0.38836
  1.000E+01 4.704E+01 8.869E+00 3.043E-06 0.000E+00 0.000E+00 3.043E-06 8.869E+00 6.276E-01  0.0000 0.40675
  1.200E+01 5.177E+01 7.732E+00 3.428E-06 0.000E+00 0.000E+00 3.428E-06 7.732E+00 8.697E-01  0.0000 0.43998
  1.400E+01 5.616E+01 6.905E+00 3.787E-06 0.000E+00 0.000E+00 3.787E-06 6.905E+00 1.144E+00  0.0000 0.46937
  1.700E+01 6.230E+01 6.014E+00 4.289E-06 0.000E+00 0.000E+00 4.289E-06 6.014E+00 1.611E+00  0.0000 0.50792
  2.000E+01 6.802E+01 5.382E+00 4.758E-06 0.000E+00 0.000E+00 4.758E-06 5.382E+00 2.139E+00  0.0000 0.54129
  2.500E+01 7.686E+01 4.656E+00 5.486E-06 0.000E+00 0.000E+00 5.486E-06 4.656E+00 3.140E+00  0.0000 0.58827
  3.000E+01 8.509E+01 4.167E+00 6.168E-06 0.000E+00 0.000E+00 6.168E-06 4.167E+00 4.277E+00  0.0000 0.62720
  3.500E+01 9.285E+01 3.816E+00 6.821E-06 0.000E+00 0.000E+00 6.821E-06 3.816E+00 5.532E+00  0.0000 0.66011
  4.000E+01 1.003E+02 3.553E+00 7.454E-06 0.000E+00 0.000E+00 7.454E-06 3.553E+00 6.891E+00  0.0000 0.68834
  4.500E+01 1.074E+02 3.350E+00 8.074E-06 0.000E+00 0.000E+00 8.074E-06 3.350E+00 8.341E+00  0.0000 0.71286
  5.000E+01 1.143E+02 3.188E+00 8.685E-06 0.000E+00 0.000E+00 8.685E-06 3.188E+00 9.871E+00  0.0000 0.73434
  5.500E+01 1.210E+02 3.056E+00 9.291E-06 0.000E+00 0.000E+00 9.291E-06 3.056E+00 1.147E+01  0.0000 0.75332
  6.000E+01 1.276E+02 2.948E+00 9.894E-06 0.000E+00 0.000E+00 9.894E-06 2.948E+00 1.314E+01  0.0000 0.77019
  7.000E+01 1.403E+02 2.781E+00 1.110E-05 0.000E+00 0.000E+00 1.110E-05 2.781E+00 1.663E+01  0.0000 0.79887
  8.000E+01 1.527E+02 2.659E+00 1.231E-05 0.000E+00 0.000E+00 1.231E-05 2.659E+00 2.031E+01  0.0000 0.82227
  9.000E+01 1.647E+02 2.568E+00 1.354E-05 0.000E+00 0.000E+00 1.354E-05 2.568E+00 2.414E+01  0.0000 0.84166
  1.000E+02 1.764E+02 2.499E+00 1.479E-05 0.000E+00 0.000E+00 1.479E-05 2.499E+00 2.809E+01  0.0000 0.85794
  1.200E+02 1.994E+02 2.402E+00 1.734E-05 0.000E+00 0.000E+00 1.734E-05 2.402E+00 3.625E+01  0.0000 0.88361
  1.400E+02 2.218E+02 2.340E+00 1.998E-05 0.000E+00 0.000E+00 1.998E-05 2.340E+00 4.469E+01  0.0000 0.90278
  1.700E+02 2.546E+02 2.285E+00 2.410E-05 3.494E-14 0.000E+00 2.410E-05 2.285E+00 5.766E+01  0.0000 0.92363
  2.000E+02 2.868E+02 2.257E+00 2.843E-05 7.800E-12 0.000E+00 2.843E-05 2.257E+00 7.087E+01  0.0000 0.93835
  2.500E+02 3.396E+02 2.240E+00 3.605E-05 6.433E-08 0.000E+00 3.611E-05 2.240E+00 9.311E+01  0.0000 0.95485
  3.000E+02 3.917E+02 2.242E+00 4.416E-05 5.617E-07 0.000E+00 4.472E-05 2.242E+00 1.154E+02  0.0000 0.96548
  3.500E+02 4.432E+02 2.253E+00 5.270E-05 1.539E-06 0.000E+00 5.424E-05 2.253E+00 1.377E+02  0.0000 0.97274
  4.000E+02 4.945E+02 2.268E+00 6.166E-05 2.973E-06 0.000E+00 6.463E-05 2.268E+00 1.598E+02  0.0000 0.97793
  4.500E+02 5.455E+02 2.285E+00 7.098E-05 4.847E-06 0.000E+00 7.583E-05 2.285E+00 1.818E+02  0.0000 0.98176
  5.000E+02 5.964E+02 2.303E+00 8.065E-05 7.145E-06 0.000E+00 8.780E-05 2.304E+00 2.035E+02  0.0000 0.98467
  5.500E+02 6.471E+02 2.322E+00 9.065E-05 9.853E-06 0.000E+00 1.005E-04 2.322E+00 2.252E+02  0.0000 0.98693
  6.000E+02 6.977E+02 2.340E+00 1.009E-04 1.296E-05 0.000E+00 1.139E-04 2.340E+00 2.466E+02  0.0000 0.98873
  7.000E+02 7.987E+02 2.376E+00 1.224E-04 2.030E-05 0.000E+00 1.427E-04 2.376E+00 2.890E+02  0.0000 0.99136
  8.000E+02 8.995E+02 2.410E+00 1.448E-04 2.907E-05 0.000E+00 1.739E-04 2.410E+00 3.308E+02  0.0000 0.99317
  9.000E+02 1.000E+03 2.441E+00 1.682E-04 3.918E-05 0.000E+00 2.074E-04 2.441E+00 3.720E+02  0.0000 0.99447
  1.000E+03 1.101E+03 2.470E+00 1.924E-04 5.054E-05 0.000E+00 2.430E-04 2.471E+00 4.128E+02  0.0000 0.99542
  1.200E+03 1.301E+03 2.523E+00 2.432E-04 7.677E-05 2.258E-05 3.425E-04 2.524E+00 4.929E+02  0.0000 0.99672
  1.400E+03 1.502E+03 2.570E+00 2.966E-04 1.072E-04 6.195E-05 4.658E-04 2.570E+00 5.714E+02  0.0000 0.99753
  1.700E+03 1.803E+03 2.630E+00 3.811E-04 1.600E-04 1.333E-04 6.744E-04 2.631E+00 6.868E+02  0.0000 0.99829
  2.000E+03 2.103E+03 2.682E+00 4.703E-04 2.203E-04 2.178E-04 9.084E-04 2.683E+00 7.997E+02  0.0000 0.99874
  2.500E+03 2.604E+03 2.753E+00 6.276E-04 3.354E-04 3.821E-04 1.345E-03 2.755E+00 9.836E+02  0.0166 0.99918
  3.000E+03 3.104E+03 2.803E+00 7.941E-04 4.660E-04 5.558E-04 1.816E-03 2.805E+00 1.164E+03  0.1328 0.99942
  3.500E+03 3.604E+03 2.844E+00 9.686E-04 6.101E-04 7.408E-04 2.320E-03 2.846E+00 1.340E+03  0.2463 0.99957
  4.000E+03 4.104E+03 2.878E+00 1.150E-03 7.825E-04 9.392E-04 2.872E-03 2.881E+00 1.515E+03  0.3557 0.99967
  4.500E+03 4.604E+03 2.908E+00 1.338E-03 9.726E-04 1.146E-03 3.456E-03 2.911E+00 1.688E+03  0.4604 0.99974
  5.000E+03 5.105E+03 2.934E+00 1.531E-03 1.174E-03 1.346E-03 4.051E-03 2.938E+00 1.859E+03  0.5603 0.99979
  5.500E+03 5.605E+03 2.957E+00 1.729E-03 1.387E-03 1.561E-03 4.677E-03 2.962E+00 2.028E+03  0.6557 0.99982
  6.000E+03 6.105E+03 2.978E+00 1.932E-03 1.609E-03 1.763E-03 5.303E-03 2.983E+00 2.196E+03  0.7469 0.99985
  7.000E+03 7.105E+03 3.014E+00 2.350E-03 2.079E-03 2.190E-03 6.620E-03 3.020E+00 2.530E+03  0.9175 0.99989
  8.000E+03 8.105E+03 3.044E+00 2.783E-03 2.581E-03 2.616E-03 7.981E-03 3.052E+00 2.859E+03  1.0745 0.99992
  9.000E+03 9.105E+03 3.070E+00 3.230E-03 3.111E-03 3.018E-03 9.359E-03 3.079E+00 3.185E+03  1.2196 0.99993
  1.000E+04 1.011E+04 3.092E+00 3.688E-03 3.666E-03 3.433E-03 1.079E-02 3.103E+00 3.509E+03  1.3546 0.99995
  1.200E+04 1.211E+04 3.130E+00 4.637E-03 4.840E-03 4.278E-03 1.375E-02 3.144E+00 4.149E+03  1.5992 0.99996
  1.400E+04 1.411E+04 3.161E+00 5.621E-03 6.089E-03 5.128E-03 1.684E-02 3.177E+00 4.782E+03  1.8162 0.99997
  1.700E+04 1.711E+04 3.198E+00 7.155E-03 8.080E-03 6.391E-03 2.162E-02 3.219E+00 5.720E+03  2.1020 0.99998
  2.000E+04 2.011E+04 3.227E+00 8.746E-03 1.019E-02 7.634E-03 2.657E-02 3.254E+00 6.647E+03  2.3513 0.99999
  2.500E+04 2.511E+04 3.266E+00 1.151E-02 1.392E-02 9.683E-03 3.511E-02 3.302E+00 8.172E+03  2.7073 0.99999
  3.000E+04 3.011E+04 3.297E+00 1.438E-02 1.786E-02 1.170E-02 4.394E-02 3.341E+00 9.678E+03  3.0090 0.99999
  3.500E+04 3.511E+04 3.322E+00 1.734E-02 2.198E-02 1.375E-02 5.307E-02 3.375E+00 1.117E+04  3.2709 1.00000
  4.000E+04 4.011E+04 3.342E+00 2.037E-02 2.625E-02 1.577E-02 6.240E-02 3.405E+00 1.264E+04  3.5026 1.00000
  4.500E+04 4.511E+04 3.360E+00 2.348E-02 3.065E-02 1.778E-02 7.191E-02 3.432E+00 1.410E+04  3.7104 1.00000
  5.000E+04 5.011E+04 3.376E+00 2.664E-02 3.516E-02 1.979E-02 8.159E-02 3.457E+00 1.556E+04  3.8987 1.00000
  5.500E+04 5.511E+04 3.389E+00 2.986E-02 3.977E-02 2.181E-02 9.144E-02 3.481E+00 1.700E+04  4.0710 1.00000
  6.000E+04 6.011E+04 3.402E+00 3.313E-02 4.446E-02 2.382E-02 1.014E-01 3.503E+00 1.843E+04  4.2299 1.00000
  7.000E+04 7.011E+04 3.423E+00 3.978E-02 5.407E-02 2.780E-02 1.217E-01 3.545E+00 2.127E+04  4.5145 1.00000
  8.000E+04 8.011E+04 3.441E+00 4.659E-02 6.395E-02 3.181E-02 1.423E-01 3.584E+00 2.407E+04  4.7642 1.00000
  9.000E+04 9.011E+04 3.457E+00 5.352E-02 7.404E-02 3.582E-02 1.634E-01 3.621E+00 2.685E+04  4.9867 1.00000
  1.000E+05 1.001E+05 3.471E+00 6.056E-02 8.432E-02 3.976E-02 1.846E-01 3.656E+00 2.960E+04  5.1873 1.00000
  1.200E+05 1.201E+05 3.495E+00 7.493E-02 1.054E-01 4.779E-02 2.281E-01 3.723E+00 3.502E+04  5.5376 1.00000
  1.400E+05 1.401E+05 3.514E+00 8.963E-02 1.269E-01 5.583E-02 2.724E-01 3.786E+00 4.035E+04  5.8365 1.00000
  1.700E+05 1.701E+05 3.538E+00 1.122E-01 1.600E-01 6.793E-02 3.401E-01 3.878E+00 4.818E+04  6.2160 1.00000
  2.000E+05 2.001E+05 3.558E+00 1.352E-01 1.938E-01 8.010E-02 4.091E-01 3.967E+00 5.582E+04  6.5358 1.00000
  2.500E+05 2.501E+05 3.585E+00 1.744E-01 2.514E-01 1.005E-01 5.263E-01 4.112E+00 6.821E+04  6.9774 1.00000
  3.000E+05 3.001E+05 3.607E+00 2.144E-01 3.101E-01 1.210E-01 6.456E-01 4.253E+00 8.017E+04  7.3399 1.00000
  3.500E+05 3.501E+05 3.626E+00 2.551E-01 3.698E-01 1.419E-01 7.668E-01 4.393E+00 9.174E+04  7.6471 1.00000
  4.000E+05 4.001E+05 3.642E+00 2.964E-01 4.301E-01 1.628E-01 8.893E-01 4.531E+00 1.029E+05  7.9137 1.00000
  4.500E+05 4.501E+05 3.656E+00 3.381E-01 4.910E-01 1.839E-01 1.013E+00 4.669E+00 1.138E+05  8.1490 1.00000
  5.000E+05 5.001E+05 3.669E+00 3.803E-01 5.524E-01 2.051E-01 1.138E+00 4.806E+00 1.244E+05  8.3596 1.00000
  5.500E+05 5.501E+05 3.680E+00 4.228E-01 6.142E-01 2.262E-01 1.263E+00 4.943E+00 1.346E+05  8.5502 1.00000
  6.000E+05 6.001E+05 3.691E+00 4.656E-01 6.763E-01 2.475E-01 1.389E+00 5.080E+00 1.446E+05  8.7242 1.00000
  7.000E+05 7.001E+05 3.709E+00 5.520E-01 8.015E-01 2.903E-01 1.644E+00 5.353E+00 1.638E+05  9.0325 1.00000
  8.000E+05 8.001E+05 3.726E+00 6.393E-01 9.276E-01 3.337E-01 1.901E+00 5.626E+00 1.820E+05  9.2995 1.00000
  9.000E+05 9.001E+05 3.740E+00 7.274E-01 1.055E+00 3.774E-01 2.159E+00 5.899E+00 1.994E+05  9.5350 1.00000
  1.000E+06 1.000E+06 3.753E+00 8.161E-01 1.182E+00 4.216E-01 2.420E+00 6.173E+00 2.160E+05  9.7457 1.00000
  1.200E+06 1.200E+06 3.775E+00 9.952E-01 1.439E+00 5.110E-01 2.945E+00 6.720E+00 2.470E+05 10.1103 1.00000
  1.400E+06 1.400E+06 3.794E+00 1.176E+00 1.697E+00 6.018E-01 3.475E+00 7.269E+00 2.757E+05 10.4186 1.00000
  1.700E+06 1.700E+06 3.818E+00 1.450E+00 2.087E+00 7.400E-01 4.276E+00 8.095E+00 3.148E+05 10.8069 1.00000
  2.000E+06 2.000E+06 3.839E+00 1.726E+00 2.478E+00 8.805E-01 5.084E+00 8.923E+00 3.502E+05 11.1319 1.00000
  2.500E+06 2.500E+06 3.867E+00 2.190E+00 3.134E+00 1.119E+00 6.443E+00 1.031E+01 4.025E+05 11.5782 1.00000
  3.000E+06 3.000E+06 3.890E+00 2.657E+00 3.793E+00 1.362E+00 7.813E+00 1.170E+01 4.481E+05 11.9428 1.00000
  3.500E+06 3.500E+06 3.910E+00 3.128E+00 4.454E+00 1.609E+00 9.192E+00 1.310E+01 4.885E+05 12.2511 1.00000
  4.000E+06 4.000E+06 3.927E+00 3.601E+00 5.117E+00 1.860E+00 1.058E+01 1.450E+01 5.248E+05 12.5181 1.00000
  4.500E+06 4.500E+06 3.942E+00 4.076E+00 5.780E+00 2.114E+00 1.197E+01 1.591E+01 5.578E+05 12.7537 1.00000
  5.000E+06 5.000E+06 3.956E+00 4.553E+00 6.445E+00 2.371E+00 1.337E+01 1.732E+01 5.879E+05 12.9644 1.00000
  5.500E+06 5.500E+06 3.968E+00 5.030E+00 7.111E+00 2.630E+00 1.477E+01 1.874E+01 6.157E+05 13.1550 1.00000
  6.000E+06 6.000E+06 3.980E+00 5.509E+00 7.777E+00 2.892E+00 1.618E+01 2.016E+01 6.414E+05 13.3291 1.00000
  7.000E+06 7.000E+06 4.000E+00 6.469E+00 9.111E+00 3.422E+00 1.900E+01 2.300E+01 6.880E+05 13.6373 1.00000
  8.000E+06 8.000E+06 4.018E+00 7.433E+00 1.045E+01 3.960E+00 2.184E+01 2.586E+01 7.290E+05 13.9044 1.00000
  9.000E+06 9.000E+06 4.033E+00 8.399E+00 1.178E+01 4.505E+00 2.469E+01 2.872E+01 7.658E+05 14.1400 1.00000
  1.000E+07 1.000E+07 4.047E+00 9.366E+00 1.312E+01 5.056E+00 2.755E+01 3.159E+01 7.990E+05 14.3507 1.00000
  1.200E+07 1.200E+07 4.072E+00 1.131E+01 1.580E+01 6.177E+00 3.329E+01 3.736E+01 8.574E+05 14.7153 1.00000
  1.400E+07 1.400E+07 4.093E+00 1.325E+01 1.849E+01 7.317E+00 3.905E+01 4.315E+01 9.074E+05 15.0236 1.00000
  1.700E+07 1.700E+07 4.119E+00 1.618E+01 2.251E+01 9.060E+00 4.775E+01 5.187E+01 9.711E+05 15.4119 1.00000
  2.000E+07 2.000E+07 4.142E+00 1.911E+01 2.654E+01 1.084E+01 5.649E+01 6.063E+01 1.025E+06 15.7370 1.00000
  2.500E+07 2.500E+07 4.173E+00 2.400E+01 3.326E+01 1.386E+01 7.113E+01 7.530E+01 1.099E+06 16.1833 1.00000
  3.000E+07 3.000E+07 4.199E+00 2.891E+01 3.999E+01 1.695E+01 8.585E+01 9.005E+01 1.160E+06 16.5479 1.00000
  3.500E+07 3.500E+07 4.220E+00 3.382E+01 4.672E+01 2.010E+01 1.006E+02 1.049E+02 1.212E+06 16.8562 1.00000
  4.000E+07 4.000E+07 4.240E+00 3.873E+01 5.345E+01 2.330E+01 1.155E+02 1.197E+02 1.256E+06 17.1233 1.00000
  4.500E+07 4.500E+07 4.256E+00 4.365E+01 6.018E+01 2.654E+01 1.304E+02 1.346E+02 1.296E+06 17.3588 1.00000
  5.000E+07 5.000E+07 4.272E+00 4.858E+01 6.691E+01 2.982E+01 1.453E+02 1.496E+02 1.331E+06 17.5695 1.00000
  5.500E+07 5.500E+07 4.285E+00 5.350E+01 7.364E+01 3.314E+01 1.603E+02 1.646E+02 1.363E+06 17.7602 1.00000
  6.000E+07 6.000E+07 4.298E+00 5.843E+01 8.038E+01 3.650E+01 1.753E+02 1.796E+02 1.392E+06 17.9342 1.00000
  7.000E+07 7.000E+07 4.321E+00 6.829E+01 9.385E+01 4.330E+01 2.054E+02 2.098E+02 1.444E+06 18.2425 1.00000
  8.000E+07 8.000E+07 4.340E+00 7.815E+01 1.073E+02 5.020E+01 2.357E+02 2.400E+02 1.489E+06 18.5096 1.00000
  9.000E+07 9.000E+07 4.358E+00 8.802E+01 1.208E+02 5.721E+01 2.660E+02 2.704E+02 1.528E+06 18.7451 1.00000
  1.000E+08 1.000E+08 4.374E+00 9.789E+01 1.343E+02 6.431E+01 2.965E+02 3.008E+02 1.563E+06 18.9558 1.00000
  1.200E+08 1.200E+08 4.401E+00 1.176E+02 1.612E+02 7.873E+01 3.576E+02 3.620E+02 1.624E+06 19.3205 1.00000
  1.400E+08 1.400E+08 4.424E+00 1.374E+02 1.882E+02 9.344E+01 4.190E+02 4.235E+02 1.675E+06 19.6288 1.00000
  1.700E+08 1.700E+08 4.454E+00 1.671E+02 2.286E+02 1.159E+02 5.116E+02 5.161E+02 1.740E+06 20.0171 1.00000
  2.000E+08 2.000E+08 4.479E+00 1.967E+02 2.691E+02 1.389E+02 6.047E+02 6.092E+02 1.793E+06 20.3421 1.00000
  2.500E+08 2.500E+08 4.514E+00 2.462E+02 3.365E+02 1.780E+02 7.607E+02 7.652E+02 1.867E+06 20.7884 1.00000
  3.000E+08 3.000E+08 4.542E+00 2.956E+02 4.039E+02 2.181E+02 9.176E+02 9.221E+02 1.927E+06 21.1531 1.00000
  3.500E+08 3.500E+08 4.567E+00 3.451E+02 4.713E+02 2.589E+02 1.075E+03 1.080E+03 1.977E+06 21.4614 1.00000
  4.000E+08 4.000E+08 4.588E+00 3.946E+02 5.387E+02 3.004E+02 1.234E+03 1.238E+03 2.020E+06 21.7284 1.00000
  4.500E+08 4.500E+08 4.607E+00 4.440E+02 6.061E+02 3.426E+02 1.393E+03 1.397E+03 2.058E+06 21.9640 1.00000
  5.000E+08 5.000E+08 4.624E+00 4.935E+02 6.735E+02 3.853E+02 1.552E+03 1.557E+03 2.092E+06 22.1747 1.00000
  5.500E+08 5.500E+08 4.639E+00 5.430E+02 7.409E+02 4.285E+02 1.712E+03 1.717E+03 2.123E+06 22.3653 1.00000
  6.000E+08 6.000E+08 4.653E+00 5.925E+02 8.084E+02 4.721E+02 1.873E+03 1.878E+03 2.151E+06 22.5394 1.00000
  7.000E+08 7.000E+08 4.678E+00 6.915E+02 9.432E+02 5.607E+02 2.195E+03 2.200E+03 2.200E+06 22.8477 1.00000
  8.000E+08 8.000E+08 4.700E+00 7.905E+02 1.078E+03 6.507E+02 2.519E+03 2.524E+03 2.243E+06 23.1147 1.00000
  9.000E+08 9.000E+08 4.720E+00 8.895E+02 1.213E+03 7.422E+02 2.844E+03 2.849E+03 2.280E+06 23.3503 1.00000
  1.000E+09 1.000E+09 4.737E+00 9.885E+02 1.348E+03 8.348E+02 3.171E+03 3.176E+03 2.313E+06 23.5610 1.00000
