 Incident particle is a Muon with M = 105.65839 MeV
 Index = 0: CadmiumTelluride
      Absorber with <Z/A> = 0.41664
 Sternheimer coef:  a     k=m_s   x_0    x_1    I[eV]   Cbar  delta0
                 0.2484  2.6665  0.0438  3.2836  539.3  5.9096 0.00

 *** Table generated with PUMAS v1.00 ***

      T         p     Ionization  brems     pair     photonuc  Radloss    dE/dx   CSDA Range  delta   beta
    [MeV]    [MeV/c]  -----------------------[MeV cm^2/g]------------------------  [g/cm^2]
  1.000E+00 1.457E+01 2.441E+01 3.729E-06 0.000E+00 0.000E+00 3.729E-06 2.441E+01 2.048E-02  0.0000 0.13661
  1.200E+00 1.597E+01 2.143E+01 4.285E-06 0.000E+00 0.000E+00 4.285E-06 2.143E+01 2.924E-02  0.0000 0.14944
  1.400E+00 1.726E+01 1.917E+01 4.812E-06 0.000E+00 0.000E+00 4.812E-06 1.917E+01 3.913E-02  0.0000 0.16119
  1.700E+00 1.903E+01 1.662E+01 5.558E-06 0.000E+00 0.000E+00 5.558E-06 1.662E+01 5.598E-02  0.0000 0.17725
  2.000E+00 2.066E+01 1.474E+01 6.259E-06 0.000E+00 0.000E+00 6.259E-06 1.474E+01 7.518E-02  0.0000 0.19186
  2.500E+00 2.312E+01 1.248E+01 7.348E-06 0.000E+00 0.000E+00 7.348E-06 1.248E+01 1.122E-01  0.0000 0.21376
  3.000E+00 2.536E+01 1.089E+01 8.357E-06 0.000E+00 0.000E+00 8.357E-06 1.089E+01 1.552E-01  0.0000 0.23336
  3.500E+00 2.742E+01 9.694E+00 9.299E-06 0.000E+00 0.000E+00 9.299E-06 9.694E+00 2.039E-01  0.0000 0.25120
  4.000E+00 2.935E+01 8.768E+00 1.019E-05 0.000E+00 0.000E+00 1.019E-05 8.768E+00 2.582E-01  0.0000 0.26763
  4.500E+00 3.116E+01 8.025E+00 1.103E-05 0.000E+00 0.000E+00 1.103E-05 8.025E+00 3.179E-01  0.0000 0.28290
  5.000E+00 3.289E+01 7.415E+00 1.183E-05 0.000E+00 0.000E+00 1.183E-05 7.415E+00 3.828E-01  0.0000 0.29720
  5.500E+00 3.453E+01 6.905E+00 1.260E-05 0.000E+00 0.000E+00 1.260E-05 6.905E+00 4.527E-01  0.0000 0.31066
  6.000E+00 3.611E+01 6.471E+00 1.333E-05 0.000E+00 0.000E+00 1.333E-05 6.471E+00 5.275E-01  0.0000 0.32339
  7.000E+00 3.909E+01 5.773E+00 1.472E-05 0.000E+00 0.000E+00 1.472E-05 5.773E+00 6.914E-01  0.0000 0.34700
  8.000E+00 4.189E+01 5.233E+00 1.602E-05 0.000E+00 0.000E+00 1.602E-05 5.233E+00 8.735E-01  0.0000 0.36854
  9.000E+00 4.453E+01 4.803E+00 1.724E-05 0.000E+00 0.000E+00 1.724E-05 4.804E+00 1.073E+00  0.0000 0.38836
  1.000E+01 4.704E+01 4.453E+00 1.840E-05 0.000E+00 0.000E+00 1.840E-05 4.453E+00 1.290E+00  0.0000 0.40675
  1.200E+01 5.177E+01 3.913E+00 2.056E-05 0.000E+00 0.000E+00 2.056E-05 3.913E+00 1.770E+00  0.0000 0.43998
  1.400E+01 5.616E+01 3.518E+00 2.256E-05 0.000E+00 0.000E+00 2.256E-05 3.518E+00 2.309E+00  0.0000 0.46937
  1.700E+01 6.230E+01 3.088E+00 2.533E-05 0.000E+00 0.000E+00 2.533E-05 3.088E+00 3.222E+00  0.0000 0.50792
  2.000E+01 6.802E+01 2.780E+00 2.790E-05 0.000E+00 0.000E+00 2.790E-05 2.780E+00 4.247E+00  0.0000 0.54129
  2.500E+01 7.686E+01 2.425E+00 3.187E-05 0.000E+00 0.000E+00 3.187E-05 2.425E+00 6.177E+00  0.0000 0.58827
  3.000E+01 8.509E+01 2.184E+00 3.559E-05 0.000E+00 0.000E+00 3.559E-05 2.184E+00 8.353E+00  0.0000 0.62720
  3.500E+01 9.285E+01 2.010E+00 3.915E-05 0.000E+00 0.000E+00 3.915E-05 2.010E+00 1.074E+01  0.0000 0.66011
  4.000E+01 1.003E+02 1.880E+00 4.261E-05 0.000E+00 0.000E+00 4.261E-05 1.880E+00 1.331E+01  0.0000 0.68834
  4.500E+01 1.074E+02 1.779E+00 4.601E-05 0.000E+00 0.000E+00 4.601E-05 1.779E+00 1.605E+01  0.0000 0.71286
  5.000E+01 1.143E+02 1.698E+00 4.937E-05 0.000E+00 0.000E+00 4.937E-05 1.698E+00 1.893E+01  0.0000 0.73434
  5.500E+01 1.210E+02 1.633E+00 5.272E-05 0.000E+00 0.000E+00 5.272E-05 1.633E+00 2.193E+01 -0.0015 0.75332
  6.000E+01 1.276E+02 1.580E+00 5.607E-05 0.000E+00 0.000E+00 5.607E-05 1.580E+00 2.504E+01 -0.0021 0.77019
  7.000E+01 1.403E+02 1.497E+00 6.279E-05 0.000E+00 0.000E+00 6.279E-05 1.497E+00 3.155E+01 -0.0001 0.79887
  8.000E+01 1.527E+02 1.438E+00 6.959E-05 0.000E+00 0.000E+00 6.959E-05 1.438E+00 3.836E+01  0.0051 0.82227
  9.000E+01 1.647E+02 1.393E+00 7.651E-05 0.000E+00 0.000E+00 7.651E-05 1.393E+00 4.543E+01  0.0124 0.84166
  1.000E+02 1.764E+02 1.359E+00 8.355E-05 0.000E+00 0.000E+00 8.355E-05 1.359E+00 5.270E+01  0.0213 0.85794
  1.200E+02 1.994E+02 1.312E+00 9.805E-05 0.000E+00 0.000E+00 9.805E-05 1.312E+00 6.768E+01  0.0422 0.88361
  1.400E+02 2.218E+02 1.283E+00 1.131E-04 0.000E+00 0.000E+00 1.131E-04 1.283E+00 8.309E+01  0.0657 0.90278
  1.700E+02 2.546E+02 1.259E+00 1.369E-04 0.000E+00 0.000E+00 1.369E-04 1.259E+00 1.067E+02  0.1033 0.92363
  2.000E+02 2.868E+02 1.247E+00 1.619E-04 0.000E+00 0.000E+00 1.619E-04 1.247E+00 1.306E+02  0.1423 0.93835
  2.500E+02 3.396E+02 1.243E+00 2.063E-04 0.000E+00 0.000E+00 2.063E-04 1.243E+00 1.708E+02  0.2078 0.95485
  3.000E+02 3.917E+02 1.247E+00 2.538E-04 0.000E+00 0.000E+00 2.538E-04 1.247E+00 2.110E+02  0.2722 0.96548
  3.500E+02 4.432E+02 1.256E+00 3.042E-04 0.000E+00 0.000E+00 3.042E-04 1.256E+00 2.509E+02  0.3348 0.97274
  4.000E+02 4.945E+02 1.266E+00 3.571E-04 1.676E-05 0.000E+00 3.739E-04 1.267E+00 2.905E+02  0.3952 0.97793
  4.500E+02 5.455E+02 1.278E+00 4.125E-04 3.458E-05 0.000E+00 4.471E-04 1.278E+00 3.298E+02  0.4535 0.98176
  5.000E+02 5.964E+02 1.289E+00 4.701E-04 5.220E-05 0.000E+00 5.223E-04 1.289E+00 3.688E+02  0.5096 0.98467
  5.500E+02 6.471E+02 1.300E+00 5.298E-04 7.273E-05 0.000E+00 6.026E-04 1.301E+00 4.074E+02  0.5637 0.98693
  6.000E+02 6.977E+02 1.311E+00 5.915E-04 9.632E-05 0.000E+00 6.878E-04 1.312E+00 4.457E+02  0.6159 0.98873
  7.000E+02 7.987E+02 1.332E+00 7.203E-04 1.523E-04 0.000E+00 8.726E-04 1.333E+00 5.213E+02  0.7150 0.99136
  8.000E+02 8.995E+02 1.351E+00 8.558E-04 2.194E-04 0.000E+00 1.075E-03 1.352E+00 5.958E+02  0.8077 0.99317
  9.000E+02 1.000E+03 1.369E+00 9.972E-04 2.969E-04 0.000E+00 1.294E-03 1.370E+00 6.692E+02  0.8948 0.99447
  1.000E+03 1.101E+03 1.385E+00 1.144E-03 3.842E-04 0.000E+00 1.528E-03 1.387E+00 7.418E+02  0.9770 0.99542
  1.200E+03 1.301E+03 1.414E+00 1.453E-03 5.858E-04 2.247E-05 2.061E-03 1.416E+00 8.845E+02  1.1288 0.99672
  1.400E+03 1.502E+03 1.439E+00 1.779E-03 8.203E-04 6.101E-05 2.660E-03 1.442E+00 1.024E+03  1.2664 0.99753
  1.700E+03 1.803E+03 1.471E+00 2.297E-03 1.227E-03 1.294E-04 3.653E-03 1.475E+00 1.230E+03  1.4518 0.99829
  2.000E+03 2.103E+03 1.498E+00 2.844E-03 1.692E-03 2.091E-04 4.745E-03 1.502E+00 1.432E+03  1.6172 0.99874
  2.500E+03 2.604E+03 1.534E+00 3.812E-03 2.578E-03 3.614E-04 6.751E-03 1.541E+00 1.760E+03  1.8592 0.99918
  3.000E+03 3.104E+03 1.564E+00 4.838E-03 3.584E-03 5.193E-04 8.942E-03 1.573E+00 2.082E+03  2.0693 0.99942
  3.500E+03 3.604E+03 1.588E+00 5.914E-03 4.693E-03 6.851E-04 1.129E-02 1.599E+00 2.397E+03  2.2554 0.99957
  4.000E+03 4.104E+03 1.609E+00 7.032E-03 5.903E-03 8.612E-04 1.380E-02 1.623E+00 2.707E+03  2.4228 0.99967
  4.500E+03 4.604E+03 1.627E+00 8.188E-03 7.198E-03 1.043E-03 1.643E-02 1.644E+00 3.013E+03  2.5751 0.99974
  5.000E+03 5.105E+03 1.643E+00 9.379E-03 8.565E-03 1.217E-03 1.916E-02 1.663E+00 3.316E+03  2.7149 0.99979
  5.500E+03 5.605E+03 1.658E+00 1.060E-02 9.999E-03 1.404E-03 2.200E-02 1.680E+00 3.615E+03  2.8443 0.99982
  6.000E+03 6.105E+03 1.671E+00 1.185E-02 1.149E-02 1.578E-03 2.492E-02 1.696E+00 3.911E+03  2.9647 0.99985
  7.000E+03 7.105E+03 1.693E+00 1.442E-02 1.464E-02 1.945E-03 3.101E-02 1.724E+00 4.496E+03  3.1834 0.99989
  8.000E+03 8.105E+03 1.712E+00 1.708E-02 1.798E-02 2.308E-03 3.737E-02 1.750E+00 5.072E+03  3.3783 0.99992
  9.000E+03 9.105E+03 1.729E+00 1.982E-02 2.149E-02 2.648E-03 4.396E-02 1.773E+00 5.640E+03  3.5542 0.99993
  1.000E+04 1.011E+04 1.743E+00 2.262E-02 2.515E-02 2.998E-03 5.077E-02 1.794E+00 6.201E+03  3.7146 0.99995
  1.200E+04 1.211E+04 1.767E+00 2.842E-02 3.285E-02 3.704E-03 6.497E-02 1.832E+00 7.304E+03  3.9991 0.99996
  1.400E+04 1.411E+04 1.787E+00 3.441E-02 4.098E-02 4.409E-03 7.980E-02 1.867E+00 8.385E+03  4.2460 0.99997
  1.700E+04 1.711E+04 1.812E+00 4.373E-02 5.386E-02 5.450E-03 1.030E-01 1.915E+00 9.972E+03  4.5650 0.99998
  2.000E+04 2.011E+04 1.831E+00 5.337E-02 6.740E-02 6.467E-03 1.272E-01 1.959E+00 1.152E+04  4.8386 0.99999
  2.500E+04 2.511E+04 1.857E+00 7.001E-02 9.117E-02 8.130E-03 1.693E-01 2.027E+00 1.403E+04  5.2235 0.99999
  3.000E+04 3.011E+04 1.878E+00 8.724E-02 1.161E-01 9.757E-03 2.131E-01 2.091E+00 1.646E+04  5.5455 0.99999
  3.500E+04 3.511E+04 1.894E+00 1.050E-01 1.420E-01 1.140E-02 2.584E-01 2.153E+00 1.882E+04  5.8226 1.00000
  4.000E+04 4.011E+04 1.908E+00 1.231E-01 1.687E-01 1.301E-02 3.048E-01 2.213E+00 2.111E+04  6.0661 1.00000
  4.500E+04 4.511E+04 1.920E+00 1.416E-01 1.960E-01 1.461E-02 3.522E-01 2.273E+00 2.334E+04  6.2833 1.00000
  5.000E+04 5.011E+04 1.931E+00 1.604E-01 2.239E-01 1.620E-02 4.004E-01 2.331E+00 2.551E+04  6.4795 1.00000
  5.500E+04 5.511E+04 1.940E+00 1.794E-01 2.523E-01 1.780E-02 4.495E-01 2.390E+00 2.763E+04  6.6585 1.00000
  6.000E+04 6.011E+04 1.949E+00 1.987E-01 2.811E-01 1.938E-02 4.992E-01 2.448E+00 2.970E+04  6.8231 1.00000
  7.000E+04 7.011E+04 1.964E+00 2.380E-01 3.398E-01 2.251E-02 6.002E-01 2.564E+00 3.369E+04  7.1171 1.00000
  8.000E+04 8.011E+04 1.976E+00 2.779E-01 3.997E-01 2.565E-02 7.033E-01 2.679E+00 3.750E+04  7.3743 1.00000
  9.000E+04 9.011E+04 1.987E+00 3.186E-01 4.607E-01 2.878E-02 8.080E-01 2.795E+00 4.116E+04  7.6029 1.00000
  1.000E+05 1.001E+05 1.996E+00 3.597E-01 5.225E-01 3.185E-02 9.140E-01 2.910E+00 4.467E+04  7.8086 1.00000
  1.200E+05 1.201E+05 2.013E+00 4.434E-01 6.482E-01 3.810E-02 1.130E+00 3.142E+00 5.129E+04  8.1670 1.00000
  1.400E+05 1.401E+05 2.026E+00 5.287E-01 7.763E-01 4.434E-02 1.349E+00 3.375E+00 5.743E+04  8.4722 1.00000
  1.700E+05 1.701E+05 2.043E+00 6.588E-01 9.716E-01 5.369E-02 1.684E+00 3.727E+00 6.590E+04  8.8586 1.00000
  2.000E+05 2.001E+05 2.057E+00 7.913E-01 1.170E+00 6.308E-02 2.024E+00 4.081E+00 7.360E+04  9.1832 1.00000
  2.500E+05 2.501E+05 2.076E+00 1.016E+00 1.505E+00 7.876E-02 2.600E+00 4.676E+00 8.507E+04  9.6293 1.00000
  3.000E+05 3.001E+05 2.091E+00 1.244E+00 1.845E+00 9.455E-02 3.184E+00 5.276E+00 9.516E+04  9.9938 1.00000
  3.500E+05 3.501E+05 2.105E+00 1.476E+00 2.189E+00 1.105E-01 3.775E+00 5.880E+00 1.041E+05 10.3020 1.00000
  4.000E+05 4.001E+05 2.116E+00 1.709E+00 2.535E+00 1.265E-01 4.371E+00 6.487E+00 1.123E+05 10.5689 1.00000
  4.500E+05 4.501E+05 2.126E+00 1.945E+00 2.883E+00 1.426E-01 4.971E+00 7.097E+00 1.196E+05 10.8045 1.00000
  5.000E+05 5.001E+05 2.135E+00 2.183E+00 3.233E+00 1.589E-01 5.575E+00 7.710E+00 1.264E+05 11.0151 1.00000
  5.500E+05 5.501E+05 2.143E+00 2.421E+00 3.585E+00 1.750E-01 6.181E+00 8.324E+00 1.326E+05 11.2057 1.00000
  6.000E+05 6.001E+05 2.151E+00 2.662E+00 3.937E+00 1.912E-01 6.790E+00 8.941E+00 1.384E+05 11.3797 1.00000
  7.000E+05 7.001E+05 2.164E+00 3.145E+00 4.646E+00 2.238E-01 8.015E+00 1.018E+01 1.489E+05 11.6880 1.00000
  8.000E+05 8.001E+05 2.176E+00 3.632E+00 5.358E+00 2.568E-01 9.247E+00 1.142E+01 1.582E+05 11.9550 1.00000
  9.000E+05 9.001E+05 2.186E+00 4.122E+00 6.072E+00 2.901E-01 1.048E+01 1.267E+01 1.666E+05 12.1905 1.00000
  1.000E+06 1.000E+06 2.195E+00 4.615E+00 6.788E+00 3.237E-01 1.173E+01 1.392E+01 1.741E+05 12.4012 1.00000
  1.200E+06 1.200E+06 2.211E+00 5.606E+00 8.227E+00 3.917E-01 1.422E+01 1.644E+01 1.874E+05 12.7658 1.00000
  1.400E+06 1.400E+06 2.224E+00 6.604E+00 9.670E+00 4.607E-01 1.673E+01 1.896E+01 1.987E+05 13.0741 1.00000
  1.700E+06 1.700E+06 2.242E+00 8.110E+00 1.184E+01 5.657E-01 2.052E+01 2.276E+01 2.132E+05 13.4624 1.00000
  2.000E+06 2.000E+06 2.256E+00 9.624E+00 1.402E+01 6.724E-01 2.432E+01 2.657E+01 2.255E+05 13.7874 1.00000
  2.500E+06 2.500E+06 2.276E+00 1.216E+01 1.766E+01 8.535E-01 3.068E+01 3.295E+01 2.425E+05 14.2337 1.00000
  3.000E+06 3.000E+06 2.293E+00 1.471E+01 2.131E+01 1.038E+00 3.706E+01 3.936E+01 2.564E+05 14.5983 1.00000
  3.500E+06 3.500E+06 2.307E+00 1.727E+01 2.497E+01 1.225E+00 4.347E+01 4.577E+01 2.682E+05 14.9066 1.00000
  4.000E+06 4.000E+06 2.319E+00 1.984E+01 2.863E+01 1.416E+00 4.989E+01 5.221E+01 2.785E+05 15.1736 1.00000
  4.500E+06 4.500E+06 2.330E+00 2.241E+01 3.230E+01 1.608E+00 5.632E+01 5.865E+01 2.875E+05 15.4092 1.00000
  5.000E+06 5.000E+06 2.340E+00 2.499E+01 3.597E+01 1.803E+00 6.276E+01 6.510E+01 2.956E+05 15.6199 1.00000
  5.500E+06 5.500E+06 2.348E+00 2.757E+01 3.964E+01 1.999E+00 6.921E+01 7.156E+01 3.029E+05 15.8105 1.00000
  6.000E+06 6.000E+06 2.356E+00 3.015E+01 4.332E+01 2.198E+00 7.566E+01 7.802E+01 3.096E+05 15.9846 1.00000
  7.000E+06 7.000E+06 2.371E+00 3.533E+01 5.067E+01 2.600E+00 8.859E+01 9.097E+01 3.215E+05 16.2928 1.00000
  8.000E+06 8.000E+06 2.384E+00 4.051E+01 5.803E+01 3.007E+00 1.015E+02 1.039E+02 3.319E+05 16.5599 1.00000
  9.000E+06 9.000E+06 2.395E+00 4.570E+01 6.539E+01 3.420E+00 1.145E+02 1.169E+02 3.409E+05 16.7955 1.00000
  1.000E+07 1.000E+07 2.405E+00 5.090E+01 7.276E+01 3.838E+00 1.275E+02 1.299E+02 3.491E+05 17.0062 1.00000
  1.200E+07 1.200E+07 2.422E+00 6.131E+01 8.750E+01 4.687E+00 1.535E+02 1.559E+02 3.632E+05 17.3708 1.00000
  1.400E+07 1.400E+07 2.437E+00 7.173E+01 1.022E+02 5.551E+00 1.795E+02 1.820E+02 3.751E+05 17.6791 1.00000
  1.700E+07 1.700E+07 2.456E+00 8.738E+01 1.244E+02 6.871E+00 2.186E+02 2.211E+02 3.901E+05 18.0674 1.00000
  2.000E+07 2.000E+07 2.472E+00 1.030E+02 1.465E+02 8.217E+00 2.578E+02 2.603E+02 4.027E+05 18.3925 1.00000
  2.500E+07 2.500E+07 2.494E+00 1.292E+02 1.834E+02 1.051E+01 3.231E+02 3.256E+02 4.200E+05 18.8388 1.00000
  3.000E+07 3.000E+07 2.513E+00 1.553E+02 2.204E+02 1.285E+01 3.886E+02 3.911E+02 4.340E+05 19.2034 1.00000
  3.500E+07 3.500E+07 2.528E+00 1.815E+02 2.573E+02 1.523E+01 4.540E+02 4.566E+02 4.459E+05 19.5117 1.00000
  4.000E+07 4.000E+07 2.542E+00 2.077E+02 2.942E+02 1.765E+01 5.196E+02 5.221E+02 4.562E+05 19.7788 1.00000
  4.500E+07 4.500E+07 2.554E+00 2.339E+02 3.312E+02 2.011E+01 5.852E+02 5.878E+02 4.652E+05 20.0143 1.00000
  5.000E+07 5.000E+07 2.565E+00 2.601E+02 3.681E+02 2.260E+01 6.508E+02 6.534E+02 4.733E+05 20.2250 1.00000
  5.500E+07 5.500E+07 2.574E+00 2.863E+02 4.051E+02 2.511E+01 7.165E+02 7.191E+02 4.806E+05 20.4157 1.00000
  6.000E+07 6.000E+07 2.583E+00 3.125E+02 4.421E+02 2.765E+01 7.822E+02 7.848E+02 4.872E+05 20.5897 1.00000
  7.000E+07 7.000E+07 2.599E+00 3.649E+02 5.160E+02 3.280E+01 9.137E+02 9.163E+02 4.991E+05 20.8980 1.00000
  8.000E+07 8.000E+07 2.614E+00 4.174E+02 5.899E+02 3.803E+01 1.045E+03 1.048E+03 5.093E+05 21.1651 1.00000
  9.000E+07 9.000E+07 2.626E+00 4.698E+02 6.638E+02 4.334E+01 1.177E+03 1.180E+03 5.183E+05 21.4006 1.00000
  1.000E+08 1.000E+08 2.637E+00 5.223E+02 7.378E+02 4.871E+01 1.309E+03 1.311E+03 5.264E+05 21.6113 1.00000
  1.200E+08 1.200E+08 2.657E+00 6.272E+02 8.856E+02 5.964E+01 1.573E+03 1.575E+03 5.403E+05 21.9760 1.00000
  1.400E+08 1.400E+08 2.673E+00 7.322E+02 1.034E+03 7.078E+01 1.836E+03 1.839E+03 5.521E+05 22.2843 1.00000
  1.700E+08 1.700E+08 2.694E+00 8.896E+02 1.255E+03 8.782E+01 2.233E+03 2.236E+03 5.670E+05 22.6726 1.00000
  2.000E+08 2.000E+08 2.712E+00 1.047E+03 1.477E+03 1.052E+02 2.630E+03 2.632E+03 5.794E+05 22.9976 1.00000
  2.500E+08 2.500E+08 2.737E+00 1.310E+03 1.847E+03 1.348E+02 3.291E+03 3.294E+03 5.965E+05 23.4439 1.00000
  3.000E+08 3.000E+08 2.757E+00 1.572E+03 2.217E+03 1.652E+02 3.954E+03 3.957E+03 6.104E+05 23.8086 1.00000
  3.500E+08 3.500E+08 2.775E+00 1.835E+03 2.586E+03 1.961E+02 4.617E+03 4.620E+03 6.221E+05 24.1169 1.00000
  4.000E+08 4.000E+08 2.790E+00 2.097E+03 2.956E+03 2.276E+02 5.281E+03 5.284E+03 6.323E+05 24.3839 1.00000
  4.500E+08 4.500E+08 2.803E+00 2.360E+03 3.326E+03 2.595E+02 5.945E+03 5.948E+03 6.412E+05 24.6195 1.00000
  5.000E+08 5.000E+08 2.815E+00 2.622E+03 3.695E+03 2.918E+02 6.610E+03 6.612E+03 6.492E+05 24.8302 1.00000
  5.500E+08 5.500E+08 2.826E+00 2.885E+03 4.065E+03 3.245E+02 7.274E+03 7.277E+03 6.564E+05 25.0208 1.00000
  6.000E+08 6.000E+08 2.836E+00 3.147E+03 4.435E+03 3.576E+02 7.940E+03 7.943E+03 6.630E+05 25.1949 1.00000
  7.000E+08 7.000E+08 2.854E+00 3.672E+03 5.174E+03 4.246E+02 9.271E+03 9.274E+03 6.747E+05 25.5032 1.00000
  8.000E+08 8.000E+08 2.870E+00 4.198E+03 5.914E+03 4.928E+02 1.060E+04 1.061E+04 6.848E+05 25.7702 1.00000
  9.000E+08 9.000E+08 2.884E+00 4.723E+03 6.653E+03 5.621E+02 1.194E+04 1.194E+04 6.937E+05 26.0058 1.00000
  1.000E+09 1.000E+09 2.896E+00 5.248E+03 7.392E+03 6.322E+02 1.327E+04 1.328E+04 7.016E+05 26.2165 1.00000
