 Incident particle is a Muon with M = 105.65839 MeV
 Index = 0: CalciumOxide
      Absorber with <Z/A> = 0.49931
 Sternheimer coef:  a     k=m_s   x_0    x_1    I[eV]   Cbar  delta0
                 0.1213  3.1936  0.0172  3.0171  176.1  4.1209 0.00

 *** Table generated with PUMAS v1.00 ***

      T         p     Ionization  brems     pair     photonuc  Radloss    dE/dx   CSDA Range  delta   beta
    [MeV]    [MeV/c]  -----------------------[MeV cm^2/g]------------------------  [g/cm^2]
  1.000E+00 1.457E+01 3.845E+01 1.630E-06 0.000E+00 0.000E+00 1.630E-06 3.845E+01 1.300E-02  0.0000 0.13661
  1.200E+00 1.597E+01 3.337E+01 1.874E-06 0.000E+00 0.000E+00 1.874E-06 3.337E+01 1.860E-02  0.0000 0.14944
  1.400E+00 1.726E+01 2.957E+01 2.105E-06 0.000E+00 0.000E+00 2.105E-06 2.957E+01 2.498E-02  0.0000 0.16119
  1.700E+00 1.903E+01 2.538E+01 2.435E-06 0.000E+00 0.000E+00 2.435E-06 2.538E+01 3.596E-02  0.0000 0.17725
  2.000E+00 2.066E+01 2.233E+01 2.747E-06 0.000E+00 0.000E+00 2.747E-06 2.233E+01 4.859E-02  0.0000 0.19186
  2.500E+00 2.312E+01 1.871E+01 3.233E-06 0.000E+00 0.000E+00 3.233E-06 1.871E+01 7.315E-02  0.0000 0.21376
  3.000E+00 2.536E+01 1.620E+01 3.687E-06 0.000E+00 0.000E+00 3.687E-06 1.620E+01 1.019E-01  0.0000 0.23336
  3.500E+00 2.742E+01 1.434E+01 4.113E-06 0.000E+00 0.000E+00 4.113E-06 1.434E+01 1.348E-01  0.0000 0.25120
  4.000E+00 2.935E+01 1.290E+01 4.516E-06 0.000E+00 0.000E+00 4.516E-06 1.290E+01 1.716E-01  0.0000 0.26763
  4.500E+00 3.116E+01 1.176E+01 4.901E-06 0.000E+00 0.000E+00 4.901E-06 1.176E+01 2.123E-01  0.0000 0.28290
  5.000E+00 3.289E+01 1.083E+01 5.268E-06 0.000E+00 0.000E+00 5.268E-06 1.083E+01 2.566E-01  0.0000 0.29720
  5.500E+00 3.453E+01 1.005E+01 5.620E-06 0.000E+00 0.000E+00 5.620E-06 1.005E+01 3.045E-01  0.0000 0.31066
  6.000E+00 3.611E+01 9.396E+00 5.959E-06 0.000E+00 0.000E+00 5.959E-06 9.396E+00 3.560E-01  0.0000 0.32339
  7.000E+00 3.909E+01 8.343E+00 6.603E-06 0.000E+00 0.000E+00 6.603E-06 8.343E+00 4.692E-01  0.0000 0.34700
  8.000E+00 4.189E+01 7.535E+00 7.208E-06 0.000E+00 0.000E+00 7.208E-06 7.535E+00 5.954E-01  0.0000 0.36854
  9.000E+00 4.453E+01 6.894E+00 7.780E-06 0.000E+00 0.000E+00 7.780E-06 6.894E+00 7.343E-01  0.0000 0.38836
  1.000E+01 4.704E+01 6.373E+00 8.324E-06 0.000E+00 0.000E+00 8.324E-06 6.373E+00 8.853E-01  0.0000 0.40675
  1.200E+01 5.177E+01 5.576E+00 9.345E-06 0.000E+00 0.000E+00 9.345E-06 5.576E+00 1.222E+00  0.0000 0.43998
  1.400E+01 5.616E+01 4.995E+00 1.029E-05 0.000E+00 0.000E+00 1.029E-05 4.995E+00 1.601E+00  0.0000 0.46937
  1.700E+01 6.230E+01 4.366E+00 1.161E-05 0.000E+00 0.000E+00 1.161E-05 4.366E+00 2.245E+00  0.0000 0.50792
  2.000E+01 6.802E+01 3.918E+00 1.284E-05 0.000E+00 0.000E+00 1.284E-05 3.918E+00 2.971E+00  0.0000 0.54129
  2.500E+01 7.686E+01 3.402E+00 1.474E-05 0.000E+00 0.000E+00 1.474E-05 3.402E+00 4.344E+00  0.0000 0.58827
  3.000E+01 8.509E+01 3.053E+00 1.651E-05 0.000E+00 0.000E+00 1.651E-05 3.053E+00 5.898E+00  0.0000 0.62720
  3.500E+01 9.285E+01 2.803E+00 1.821E-05 0.000E+00 0.000E+00 1.821E-05 2.803E+00 7.609E+00  0.0000 0.66011
  4.000E+01 1.003E+02 2.615E+00 1.986E-05 0.000E+00 0.000E+00 1.986E-05 2.615E+00 9.457E+00  0.0000 0.68834
  4.500E+01 1.074E+02 2.469E+00 2.148E-05 0.000E+00 0.000E+00 2.148E-05 2.469E+00 1.143E+01  0.0000 0.71286
  5.000E+01 1.143E+02 2.351E+00 2.308E-05 0.000E+00 0.000E+00 2.308E-05 2.352E+00 1.350E+01  0.0146 0.73434
  5.500E+01 1.210E+02 2.256E+00 2.467E-05 0.000E+00 0.000E+00 2.467E-05 2.256E+00 1.567E+01  0.0242 0.75332
  6.000E+01 1.276E+02 2.178E+00 2.625E-05 0.000E+00 0.000E+00 2.625E-05 2.178E+00 1.793E+01  0.0347 0.77019
  7.000E+01 1.403E+02 2.056E+00 2.942E-05 0.000E+00 0.000E+00 2.942E-05 2.056E+00 2.265E+01  0.0577 0.79887
  8.000E+01 1.527E+02 1.968E+00 3.262E-05 0.000E+00 0.000E+00 3.262E-05 1.968E+00 2.763E+01  0.0824 0.82227
  9.000E+01 1.647E+02 1.901E+00 3.586E-05 0.000E+00 0.000E+00 3.586E-05 1.901E+00 3.280E+01  0.1080 0.84166
  1.000E+02 1.764E+02 1.850E+00 3.916E-05 0.000E+00 0.000E+00 3.916E-05 1.850E+00 3.813E+01  0.1341 0.85794
  1.200E+02 1.994E+02 1.778E+00 4.592E-05 0.000E+00 0.000E+00 4.592E-05 1.778E+00 4.916E+01  0.1867 0.88361
  1.400E+02 2.218E+02 1.732E+00 5.294E-05 0.000E+00 0.000E+00 5.294E-05 1.732E+00 6.056E+01  0.2390 0.90278
  1.700E+02 2.546E+02 1.690E+00 6.395E-05 1.442E-14 0.000E+00 6.395E-05 1.690E+00 7.809E+01  0.3157 0.92363
  2.000E+02 2.868E+02 1.668E+00 7.552E-05 3.225E-12 0.000E+00 7.552E-05 1.668E+00 9.596E+01  0.3896 0.93835
  2.500E+02 3.396E+02 1.652E+00 9.597E-05 2.648E-08 0.000E+00 9.600E-05 1.652E+00 1.261E+02  0.5066 0.95485
  3.000E+02 3.917E+02 1.650E+00 1.178E-04 1.584E-06 0.000E+00 1.194E-04 1.651E+00 1.564E+02  0.6160 0.96548
  3.500E+02 4.432E+02 1.655E+00 1.408E-04 4.519E-06 0.000E+00 1.454E-04 1.655E+00 1.866E+02  0.7186 0.97274
  4.000E+02 4.945E+02 1.663E+00 1.650E-04 8.870E-06 0.000E+00 1.739E-04 1.664E+00 2.167E+02  0.8152 0.97793
  4.500E+02 5.455E+02 1.673E+00 1.902E-04 1.459E-05 0.000E+00 2.048E-04 1.673E+00 2.467E+02  0.9064 0.98176
  5.000E+02 5.964E+02 1.683E+00 2.165E-04 2.163E-05 0.000E+00 2.381E-04 1.684E+00 2.765E+02  0.9928 0.98467
  5.500E+02 6.471E+02 1.694E+00 2.436E-04 2.993E-05 0.000E+00 2.735E-04 1.694E+00 3.061E+02  1.0748 0.98693
  6.000E+02 6.977E+02 1.705E+00 2.715E-04 3.947E-05 0.000E+00 3.110E-04 1.705E+00 3.355E+02  1.1531 0.98873
  7.000E+02 7.987E+02 1.725E+00 3.298E-04 6.207E-05 0.000E+00 3.918E-04 1.726E+00 3.938E+02  1.2992 0.99136
  8.000E+02 8.995E+02 1.745E+00 3.909E-04 8.911E-05 0.000E+00 4.800E-04 1.745E+00 4.514E+02  1.4337 0.99317
  9.000E+02 1.000E+03 1.763E+00 4.546E-04 1.203E-04 0.000E+00 5.749E-04 1.763E+00 5.084E+02  1.5584 0.99447
  1.000E+03 1.101E+03 1.779E+00 5.206E-04 1.554E-04 0.000E+00 6.760E-04 1.780E+00 5.649E+02  1.6746 0.99542
  1.200E+03 1.301E+03 1.809E+00 6.590E-04 2.364E-04 2.252E-05 9.179E-04 1.810E+00 6.763E+02  1.8859 0.99672
  1.400E+03 1.502E+03 1.835E+00 8.049E-04 3.306E-04 6.147E-05 1.197E-03 1.836E+00 7.860E+02  2.0745 0.99753
  1.700E+03 1.803E+03 1.868E+00 1.036E-03 4.939E-04 1.313E-04 1.661E-03 1.870E+00 9.479E+02  2.3245 0.99829
  2.000E+03 2.103E+03 1.896E+00 1.279E-03 6.805E-04 2.133E-04 2.173E-03 1.898E+00 1.107E+03  2.5441 0.99874
  2.500E+03 2.604E+03 1.934E+00 1.709E-03 1.036E-03 3.713E-04 3.116E-03 1.937E+00 1.368E+03  2.8602 0.99918
  3.000E+03 3.104E+03 1.964E+00 2.163E-03 1.440E-03 5.367E-04 4.140E-03 1.968E+00 1.624E+03  3.1303 0.99942
  3.500E+03 3.604E+03 1.990E+00 2.639E-03 1.886E-03 7.115E-04 5.236E-03 1.995E+00 1.876E+03  3.3664 0.99957
  4.000E+03 4.104E+03 2.012E+00 3.132E-03 2.381E-03 8.980E-04 6.411E-03 2.018E+00 2.126E+03  3.5765 0.99967
  4.500E+03 4.604E+03 2.031E+00 3.642E-03 2.915E-03 1.092E-03 7.649E-03 2.038E+00 2.372E+03  3.7658 0.99974
  5.000E+03 5.105E+03 2.047E+00 4.167E-03 3.480E-03 1.278E-03 8.924E-03 2.056E+00 2.616E+03  3.9382 0.99979
  5.500E+03 5.605E+03 2.062E+00 4.704E-03 4.072E-03 1.478E-03 1.025E-02 2.073E+00 2.859E+03  4.0966 0.99982
  6.000E+03 6.105E+03 2.076E+00 5.254E-03 4.690E-03 1.665E-03 1.161E-02 2.087E+00 3.099E+03  4.2431 0.99985
  7.000E+03 7.105E+03 2.099E+00 6.385E-03 5.996E-03 2.060E-03 1.444E-02 2.114E+00 3.575E+03  4.5068 0.99989
  8.000E+03 8.105E+03 2.119E+00 7.554E-03 7.383E-03 2.452E-03 1.739E-02 2.137E+00 4.046E+03  4.7395 0.99992
  9.000E+03 9.105E+03 2.136E+00 8.757E-03 8.842E-03 2.820E-03 2.042E-02 2.157E+00 4.511E+03  4.9477 0.99993
  1.000E+04 1.011E+04 2.152E+00 9.989E-03 1.036E-02 3.201E-03 2.355E-02 2.175E+00 4.973E+03  5.1363 0.99995
  1.200E+04 1.211E+04 2.177E+00 1.253E-02 1.358E-02 3.971E-03 3.008E-02 2.207E+00 5.886E+03  5.4672 0.99996
  1.400E+04 1.411E+04 2.198E+00 1.516E-02 1.698E-02 4.743E-03 3.688E-02 2.235E+00 6.786E+03  5.7514 0.99997
  1.700E+04 1.711E+04 2.224E+00 1.925E-02 2.238E-02 5.887E-03 4.751E-02 2.272E+00 8.118E+03  6.1143 0.99998
  2.000E+04 2.011E+04 2.245E+00 2.348E-02 2.807E-02 7.008E-03 5.856E-02 2.304E+00 9.429E+03  6.4221 0.99999
  2.500E+04 2.511E+04 2.273E+00 3.078E-02 3.809E-02 8.850E-03 7.772E-02 2.351E+00 1.158E+04  6.8497 0.99999
  3.000E+04 3.011E+04 2.295E+00 3.835E-02 4.864E-02 1.066E-02 9.765E-02 2.392E+00 1.369E+04  7.2029 0.99999
  3.500E+04 3.511E+04 2.313E+00 4.613E-02 5.962E-02 1.248E-02 1.182E-01 2.431E+00 1.576E+04  7.5038 1.00000
  4.000E+04 4.011E+04 2.328E+00 5.409E-02 7.096E-02 1.429E-02 1.393E-01 2.468E+00 1.780E+04  7.7659 1.00000
  4.500E+04 4.511E+04 2.342E+00 6.221E-02 8.260E-02 1.607E-02 1.609E-01 2.503E+00 1.981E+04  7.9980 1.00000
  5.000E+04 5.011E+04 2.353E+00 7.047E-02 9.450E-02 1.785E-02 1.828E-01 2.536E+00 2.180E+04  8.2064 1.00000
  5.500E+04 5.511E+04 2.364E+00 7.886E-02 1.066E-01 1.965E-02 2.051E-01 2.569E+00 2.376E+04  8.3953 1.00000
  6.000E+04 6.011E+04 2.373E+00 8.735E-02 1.190E-01 2.143E-02 2.277E-01 2.601E+00 2.569E+04  8.5681 1.00000
  7.000E+04 7.011E+04 2.390E+00 1.046E-01 1.442E-01 2.495E-02 2.737E-01 2.664E+00 2.949E+04  8.8749 1.00000
  8.000E+04 8.011E+04 2.404E+00 1.222E-01 1.699E-01 2.849E-02 3.207E-01 2.725E+00 3.320E+04  9.1411 1.00000
  9.000E+04 9.011E+04 2.417E+00 1.401E-01 1.962E-01 3.203E-02 3.684E-01 2.785E+00 3.683E+04  9.3762 1.00000
  1.000E+05 1.001E+05 2.428E+00 1.583E-01 2.229E-01 3.550E-02 4.167E-01 2.844E+00 4.039E+04  9.5866 1.00000
  1.200E+05 1.201E+05 2.447E+00 1.952E-01 2.773E-01 4.256E-02 5.151E-01 2.962E+00 4.728E+04  9.9509 1.00000
  1.400E+05 1.401E+05 2.463E+00 2.329E-01 3.329E-01 4.963E-02 6.154E-01 3.078E+00 5.390E+04 10.2590 1.00000
  1.700E+05 1.701E+05 2.483E+00 2.905E-01 4.178E-01 6.024E-02 7.686E-01 3.251E+00 6.339E+04 10.6470 1.00000
  2.000E+05 2.001E+05 2.499E+00 3.491E-01 5.043E-01 7.091E-02 9.244E-01 3.424E+00 7.238E+04 10.9719 1.00000
  2.500E+05 2.501E+05 2.522E+00 4.488E-01 6.510E-01 8.875E-02 1.188E+00 3.711E+00 8.642E+04 11.4180 1.00000
  3.000E+05 3.001E+05 2.541E+00 5.502E-01 8.000E-01 1.067E-01 1.457E+00 3.998E+00 9.941E+04 11.7825 1.00000
  3.500E+05 3.501E+05 2.557E+00 6.530E-01 9.508E-01 1.249E-01 1.729E+00 4.285E+00 1.115E+05 12.0907 1.00000
  4.000E+05 4.001E+05 2.570E+00 7.571E-01 1.103E+00 1.432E-01 2.003E+00 4.573E+00 1.228E+05 12.3576 1.00000
  4.500E+05 4.501E+05 2.582E+00 8.621E-01 1.256E+00 1.616E-01 2.280E+00 4.862E+00 1.334E+05 12.5932 1.00000
  5.000E+05 5.001E+05 2.593E+00 9.679E-01 1.411E+00 1.801E-01 2.559E+00 5.152E+00 1.434E+05 12.8038 1.00000
  5.500E+05 5.501E+05 2.603E+00 1.075E+00 1.566E+00 1.985E-01 2.839E+00 5.441E+00 1.529E+05 12.9944 1.00000
  6.000E+05 6.001E+05 2.612E+00 1.182E+00 1.721E+00 2.170E-01 3.120E+00 5.732E+00 1.618E+05 13.1684 1.00000
  7.000E+05 7.001E+05 2.628E+00 1.398E+00 2.034E+00 2.544E-01 3.686E+00 6.314E+00 1.784E+05 13.4767 1.00000
  8.000E+05 8.001E+05 2.642E+00 1.616E+00 2.349E+00 2.921E-01 4.257E+00 6.898E+00 1.936E+05 13.7437 1.00000
  9.000E+05 9.001E+05 2.654E+00 1.835E+00 2.665E+00 3.302E-01 4.830E+00 7.484E+00 2.075E+05 13.9792 1.00000
  1.000E+06 1.000E+06 2.665E+00 2.056E+00 2.983E+00 3.686E-01 5.407E+00 8.072E+00 2.204E+05 14.1899 1.00000
  1.200E+06 1.200E+06 2.684E+00 2.500E+00 3.620E+00 4.465E-01 6.567E+00 9.251E+00 2.436E+05 14.5545 1.00000
  1.400E+06 1.400E+06 2.700E+00 2.948E+00 4.261E+00 5.254E-01 7.734E+00 1.043E+01 2.640E+05 14.8628 1.00000
  1.700E+06 1.700E+06 2.721E+00 3.625E+00 5.225E+00 6.456E-01 9.495E+00 1.222E+01 2.907E+05 15.2511 1.00000
  2.000E+06 2.000E+06 2.738E+00 4.306E+00 6.193E+00 7.678E-01 1.127E+01 1.401E+01 3.137E+05 15.5761 1.00000
  2.500E+06 2.500E+06 2.762E+00 5.448E+00 7.813E+00 9.752E-01 1.424E+01 1.700E+01 3.462E+05 16.0224 1.00000
  3.000E+06 3.000E+06 2.782E+00 6.598E+00 9.437E+00 1.187E+00 1.722E+01 2.000E+01 3.734E+05 16.3870 1.00000
  3.500E+06 3.500E+06 2.799E+00 7.752E+00 1.107E+01 1.401E+00 2.022E+01 2.302E+01 3.968E+05 16.6953 1.00000
  4.000E+06 4.000E+06 2.813E+00 8.911E+00 1.270E+01 1.619E+00 2.323E+01 2.604E+01 4.172E+05 16.9623 1.00000
  4.500E+06 4.500E+06 2.827E+00 1.007E+01 1.433E+01 1.840E+00 2.624E+01 2.907E+01 4.354E+05 17.1979 1.00000
  5.000E+06 5.000E+06 2.838E+00 1.124E+01 1.596E+01 2.063E+00 2.926E+01 3.210E+01 4.518E+05 17.4086 1.00000
  5.500E+06 5.500E+06 2.849E+00 1.240E+01 1.760E+01 2.288E+00 3.229E+01 3.514E+01 4.667E+05 17.5992 1.00000
  6.000E+06 6.000E+06 2.859E+00 1.357E+01 1.924E+01 2.516E+00 3.533E+01 3.818E+01 4.804E+05 17.7733 1.00000
  7.000E+06 7.000E+06 2.876E+00 1.591E+01 2.251E+01 2.976E+00 4.141E+01 4.428E+01 5.048E+05 18.0815 1.00000
  8.000E+06 8.000E+06 2.891E+00 1.826E+01 2.580E+01 3.444E+00 4.750E+01 5.039E+01 5.260E+05 18.3486 1.00000
  9.000E+06 9.000E+06 2.904E+00 2.061E+01 2.908E+01 3.917E+00 5.361E+01 5.651E+01 5.448E+05 18.5842 1.00000
  1.000E+07 1.000E+07 2.916E+00 2.297E+01 3.236E+01 4.396E+00 5.973E+01 6.264E+01 5.616E+05 18.7949 1.00000
  1.200E+07 1.200E+07 2.937E+00 2.768E+01 3.894E+01 5.369E+00 7.199E+01 7.493E+01 5.909E+05 19.1595 1.00000
  1.400E+07 1.400E+07 2.955E+00 3.241E+01 4.552E+01 6.360E+00 8.428E+01 8.724E+01 6.157E+05 19.4678 1.00000
  1.700E+07 1.700E+07 2.978E+00 3.951E+01 5.539E+01 7.874E+00 1.028E+02 1.057E+02 6.471E+05 19.8561 1.00000
  2.000E+07 2.000E+07 2.997E+00 4.661E+01 6.527E+01 9.417E+00 1.213E+02 1.243E+02 6.733E+05 20.1812 1.00000
  2.500E+07 2.500E+07 3.024E+00 5.847E+01 8.175E+01 1.204E+01 1.523E+02 1.553E+02 7.096E+05 20.6275 1.00000
  3.000E+07 3.000E+07 3.046E+00 7.035E+01 9.823E+01 1.473E+01 1.833E+02 1.863E+02 7.391E+05 20.9921 1.00000
  3.500E+07 3.500E+07 3.064E+00 8.223E+01 1.147E+02 1.746E+01 2.144E+02 2.175E+02 7.640E+05 21.3004 1.00000
  4.000E+07 4.000E+07 3.080E+00 9.412E+01 1.312E+02 2.024E+01 2.456E+02 2.486E+02 7.855E+05 21.5675 1.00000
  4.500E+07 4.500E+07 3.095E+00 1.060E+02 1.477E+02 2.306E+01 2.768E+02 2.799E+02 8.045E+05 21.8030 1.00000
  5.000E+07 5.000E+07 3.108E+00 1.179E+02 1.642E+02 2.591E+01 3.080E+02 3.111E+02 8.215E+05 22.0137 1.00000
  5.500E+07 5.500E+07 3.120E+00 1.298E+02 1.807E+02 2.879E+01 3.393E+02 3.424E+02 8.368E+05 22.2044 1.00000
  6.000E+07 6.000E+07 3.130E+00 1.417E+02 1.972E+02 3.170E+01 3.706E+02 3.737E+02 8.508E+05 22.3784 1.00000
  7.000E+07 7.000E+07 3.150E+00 1.656E+02 2.302E+02 3.761E+01 4.333E+02 4.365E+02 8.756E+05 22.6867 1.00000
  8.000E+07 8.000E+07 3.167E+00 1.894E+02 2.632E+02 4.361E+01 4.962E+02 4.993E+02 8.971E+05 22.9538 1.00000
  9.000E+07 9.000E+07 3.181E+00 2.132E+02 2.962E+02 4.969E+01 5.591E+02 5.623E+02 9.160E+05 23.1893 1.00000
  1.000E+08 1.000E+08 3.195E+00 2.371E+02 3.292E+02 5.586E+01 6.221E+02 6.253E+02 9.329E+05 23.4000 1.00000
  1.200E+08 1.200E+08 3.218E+00 2.848E+02 3.952E+02 6.838E+01 7.483E+02 7.516E+02 9.622E+05 23.7647 1.00000
  1.400E+08 1.400E+08 3.238E+00 3.325E+02 4.612E+02 8.115E+01 8.748E+02 8.781E+02 9.869E+05 24.0730 1.00000
  1.700E+08 1.700E+08 3.263E+00 4.040E+02 5.603E+02 1.007E+02 1.065E+03 1.068E+03 1.018E+06 24.4613 1.00000
  2.000E+08 2.000E+08 3.285E+00 4.756E+02 6.593E+02 1.206E+02 1.256E+03 1.259E+03 1.044E+06 24.7863 1.00000
  2.500E+08 2.500E+08 3.314E+00 5.949E+02 8.244E+02 1.546E+02 1.574E+03 1.577E+03 1.080E+06 25.2326 1.00000
  3.000E+08 3.000E+08 3.339E+00 7.143E+02 9.895E+02 1.894E+02 1.893E+03 1.896E+03 1.109E+06 25.5973 1.00000
  3.500E+08 3.500E+08 3.360E+00 8.336E+02 1.155E+03 2.249E+02 2.213E+03 2.216E+03 1.133E+06 25.9056 1.00000
  4.000E+08 4.000E+08 3.378E+00 9.530E+02 1.320E+03 2.609E+02 2.534E+03 2.537E+03 1.154E+06 26.1726 1.00000
  4.500E+08 4.500E+08 3.394E+00 1.072E+03 1.485E+03 2.975E+02 2.855E+03 2.858E+03 1.173E+06 26.4082 1.00000
  5.000E+08 5.000E+08 3.408E+00 1.192E+03 1.650E+03 3.346E+02 3.176E+03 3.179E+03 1.190E+06 26.6189 1.00000
  5.500E+08 5.500E+08 3.422E+00 1.311E+03 1.815E+03 3.721E+02 3.498E+03 3.501E+03 1.205E+06 26.8095 1.00000
  6.000E+08 6.000E+08 3.434E+00 1.430E+03 1.980E+03 4.100E+02 3.820E+03 3.824E+03 1.218E+06 26.9836 1.00000
  7.000E+08 7.000E+08 3.455E+00 1.669E+03 2.310E+03 4.869E+02 4.466E+03 4.470E+03 1.242E+06 27.2919 1.00000
  8.000E+08 8.000E+08 3.474E+00 1.908E+03 2.640E+03 5.652E+02 5.113E+03 5.117E+03 1.263E+06 27.5589 1.00000
  9.000E+08 9.000E+08 3.491E+00 2.147E+03 2.970E+03 6.446E+02 5.762E+03 5.765E+03 1.282E+06 27.7945 1.00000
  1.000E+09 1.000E+09 3.506E+00 2.385E+03 3.300E+03 7.250E+02 6.411E+03 6.414E+03 1.298E+06 28.0052 1.00000
