 Incident particle is a Muon with M = 105.65839 MeV
 Index = 4: Calcite
      Absorber with <Z/A> = 0.49956
 Sternheimer coef:  a     k=m_s   x_0    x_1    I[eV]   Cbar  delta0
                 0.0830  3.4120  0.0492  3.0549  136.4  3.7738 0.00

 *** Table generated with PUMAS v0.8 ***

      T         p     Ionization  brems     pair     photonuc  Radloss    dE/dx   CSDA Range  delta   beta
    [MeV]    [MeV/c]  -----------------------[MeV cm^2/g]------------------------  [g/cm^2]
  1.000E+00 1.457E+01 4.057E+01 1.264E-06 0.000E+00 0.000E+00 1.264E-06 4.057E+01 1.232E-02  0.0000 0.13661
  1.200E+00 1.597E+01 3.514E+01 1.451E-06 0.000E+00 0.000E+00 1.451E-06 3.514E+01 1.764E-02  0.0000 0.14944
  1.400E+00 1.726E+01 3.110E+01 1.630E-06 0.000E+00 0.000E+00 1.630E-06 3.110E+01 2.370E-02  0.0000 0.16119
  1.700E+00 1.903E+01 2.664E+01 1.885E-06 0.000E+00 0.000E+00 1.885E-06 2.664E+01 3.415E-02  0.0000 0.17725
  2.000E+00 2.066E+01 2.340E+01 2.126E-06 0.000E+00 0.000E+00 2.126E-06 2.340E+01 4.619E-02  0.0000 0.19186
  2.500E+00 2.312E+01 1.958E+01 2.503E-06 0.000E+00 0.000E+00 2.503E-06 1.958E+01 6.964E-02  0.0000 0.21376
  3.000E+00 2.536E+01 1.692E+01 2.854E-06 0.000E+00 0.000E+00 2.854E-06 1.692E+01 9.718E-02  0.0000 0.23336
  3.500E+00 2.742E+01 1.497E+01 3.185E-06 0.000E+00 0.000E+00 3.185E-06 1.497E+01 1.287E-01  0.0000 0.25120
  4.000E+00 2.935E+01 1.346E+01 3.498E-06 0.000E+00 0.000E+00 3.498E-06 1.346E+01 1.639E-01  0.0000 0.26763
  4.500E+00 3.116E+01 1.226E+01 3.797E-06 0.000E+00 0.000E+00 3.797E-06 1.226E+01 2.029E-01  0.0000 0.28290
  5.000E+00 3.289E+01 1.128E+01 4.083E-06 0.000E+00 0.000E+00 4.083E-06 1.128E+01 2.455E-01  0.0000 0.29720
  5.500E+00 3.453E+01 1.046E+01 4.357E-06 0.000E+00 0.000E+00 4.357E-06 1.046E+01 2.915E-01  0.0000 0.31066
  6.000E+00 3.611E+01 9.776E+00 4.621E-06 0.000E+00 0.000E+00 4.621E-06 9.776E+00 3.410E-01  0.0000 0.32339
  7.000E+00 3.909E+01 8.673E+00 5.123E-06 0.000E+00 0.000E+00 5.123E-06 8.673E+00 4.498E-01  0.0000 0.34700
  8.000E+00 4.189E+01 7.828E+00 5.594E-06 0.000E+00 0.000E+00 5.594E-06 7.828E+00 5.713E-01  0.0000 0.36854
  9.000E+00 4.453E+01 7.158E+00 6.041E-06 0.000E+00 0.000E+00 6.041E-06 7.158E+00 7.050E-01  0.0000 0.38836
  1.000E+01 4.704E+01 6.613E+00 6.466E-06 0.000E+00 0.000E+00 6.466E-06 6.613E+00 8.505E-01  0.0000 0.40675
  1.200E+01 5.177E+01 5.782E+00 7.264E-06 0.000E+00 0.000E+00 7.264E-06 5.782E+00 1.175E+00  0.0000 0.43998
  1.400E+01 5.616E+01 5.175E+00 8.006E-06 0.000E+00 0.000E+00 8.006E-06 5.175E+00 1.541E+00  0.0000 0.46937
  1.700E+01 6.230E+01 4.520E+00 9.039E-06 0.000E+00 0.000E+00 9.039E-06 4.520E+00 2.163E+00  0.0000 0.50792
  2.000E+01 6.802E+01 4.054E+00 1.000E-05 0.000E+00 0.000E+00 1.000E-05 4.054E+00 2.864E+00  0.0000 0.54129
  2.500E+01 7.686E+01 3.517E+00 1.149E-05 0.000E+00 0.000E+00 1.149E-05 3.517E+00 4.192E+00  0.0000 0.58827
  3.000E+01 8.509E+01 3.154E+00 1.288E-05 0.000E+00 0.000E+00 1.288E-05 3.154E+00 5.696E+00  0.0000 0.62720
  3.500E+01 9.285E+01 2.894E+00 1.422E-05 0.000E+00 0.000E+00 1.422E-05 2.894E+00 7.352E+00  0.0000 0.66011
  4.000E+01 1.003E+02 2.699E+00 1.551E-05 0.000E+00 0.000E+00 1.551E-05 2.699E+00 9.142E+00  0.0000 0.68834
  4.500E+01 1.074E+02 2.548E+00 1.678E-05 0.000E+00 0.000E+00 1.678E-05 2.548E+00 1.105E+01  0.0000 0.71286
  5.000E+01 1.143E+02 2.427E+00 1.803E-05 0.000E+00 0.000E+00 1.803E-05 2.427E+00 1.306E+01  0.0000 0.73434
  5.500E+01 1.210E+02 2.329E+00 1.927E-05 0.000E+00 0.000E+00 1.927E-05 2.329E+00 1.516E+01  0.0053 0.75332
  6.000E+01 1.276E+02 2.247E+00 2.051E-05 0.000E+00 0.000E+00 2.051E-05 2.247E+00 1.735E+01  0.0202 0.77019
  7.000E+01 1.403E+02 2.120E+00 2.300E-05 0.000E+00 0.000E+00 2.300E-05 2.120E+00 2.193E+01  0.0511 0.79887
  8.000E+01 1.527E+02 2.027E+00 2.550E-05 0.000E+00 0.000E+00 2.550E-05 2.027E+00 2.676E+01  0.0830 0.82227
  9.000E+01 1.647E+02 1.957E+00 2.803E-05 0.000E+00 0.000E+00 2.803E-05 1.957E+00 3.178E+01  0.1151 0.84166
  1.000E+02 1.764E+02 1.903E+00 3.061E-05 0.000E+00 0.000E+00 3.061E-05 1.903E+00 3.697E+01  0.1473 0.85794
  1.200E+02 1.994E+02 1.827E+00 3.590E-05 0.000E+00 0.000E+00 3.590E-05 1.827E+00 4.769E+01  0.2107 0.88361
  1.400E+02 2.218E+02 1.778E+00 4.138E-05 0.000E+00 0.000E+00 4.138E-05 1.778E+00 5.879E+01  0.2726 0.90278
  1.700E+02 2.546E+02 1.733E+00 4.997E-05 2.893E-14 0.000E+00 4.997E-05 1.733E+00 7.589E+01  0.3618 0.92363
  2.000E+02 2.868E+02 1.708E+00 5.900E-05 6.467E-12 0.000E+00 5.900E-05 1.708E+00 9.332E+01  0.4468 0.93835
  2.500E+02 3.396E+02 1.690E+00 7.494E-05 5.315E-08 0.000E+00 7.500E-05 1.690E+00 1.228E+02  0.5794 0.95485
  3.000E+02 3.917E+02 1.686E+00 9.194E-05 1.229E-06 0.000E+00 9.317E-05 1.686E+00 1.524E+02  0.7021 0.96548
  3.500E+02 4.432E+02 1.690E+00 1.099E-04 3.472E-06 0.000E+00 1.134E-04 1.690E+00 1.820E+02  0.8162 0.97274
  4.000E+02 4.945E+02 1.697E+00 1.287E-04 6.791E-06 0.000E+00 1.355E-04 1.697E+00 2.115E+02  0.9229 0.97793
  4.500E+02 5.455E+02 1.705E+00 1.483E-04 1.115E-05 0.000E+00 1.595E-04 1.705E+00 2.409E+02  1.0232 0.98176
  5.000E+02 5.964E+02 1.715E+00 1.687E-04 1.650E-05 0.000E+00 1.852E-04 1.715E+00 2.701E+02  1.1177 0.98467
  5.500E+02 6.471E+02 1.725E+00 1.898E-04 2.283E-05 0.000E+00 2.126E-04 1.725E+00 2.992E+02  1.2073 0.98693
  6.000E+02 6.977E+02 1.735E+00 2.116E-04 3.008E-05 0.000E+00 2.416E-04 1.735E+00 3.281E+02  1.2923 0.98873
  7.000E+02 7.987E+02 1.754E+00 2.568E-04 4.727E-05 0.000E+00 3.041E-04 1.755E+00 3.854E+02  1.4506 0.99136
  8.000E+02 8.995E+02 1.773E+00 3.043E-04 6.783E-05 0.000E+00 3.721E-04 1.773E+00 4.421E+02  1.5956 0.99317
  9.000E+02 1.000E+03 1.790E+00 3.538E-04 9.154E-05 0.000E+00 4.453E-04 1.790E+00 4.982E+02  1.7294 0.99447
  1.000E+03 1.101E+03 1.806E+00 4.051E-04 1.182E-04 0.000E+00 5.233E-04 1.806E+00 5.539E+02  1.8538 0.99542
  1.200E+03 1.301E+03 1.835E+00 5.126E-04 1.798E-04 2.253E-05 7.149E-04 1.835E+00 6.637E+02  2.0791 0.99672
  1.400E+03 1.502E+03 1.859E+00 6.258E-04 2.514E-04 6.158E-05 9.388E-04 1.860E+00 7.719E+02  2.2793 0.99753
  1.700E+03 1.803E+03 1.891E+00 8.050E-04 3.754E-04 1.317E-04 1.312E-03 1.893E+00 9.318E+02  2.5436 0.99829
  2.000E+03 2.103E+03 1.918E+00 9.940E-04 5.172E-04 2.143E-04 1.725E-03 1.920E+00 1.089E+03  2.7747 0.99874
  2.500E+03 2.604E+03 1.955E+00 1.327E-03 7.875E-04 3.738E-04 2.488E-03 1.957E+00 1.347E+03  3.1060 0.99918
  3.000E+03 3.104E+03 1.985E+00 1.680E-03 1.095E-03 5.410E-04 3.315E-03 1.988E+00 1.601E+03  3.3878 0.99942
  3.500E+03 3.604E+03 2.010E+00 2.048E-03 1.433E-03 7.181E-04 4.200E-03 2.014E+00 1.851E+03  3.6334 0.99957
  4.000E+03 4.104E+03 2.031E+00 2.432E-03 1.813E-03 9.073E-04 5.152E-03 2.036E+00 2.097E+03  3.8512 0.99967
  4.500E+03 4.604E+03 2.049E+00 2.827E-03 2.223E-03 1.104E-03 6.155E-03 2.055E+00 2.342E+03  4.0470 0.99974
  5.000E+03 5.105E+03 2.066E+00 3.234E-03 2.658E-03 1.293E-03 7.185E-03 2.073E+00 2.584E+03  4.2250 0.99979
  5.500E+03 5.605E+03 2.080E+00 3.651E-03 3.114E-03 1.497E-03 8.262E-03 2.088E+00 2.824E+03  4.3882 0.99982
  6.000E+03 6.105E+03 2.093E+00 4.078E-03 3.590E-03 1.687E-03 9.354E-03 2.103E+00 3.063E+03  4.5390 0.99985
  7.000E+03 7.105E+03 2.116E+00 4.956E-03 4.596E-03 2.089E-03 1.164E-02 2.128E+00 3.536E+03  4.8098 0.99989
  8.000E+03 8.105E+03 2.136E+00 5.863E-03 5.665E-03 2.489E-03 1.402E-02 2.150E+00 4.003E+03  5.0481 0.99992
  9.000E+03 9.105E+03 2.153E+00 6.797E-03 6.790E-03 2.864E-03 1.645E-02 2.169E+00 4.466E+03  5.2610 0.99993
  1.000E+04 1.011E+04 2.168E+00 7.754E-03 7.965E-03 3.252E-03 1.897E-02 2.187E+00 4.926E+03  5.4534 0.99995
  1.200E+04 1.211E+04 2.193E+00 9.728E-03 1.044E-02 4.040E-03 2.421E-02 2.217E+00 5.834E+03  5.7904 0.99996
  1.400E+04 1.411E+04 2.213E+00 1.177E-02 1.307E-02 4.829E-03 2.967E-02 2.243E+00 6.731E+03  6.0790 0.99997
  1.700E+04 1.711E+04 2.239E+00 1.495E-02 1.725E-02 5.998E-03 3.819E-02 2.277E+00 8.058E+03  6.4469 0.99998
  2.000E+04 2.011E+04 2.260E+00 1.824E-02 2.165E-02 7.147E-03 4.704E-02 2.307E+00 9.367E+03  6.7581 0.99999
  2.500E+04 2.511E+04 2.287E+00 2.392E-02 2.941E-02 9.034E-03 6.236E-02 2.349E+00 1.152E+04  7.1896 0.99999
  3.000E+04 3.011E+04 2.309E+00 2.981E-02 3.758E-02 1.089E-02 7.828E-02 2.387E+00 1.363E+04  7.5452 0.99999
  3.500E+04 3.511E+04 2.327E+00 3.587E-02 4.610E-02 1.276E-02 9.473E-02 2.422E+00 1.571E+04  7.8477 1.00000
  4.000E+04 4.011E+04 2.342E+00 4.207E-02 5.490E-02 1.462E-02 1.116E-01 2.454E+00 1.776E+04  8.1109 1.00000
  4.500E+04 4.511E+04 2.356E+00 4.840E-02 6.393E-02 1.645E-02 1.288E-01 2.484E+00 1.978E+04  8.3438 1.00000
  5.000E+04 5.011E+04 2.367E+00 5.483E-02 7.318E-02 1.828E-02 1.463E-01 2.514E+00 2.178E+04  8.5526 1.00000
  5.500E+04 5.511E+04 2.378E+00 6.137E-02 8.260E-02 2.013E-02 1.641E-01 2.542E+00 2.376E+04  8.7418 1.00000
  6.000E+04 6.011E+04 2.387E+00 6.799E-02 9.218E-02 2.195E-02 1.821E-01 2.569E+00 2.572E+04  8.9149 1.00000
  7.000E+04 7.011E+04 2.404E+00 8.146E-02 1.118E-01 2.558E-02 2.188E-01 2.623E+00 2.957E+04  9.2219 1.00000
  8.000E+04 8.011E+04 2.418E+00 9.520E-02 1.318E-01 2.922E-02 2.563E-01 2.674E+00 3.335E+04  9.4882 1.00000
  9.000E+04 9.011E+04 2.431E+00 1.092E-01 1.523E-01 3.286E-02 2.943E-01 2.725E+00 3.705E+04  9.7233 1.00000
  1.000E+05 1.001E+05 2.442E+00 1.233E-01 1.731E-01 3.643E-02 3.329E-01 2.774E+00 4.069E+04  9.9338 1.00000
  1.200E+05 1.201E+05 2.461E+00 1.522E-01 2.155E-01 4.371E-02 4.114E-01 2.872E+00 4.777E+04 10.2980 1.00000
  1.400E+05 1.401E+05 2.477E+00 1.816E-01 2.588E-01 5.099E-02 4.914E-01 2.968E+00 5.463E+04 10.6061 1.00000
  1.700E+05 1.701E+05 2.497E+00 2.266E-01 3.251E-01 6.193E-02 6.137E-01 3.110E+00 6.450E+04 10.9941 1.00000
  2.000E+05 2.001E+05 2.513E+00 2.725E-01 3.926E-01 7.293E-02 7.381E-01 3.251E+00 7.394E+04 11.3190 1.00000
  2.500E+05 2.501E+05 2.536E+00 3.504E-01 5.072E-01 9.133E-02 9.490E-01 3.485E+00 8.880E+04 11.7651 1.00000
  3.000E+05 3.001E+05 2.555E+00 4.298E-01 6.238E-01 1.099E-01 1.163E+00 3.718E+00 1.027E+05 12.1296 1.00000
  3.500E+05 3.501E+05 2.570E+00 5.104E-01 7.418E-01 1.286E-01 1.381E+00 3.951E+00 1.157E+05 12.4378 1.00000
  4.000E+05 4.001E+05 2.584E+00 5.919E-01 8.609E-01 1.475E-01 1.600E+00 4.184E+00 1.281E+05 12.7047 1.00000
  4.500E+05 4.501E+05 2.596E+00 6.741E-01 9.809E-01 1.665E-01 1.822E+00 4.418E+00 1.397E+05 12.9403 1.00000
  5.000E+05 5.001E+05 2.607E+00 7.571E-01 1.102E+00 1.856E-01 2.044E+00 4.651E+00 1.507E+05 13.1509 1.00000
  5.500E+05 5.501E+05 2.617E+00 8.407E-01 1.223E+00 2.046E-01 2.268E+00 4.885E+00 1.612E+05 13.3415 1.00000
  6.000E+05 6.001E+05 2.626E+00 9.247E-01 1.345E+00 2.237E-01 2.494E+00 5.119E+00 1.712E+05 13.5155 1.00000
  7.000E+05 7.001E+05 2.642E+00 1.094E+00 1.591E+00 2.622E-01 2.947E+00 5.589E+00 1.899E+05 13.8238 1.00000
  8.000E+05 8.001E+05 2.656E+00 1.265E+00 1.837E+00 3.012E-01 3.404E+00 6.059E+00 2.071E+05 14.0908 1.00000
  9.000E+05 9.001E+05 2.668E+00 1.437E+00 2.085E+00 3.405E-01 3.863E+00 6.531E+00 2.230E+05 14.3263 1.00000
  1.000E+06 1.000E+06 2.679E+00 1.611E+00 2.334E+00 3.802E-01 4.325E+00 7.004E+00 2.378E+05 14.5370 1.00000
  1.200E+06 1.200E+06 2.698E+00 1.960E+00 2.835E+00 4.606E-01 5.255E+00 7.953E+00 2.647E+05 14.9016 1.00000
  1.400E+06 1.400E+06 2.714E+00 2.311E+00 3.338E+00 5.421E-01 6.191E+00 8.905E+00 2.885E+05 15.2099 1.00000
  1.700E+06 1.700E+06 2.735E+00 2.843E+00 4.095E+00 6.663E-01 7.605E+00 1.034E+01 3.198E+05 15.5982 1.00000
  2.000E+06 2.000E+06 2.752E+00 3.379E+00 4.856E+00 7.925E-01 9.027E+00 1.178E+01 3.471E+05 15.9232 1.00000
  2.500E+06 2.500E+06 2.776E+00 4.277E+00 6.128E+00 1.007E+00 1.141E+01 1.419E+01 3.859E+05 16.3695 1.00000
  3.000E+06 3.000E+06 2.796E+00 5.181E+00 7.404E+00 1.225E+00 1.381E+01 1.661E+01 4.186E+05 16.7341 1.00000
  3.500E+06 3.500E+06 2.813E+00 6.090E+00 8.684E+00 1.447E+00 1.622E+01 1.903E+01 4.468E+05 17.0424 1.00000
  4.000E+06 4.000E+06 2.828E+00 7.002E+00 9.966E+00 1.672E+00 1.864E+01 2.147E+01 4.716E+05 17.3094 1.00000
  4.500E+06 4.500E+06 2.841E+00 7.917E+00 1.125E+01 1.900E+00 2.107E+01 2.391E+01 4.937E+05 17.5450 1.00000
  5.000E+06 5.000E+06 2.852E+00 8.834E+00 1.253E+01 2.130E+00 2.350E+01 2.635E+01 5.136E+05 17.7557 1.00000
  5.500E+06 5.500E+06 2.863E+00 9.752E+00 1.382E+01 2.363E+00 2.594E+01 2.880E+01 5.318E+05 17.9463 1.00000
  6.000E+06 6.000E+06 2.873E+00 1.067E+01 1.511E+01 2.598E+00 2.838E+01 3.125E+01 5.485E+05 18.1204 1.00000
  7.000E+06 7.000E+06 2.890E+00 1.252E+01 1.768E+01 3.074E+00 3.328E+01 3.617E+01 5.783E+05 18.4286 1.00000
  8.000E+06 8.000E+06 2.905E+00 1.437E+01 2.026E+01 3.557E+00 3.819E+01 4.109E+01 6.043E+05 18.6957 1.00000
  9.000E+06 9.000E+06 2.918E+00 1.622E+01 2.285E+01 4.046E+00 4.311E+01 4.603E+01 6.273E+05 18.9313 1.00000
  1.000E+07 1.000E+07 2.930E+00 1.807E+01 2.543E+01 4.541E+00 4.804E+01 5.097E+01 6.480E+05 19.1420 1.00000
  1.200E+07 1.200E+07 2.951E+00 2.179E+01 3.060E+01 5.546E+00 5.794E+01 6.089E+01 6.840E+05 19.5066 1.00000
  1.400E+07 1.400E+07 2.969E+00 2.552E+01 3.577E+01 6.569E+00 6.786E+01 7.083E+01 7.146E+05 19.8149 1.00000
  1.700E+07 1.700E+07 2.992E+00 3.111E+01 4.354E+01 8.133E+00 8.278E+01 8.578E+01 7.532E+05 20.2032 1.00000
  2.000E+07 2.000E+07 3.011E+00 3.671E+01 5.131E+01 9.727E+00 9.775E+01 1.008E+02 7.856E+05 20.5283 1.00000
  2.500E+07 2.500E+07 3.038E+00 4.607E+01 6.427E+01 1.244E+01 1.228E+02 1.258E+02 8.303E+05 20.9746 1.00000
  3.000E+07 3.000E+07 3.060E+00 5.543E+01 7.723E+01 1.521E+01 1.479E+02 1.509E+02 8.667E+05 21.3392 1.00000
  3.500E+07 3.500E+07 3.078E+00 6.480E+01 9.020E+01 1.804E+01 1.730E+02 1.761E+02 8.975E+05 21.6475 1.00000
  4.000E+07 4.000E+07 3.095E+00 7.418E+01 1.032E+02 2.091E+01 1.983E+02 2.014E+02 9.241E+05 21.9146 1.00000
  4.500E+07 4.500E+07 3.109E+00 8.357E+01 1.161E+02 2.382E+01 2.235E+02 2.266E+02 9.475E+05 22.1501 1.00000
  5.000E+07 5.000E+07 3.122E+00 9.295E+01 1.291E+02 2.676E+01 2.488E+02 2.520E+02 9.685E+05 22.3608 1.00000
  5.500E+07 5.500E+07 3.134E+00 1.023E+02 1.421E+02 2.974E+01 2.742E+02 2.773E+02 9.874E+05 22.5515 1.00000
  6.000E+07 6.000E+07 3.145E+00 1.117E+02 1.551E+02 3.275E+01 2.996E+02 3.027E+02 1.005E+06 22.7255 1.00000
  7.000E+07 7.000E+07 3.164E+00 1.305E+02 1.810E+02 3.885E+01 3.504E+02 3.536E+02 1.035E+06 23.0338 1.00000
  8.000E+07 8.000E+07 3.181E+00 1.493E+02 2.070E+02 4.505E+01 4.014E+02 4.045E+02 1.062E+06 23.3009 1.00000
  9.000E+07 9.000E+07 3.196E+00 1.681E+02 2.329E+02 5.134E+01 4.524E+02 4.556E+02 1.085E+06 23.5364 1.00000
  1.000E+08 1.000E+08 3.209E+00 1.869E+02 2.589E+02 5.770E+01 5.036E+02 5.068E+02 1.106E+06 23.7471 1.00000
  1.200E+08 1.200E+08 3.232E+00 2.246E+02 3.108E+02 7.065E+01 6.061E+02 6.093E+02 1.142E+06 24.1118 1.00000
  1.400E+08 1.400E+08 3.252E+00 2.622E+02 3.628E+02 8.384E+01 7.088E+02 7.121E+02 1.173E+06 24.4201 1.00000
  1.700E+08 1.700E+08 3.278E+00 3.187E+02 4.407E+02 1.040E+02 8.634E+02 8.667E+02 1.211E+06 24.8084 1.00000
  2.000E+08 2.000E+08 3.299E+00 3.752E+02 5.186E+02 1.246E+02 1.018E+03 1.022E+03 1.243E+06 25.1334 1.00000
  2.500E+08 2.500E+08 3.329E+00 4.693E+02 6.484E+02 1.597E+02 1.278E+03 1.281E+03 1.287E+06 25.5797 1.00000
  3.000E+08 3.000E+08 3.353E+00 5.635E+02 7.783E+02 1.957E+02 1.537E+03 1.541E+03 1.323E+06 25.9444 1.00000
  3.500E+08 3.500E+08 3.374E+00 6.577E+02 9.082E+02 2.323E+02 1.798E+03 1.802E+03 1.353E+06 26.2527 1.00000
  4.000E+08 4.000E+08 3.392E+00 7.518E+02 1.038E+03 2.696E+02 2.059E+03 2.063E+03 1.379E+06 26.5197 1.00000
  4.500E+08 4.500E+08 3.408E+00 8.460E+02 1.168E+03 3.074E+02 2.321E+03 2.325E+03 1.402E+06 26.7553 1.00000
  5.000E+08 5.000E+08 3.423E+00 9.402E+02 1.298E+03 3.457E+02 2.584E+03 2.587E+03 1.422E+06 26.9660 1.00000
  5.500E+08 5.500E+08 3.436E+00 1.034E+03 1.428E+03 3.844E+02 2.846E+03 2.850E+03 1.441E+06 27.1566 1.00000
  6.000E+08 6.000E+08 3.448E+00 1.129E+03 1.557E+03 4.236E+02 3.110E+03 3.113E+03 1.457E+06 27.3307 1.00000
  7.000E+08 7.000E+08 3.469E+00 1.317E+03 1.817E+03 5.031E+02 3.637E+03 3.641E+03 1.487E+06 27.6390 1.00000
  8.000E+08 8.000E+08 3.488E+00 1.505E+03 2.077E+03 5.839E+02 4.166E+03 4.170E+03 1.513E+06 27.9060 1.00000
  9.000E+08 9.000E+08 3.505E+00 1.694E+03 2.337E+03 6.659E+02 4.696E+03 4.700E+03 1.536E+06 28.1416 1.00000
  1.000E+09 1.000E+09 3.520E+00 1.882E+03 2.596E+03 7.490E+02 5.228E+03 5.231E+03 1.556E+06 28.3523 1.00000
