 Incident particle is a Muon with M = 105.65839 MeV
 Index = 0: Californium
      Absorber with <Z/A> = 0.39031
 Sternheimer coef:  a     k=m_s   x_0    x_1    I[eV]   Cbar  delta0
                 0.2580  3.0000  0.0623  2.5000  966.0  4.0236 0.00

 *** Table generated with PUMAS v1.00 ***

      T         p     Ionization  brems     pair     photonuc  Radloss    dE/dx   CSDA Range  delta   beta
    [MeV]    [MeV/c]  -----------------------[MeV cm^2/g]------------------------  [g/cm^2]
  1.000E+00 1.457E+01 1.913E+01 6.461E-06 0.000E+00 0.000E+00 6.461E-06 1.913E+01 2.614E-02  0.0000 0.13661
  1.200E+00 1.597E+01 1.695E+01 7.416E-06 0.000E+00 0.000E+00 7.416E-06 1.695E+01 3.727E-02  0.0000 0.14944
  1.400E+00 1.726E+01 1.527E+01 8.320E-06 0.000E+00 0.000E+00 8.320E-06 1.527E+01 4.972E-02  0.0000 0.16119
  1.700E+00 1.903E+01 1.335E+01 9.595E-06 0.000E+00 0.000E+00 9.595E-06 1.335E+01 7.078E-02  0.0000 0.17725
  2.000E+00 2.066E+01 1.191E+01 1.079E-05 0.000E+00 0.000E+00 1.079E-05 1.191E+01 9.461E-02  0.0000 0.19186
  2.500E+00 2.312E+01 1.016E+01 1.264E-05 0.000E+00 0.000E+00 1.264E-05 1.016E+01 1.402E-01  0.0000 0.21376
  3.000E+00 2.536E+01 8.915E+00 1.434E-05 0.000E+00 0.000E+00 1.434E-05 8.915E+00 1.928E-01  0.0000 0.23336
  3.500E+00 2.742E+01 7.974E+00 1.593E-05 0.000E+00 0.000E+00 1.593E-05 7.974E+00 2.522E-01  0.0000 0.25120
  4.000E+00 2.935E+01 7.238E+00 1.742E-05 0.000E+00 0.000E+00 1.742E-05 7.238E+00 3.181E-01  0.0000 0.26763
  4.500E+00 3.116E+01 6.645E+00 1.883E-05 0.000E+00 0.000E+00 1.883E-05 6.645E+00 3.903E-01  0.0000 0.28290
  5.000E+00 3.289E+01 6.156E+00 2.017E-05 0.000E+00 0.000E+00 2.017E-05 6.156E+00 4.685E-01  0.0000 0.29720
  5.500E+00 3.453E+01 5.745E+00 2.144E-05 0.000E+00 0.000E+00 2.144E-05 5.745E+00 5.526E-01  0.0000 0.31066
  6.000E+00 3.611E+01 5.395E+00 2.266E-05 0.000E+00 0.000E+00 2.266E-05 5.395E+00 6.425E-01  0.0000 0.32339
  7.000E+00 3.909E+01 4.828E+00 2.497E-05 0.000E+00 0.000E+00 2.497E-05 4.828E+00 8.388E-01  0.0000 0.34700
  8.000E+00 4.189E+01 4.388E+00 2.711E-05 0.000E+00 0.000E+00 2.711E-05 4.388E+00 1.056E+00  0.0000 0.36854
  9.000E+00 4.453E+01 4.037E+00 2.912E-05 0.000E+00 0.000E+00 2.912E-05 4.037E+00 1.294E+00  0.0000 0.38836
  1.000E+01 4.704E+01 3.749E+00 3.103E-05 0.000E+00 0.000E+00 3.103E-05 3.749E+00 1.551E+00  0.0000 0.40675
  1.200E+01 5.177E+01 3.305E+00 3.457E-05 0.000E+00 0.000E+00 3.457E-05 3.305E+00 2.121E+00  0.0000 0.43998
  1.400E+01 5.616E+01 2.978E+00 3.784E-05 0.000E+00 0.000E+00 3.784E-05 2.978E+00 2.759E+00  0.0000 0.46937
  1.700E+01 6.230E+01 2.622E+00 4.237E-05 0.000E+00 0.000E+00 4.237E-05 2.622E+00 3.835E+00  0.0000 0.50792
  2.000E+01 6.802E+01 2.366E+00 4.655E-05 0.000E+00 0.000E+00 4.655E-05 2.366E+00 5.040E+00  0.0000 0.54129
  2.500E+01 7.686E+01 2.070E+00 5.303E-05 0.000E+00 0.000E+00 5.303E-05 2.070E+00 7.305E+00  0.0000 0.58827
  3.000E+01 8.509E+01 1.868E+00 5.910E-05 0.000E+00 0.000E+00 5.910E-05 1.868E+00 9.851E+00  0.0000 0.62720
  3.500E+01 9.285E+01 1.723E+00 6.491E-05 0.000E+00 0.000E+00 6.491E-05 1.723E+00 1.264E+01  0.0000 0.66011
  4.000E+01 1.003E+02 1.614E+00 7.057E-05 0.000E+00 0.000E+00 7.057E-05 1.614E+00 1.564E+01  0.0000 0.68834
  4.500E+01 1.074E+02 1.529E+00 7.613E-05 0.000E+00 0.000E+00 7.613E-05 1.529E+00 1.882E+01  0.0000 0.71286
  5.000E+01 1.143E+02 1.461E+00 8.165E-05 0.000E+00 0.000E+00 8.165E-05 1.462E+00 2.217E+01  0.0000 0.73434
  5.500E+01 1.210E+02 1.407E+00 8.715E-05 0.000E+00 0.000E+00 8.715E-05 1.407E+00 2.566E+01  0.0000 0.75332
  6.000E+01 1.276E+02 1.362E+00 9.265E-05 0.000E+00 0.000E+00 9.265E-05 1.362E+00 2.927E+01  0.0015 0.77019
  7.000E+01 1.403E+02 1.293E+00 1.037E-04 0.000E+00 0.000E+00 1.037E-04 1.293E+00 3.681E+01  0.0079 0.79887
  8.000E+01 1.527E+02 1.242E+00 1.149E-04 0.000E+00 0.000E+00 1.149E-04 1.242E+00 4.470E+01  0.0189 0.82227
  9.000E+01 1.647E+02 1.205E+00 1.264E-04 0.000E+00 0.000E+00 1.264E-04 1.205E+00 5.288E+01  0.0329 0.84166
  1.000E+02 1.764E+02 1.176E+00 1.380E-04 0.000E+00 0.000E+00 1.380E-04 1.176E+00 6.128E+01  0.0490 0.85794
  1.200E+02 1.994E+02 1.136E+00 1.620E-04 0.000E+00 0.000E+00 1.620E-04 1.137E+00 7.858E+01  0.0854 0.88361
  1.400E+02 2.218E+02 1.112E+00 1.871E-04 0.000E+00 0.000E+00 1.871E-04 1.112E+00 9.637E+01  0.1249 0.90278
  1.700E+02 2.546E+02 1.091E+00 2.266E-04 0.000E+00 0.000E+00 2.266E-04 1.091E+00 1.236E+02  0.1868 0.92363
  2.000E+02 2.868E+02 1.082E+00 2.683E-04 0.000E+00 0.000E+00 2.683E-04 1.082E+00 1.512E+02  0.2498 0.93835
  2.500E+02 3.396E+02 1.078E+00 3.424E-04 0.000E+00 0.000E+00 3.424E-04 1.078E+00 1.975E+02  0.3537 0.95485
  3.000E+02 3.917E+02 1.082E+00 4.219E-04 0.000E+00 0.000E+00 4.219E-04 1.082E+00 2.438E+02  0.4544 0.96548
  3.500E+02 4.432E+02 1.089E+00 5.063E-04 0.000E+00 0.000E+00 5.063E-04 1.089E+00 2.898E+02  0.5511 0.97274
  4.000E+02 4.945E+02 1.098E+00 5.953E-04 0.000E+00 0.000E+00 5.953E-04 1.098E+00 3.356E+02  0.6435 0.97793
  4.500E+02 5.455E+02 1.107E+00 6.884E-04 0.000E+00 0.000E+00 6.884E-04 1.108E+00 3.809E+02  0.7320 0.98176
  5.000E+02 5.964E+02 1.116E+00 7.854E-04 1.982E-07 0.000E+00 7.856E-04 1.117E+00 4.258E+02  0.8166 0.98467
  5.500E+02 6.471E+02 1.126E+00 8.861E-04 1.230E-04 0.000E+00 1.009E-03 1.127E+00 4.704E+02  0.8977 0.98693
  6.000E+02 6.977E+02 1.135E+00 9.901E-04 1.702E-04 0.000E+00 1.160E-03 1.136E+00 5.146E+02  0.9754 0.98873
  7.000E+02 7.987E+02 1.152E+00 1.208E-03 2.723E-04 0.000E+00 1.480E-03 1.153E+00 6.019E+02  1.1219 0.99136
  8.000E+02 8.995E+02 1.168E+00 1.437E-03 3.936E-04 0.000E+00 1.831E-03 1.170E+00 6.880E+02  1.2579 0.99317
  9.000E+02 1.000E+03 1.182E+00 1.677E-03 5.339E-04 0.000E+00 2.211E-03 1.184E+00 7.730E+02  1.3846 0.99447
  1.000E+03 1.101E+03 1.195E+00 1.926E-03 6.919E-04 0.000E+00 2.618E-03 1.198E+00 8.570E+02  1.5034 0.99542
  1.200E+03 1.301E+03 1.219E+00 2.451E-03 1.057E-03 2.244E-05 3.531E-03 1.222E+00 1.022E+03  1.7208 0.99672
  1.400E+03 1.502E+03 1.239E+00 3.007E-03 1.482E-03 6.076E-05 4.550E-03 1.243E+00 1.184E+03  1.9159 0.99753
  1.700E+03 1.803E+03 1.264E+00 3.890E-03 2.219E-03 1.285E-04 6.238E-03 1.271E+00 1.423E+03  2.1759 0.99829
  2.000E+03 2.103E+03 1.286E+00 4.826E-03 3.062E-03 2.069E-04 8.095E-03 1.294E+00 1.657E+03  2.4052 0.99874
  2.500E+03 2.604E+03 1.315E+00 6.483E-03 4.670E-03 3.563E-04 1.151E-02 1.326E+00 2.039E+03  2.7365 0.99918
  3.000E+03 3.104E+03 1.338E+00 8.243E-03 6.495E-03 5.105E-04 1.525E-02 1.353E+00 2.412E+03  3.0204 0.99942
  3.500E+03 3.604E+03 1.357E+00 1.009E-02 8.506E-03 6.718E-04 1.927E-02 1.376E+00 2.779E+03  3.2690 0.99957
  4.000E+03 4.104E+03 1.374E+00 1.201E-02 1.069E-02 8.426E-04 2.355E-02 1.397E+00 3.139E+03  3.4904 0.99967
  4.500E+03 4.604E+03 1.388E+00 1.401E-02 1.302E-02 1.019E-03 2.804E-02 1.416E+00 3.495E+03  3.6901 0.99974
  5.000E+03 5.105E+03 1.400E+00 1.606E-02 1.548E-02 1.187E-03 3.272E-02 1.433E+00 3.846E+03  3.8719 0.99979
  5.500E+03 5.605E+03 1.412E+00 1.816E-02 1.806E-02 1.368E-03 3.759E-02 1.449E+00 4.193E+03  4.0389 0.99982
  6.000E+03 6.105E+03 1.422E+00 2.032E-02 2.075E-02 1.535E-03 4.260E-02 1.464E+00 4.536E+03  4.1934 0.99985
  7.000E+03 7.105E+03 1.439E+00 2.476E-02 2.641E-02 1.888E-03 5.305E-02 1.492E+00 5.213E+03  4.4715 0.99989
  8.000E+03 8.105E+03 1.454E+00 2.935E-02 3.240E-02 2.237E-03 6.399E-02 1.518E+00 5.877E+03  4.7165 0.99992
  9.000E+03 9.105E+03 1.467E+00 3.408E-02 3.869E-02 2.562E-03 7.534E-02 1.542E+00 6.531E+03  4.9356 0.99993
  1.000E+04 1.011E+04 1.478E+00 3.894E-02 4.525E-02 2.897E-03 8.708E-02 1.565E+00 7.174E+03  5.1337 0.99995
  1.200E+04 1.211E+04 1.497E+00 4.896E-02 5.902E-02 3.572E-03 1.116E-01 1.609E+00 8.435E+03  5.4809 0.99996
  1.400E+04 1.411E+04 1.513E+00 5.935E-02 7.356E-02 4.244E-03 1.372E-01 1.650E+00 9.663E+03  5.7781 0.99997
  1.700E+04 1.711E+04 1.532E+00 7.549E-02 9.655E-02 5.234E-03 1.773E-01 1.709E+00 1.145E+04  6.1566 0.99998
  2.000E+04 2.011E+04 1.548E+00 9.219E-02 1.207E-01 6.200E-03 2.191E-01 1.767E+00 1.318E+04  6.4762 0.99999
  2.500E+04 2.511E+04 1.569E+00 1.211E-01 1.630E-01 7.776E-03 2.918E-01 1.860E+00 1.593E+04  6.9182 0.99999
  3.000E+04 3.011E+04 1.585E+00 1.509E-01 2.072E-01 9.315E-03 3.675E-01 1.953E+00 1.856E+04  7.2809 0.99999
  3.500E+04 3.511E+04 1.599E+00 1.817E-01 2.531E-01 1.086E-02 4.457E-01 2.045E+00 2.106E+04  7.5882 1.00000
  4.000E+04 4.011E+04 1.611E+00 2.131E-01 3.003E-01 1.239E-02 5.259E-01 2.137E+00 2.345E+04  7.8545 1.00000
  4.500E+04 4.511E+04 1.621E+00 2.452E-01 3.486E-01 1.389E-02 6.077E-01 2.229E+00 2.575E+04  8.0895 1.00000
  5.000E+04 5.011E+04 1.630E+00 2.778E-01 3.979E-01 1.538E-02 6.910E-01 2.321E+00 2.795E+04  8.2998 1.00000
  5.500E+04 5.511E+04 1.638E+00 3.108E-01 4.479E-01 1.689E-02 7.756E-01 2.414E+00 3.006E+04  8.4900 1.00000
  6.000E+04 6.011E+04 1.646E+00 3.443E-01 4.987E-01 1.837E-02 8.613E-01 2.507E+00 3.209E+04  8.6637 1.00000
  7.000E+04 7.011E+04 1.659E+00 4.123E-01 6.020E-01 2.132E-02 1.036E+00 2.694E+00 3.594E+04  8.9715 1.00000
  8.000E+04 8.011E+04 1.670E+00 4.817E-01 7.073E-01 2.426E-02 1.213E+00 2.883E+00 3.953E+04  9.2382 1.00000
  9.000E+04 9.011E+04 1.679E+00 5.520E-01 8.143E-01 2.720E-02 1.394E+00 3.073E+00 4.289E+04  9.4735 1.00000
  1.000E+05 1.001E+05 1.688E+00 6.234E-01 9.227E-01 3.007E-02 1.576E+00 3.264E+00 4.605E+04  9.6839 1.00000
  1.200E+05 1.201E+05 1.703E+00 7.684E-01 1.143E+00 3.592E-02 1.947E+00 3.650E+00 5.186E+04 10.0482 1.00000
  1.400E+05 1.401E+05 1.715E+00 9.160E-01 1.367E+00 4.176E-02 2.325E+00 4.040E+00 5.707E+04 10.3563 1.00000
  1.700E+05 1.701E+05 1.731E+00 1.141E+00 1.708E+00 5.050E-02 2.900E+00 4.631E+00 6.402E+04 10.7443 1.00000
  2.000E+05 2.001E+05 1.744E+00 1.370E+00 2.054E+00 5.927E-02 3.483E+00 5.227E+00 7.013E+04 11.0692 1.00000
  2.500E+05 2.501E+05 1.762E+00 1.759E+00 2.638E+00 7.390E-02 4.471E+00 6.233E+00 7.893E+04 11.5153 1.00000
  3.000E+05 3.001E+05 1.776E+00 2.153E+00 3.230E+00 8.863E-02 5.472E+00 7.248E+00 8.639E+04 11.8798 1.00000
  3.500E+05 3.501E+05 1.789E+00 2.553E+00 3.827E+00 1.035E-01 6.483E+00 8.272E+00 9.286E+04 12.1880 1.00000
  4.000E+05 4.001E+05 1.799E+00 2.956E+00 4.428E+00 1.184E-01 7.502E+00 9.302E+00 9.857E+04 12.4549 1.00000
  4.500E+05 4.501E+05 1.809E+00 3.363E+00 5.032E+00 1.335E-01 8.528E+00 1.034E+01 1.037E+05 12.6905 1.00000
  5.000E+05 5.001E+05 1.817E+00 3.772E+00 5.639E+00 1.486E-01 9.560E+00 1.138E+01 1.083E+05 12.9011 1.00000
  5.500E+05 5.501E+05 1.825E+00 4.184E+00 6.249E+00 1.636E-01 1.060E+01 1.242E+01 1.125E+05 13.0917 1.00000
  6.000E+05 6.001E+05 1.832E+00 4.598E+00 6.860E+00 1.786E-01 1.164E+01 1.347E+01 1.164E+05 13.2657 1.00000
  7.000E+05 7.001E+05 1.844E+00 5.431E+00 8.087E+00 2.090E-01 1.373E+01 1.557E+01 1.233E+05 13.5740 1.00000
  8.000E+05 8.001E+05 1.855E+00 6.269E+00 9.320E+00 2.397E-01 1.583E+01 1.768E+01 1.293E+05 13.8410 1.00000
  9.000E+05 9.001E+05 1.865E+00 7.113E+00 1.056E+01 2.707E-01 1.794E+01 1.980E+01 1.347E+05 14.0765 1.00000
  1.000E+06 1.000E+06 1.873E+00 7.960E+00 1.180E+01 3.020E-01 2.006E+01 2.193E+01 1.395E+05 14.2872 1.00000
  1.200E+06 1.200E+06 1.888E+00 9.665E+00 1.428E+01 3.652E-01 2.431E+01 2.620E+01 1.479E+05 14.6518 1.00000
  1.400E+06 1.400E+06 1.901E+00 1.138E+01 1.678E+01 4.294E-01 2.859E+01 3.049E+01 1.550E+05 14.9601 1.00000
  1.700E+06 1.700E+06 1.917E+00 1.397E+01 2.054E+01 5.270E-01 3.503E+01 3.694E+01 1.639E+05 15.3484 1.00000
  2.000E+06 2.000E+06 1.931E+00 1.656E+01 2.430E+01 6.262E-01 4.149E+01 4.342E+01 1.715E+05 15.6734 1.00000
  2.500E+06 2.500E+06 1.949E+00 2.092E+01 3.059E+01 7.945E-01 5.230E+01 5.425E+01 1.818E+05 16.1197 1.00000
  3.000E+06 3.000E+06 1.965E+00 2.529E+01 3.689E+01 9.660E-01 6.315E+01 6.512E+01 1.903E+05 16.4843 1.00000
  3.500E+06 3.500E+06 1.978E+00 2.968E+01 4.321E+01 1.140E+00 7.403E+01 7.600E+01 1.974E+05 16.7926 1.00000
  4.000E+06 4.000E+06 1.990E+00 3.408E+01 4.953E+01 1.317E+00 8.492E+01 8.691E+01 2.036E+05 17.0596 1.00000
  4.500E+06 4.500E+06 2.000E+00 3.848E+01 5.586E+01 1.496E+00 9.584E+01 9.784E+01 2.090E+05 17.2952 1.00000
  5.000E+06 5.000E+06 2.009E+00 4.290E+01 6.219E+01 1.677E+00 1.068E+02 1.088E+02 2.138E+05 17.5059 1.00000
  5.500E+06 5.500E+06 2.017E+00 4.732E+01 6.852E+01 1.859E+00 1.177E+02 1.197E+02 2.182E+05 17.6965 1.00000
  6.000E+06 6.000E+06 2.025E+00 5.174E+01 7.486E+01 2.044E+00 1.286E+02 1.307E+02 2.222E+05 17.8706 1.00000
  7.000E+06 7.000E+06 2.038E+00 6.061E+01 8.755E+01 2.417E+00 1.506E+02 1.526E+02 2.293E+05 18.1788 1.00000
  8.000E+06 8.000E+06 2.050E+00 6.948E+01 1.002E+02 2.796E+00 1.725E+02 1.746E+02 2.355E+05 18.4459 1.00000
  9.000E+06 9.000E+06 2.061E+00 7.837E+01 1.129E+02 3.180E+00 1.945E+02 1.965E+02 2.409E+05 18.6815 1.00000
  1.000E+07 1.000E+07 2.070E+00 8.726E+01 1.256E+02 3.568E+00 2.165E+02 2.185E+02 2.457E+05 18.8922 1.00000
  1.200E+07 1.200E+07 2.086E+00 1.051E+02 1.511E+02 4.357E+00 2.605E+02 2.626E+02 2.541E+05 19.2568 1.00000
  1.400E+07 1.400E+07 2.100E+00 1.229E+02 1.765E+02 5.159E+00 3.046E+02 3.067E+02 2.612E+05 19.5651 1.00000
  1.700E+07 1.700E+07 2.118E+00 1.497E+02 2.147E+02 6.386E+00 3.707E+02 3.728E+02 2.701E+05 19.9534 1.00000
  2.000E+07 2.000E+07 2.133E+00 1.765E+02 2.528E+02 7.636E+00 4.369E+02 4.391E+02 2.775E+05 20.2785 1.00000
  2.500E+07 2.500E+07 2.154E+00 2.211E+02 3.165E+02 9.764E+00 5.474E+02 5.496E+02 2.878E+05 20.7248 1.00000
  3.000E+07 3.000E+07 2.171E+00 2.659E+02 3.802E+02 1.194E+01 6.580E+02 6.601E+02 2.961E+05 21.0894 1.00000
  3.500E+07 3.500E+07 2.185E+00 3.106E+02 4.438E+02 1.415E+01 7.686E+02 7.708E+02 3.031E+05 21.3977 1.00000
  4.000E+07 4.000E+07 2.198E+00 3.554E+02 5.075E+02 1.640E+01 8.793E+02 8.815E+02 3.092E+05 21.6648 1.00000
  4.500E+07 4.500E+07 2.209E+00 4.001E+02 5.712E+02 1.869E+01 9.901E+02 9.923E+02 3.146E+05 21.9003 1.00000
  5.000E+07 5.000E+07 2.220E+00 4.449E+02 6.349E+02 2.100E+01 1.101E+03 1.103E+03 3.194E+05 22.1110 1.00000
  5.500E+07 5.500E+07 2.229E+00 4.897E+02 6.986E+02 2.333E+01 1.212E+03 1.214E+03 3.237E+05 22.3017 1.00000
  6.000E+07 6.000E+07 2.237E+00 5.345E+02 7.624E+02 2.569E+01 1.323E+03 1.325E+03 3.276E+05 22.4757 1.00000
  7.000E+07 7.000E+07 2.252E+00 6.241E+02 8.898E+02 3.047E+01 1.544E+03 1.547E+03 3.346E+05 22.7840 1.00000
  8.000E+07 8.000E+07 2.266E+00 7.138E+02 1.017E+03 3.534E+01 1.766E+03 1.769E+03 3.407E+05 23.0511 1.00000
  9.000E+07 9.000E+07 2.277E+00 8.034E+02 1.145E+03 4.027E+01 1.988E+03 1.991E+03 3.460E+05 23.2866 1.00000
  1.000E+08 1.000E+08 2.288E+00 8.931E+02 1.272E+03 4.526E+01 2.210E+03 2.213E+03 3.508E+05 23.4973 1.00000
  1.200E+08 1.200E+08 2.306E+00 1.072E+03 1.527E+03 5.541E+01 2.655E+03 2.657E+03 3.591E+05 23.8620 1.00000
  1.400E+08 1.400E+08 2.321E+00 1.252E+03 1.782E+03 6.575E+01 3.099E+03 3.102E+03 3.661E+05 24.1703 1.00000
  1.700E+08 1.700E+08 2.341E+00 1.521E+03 2.164E+03 8.158E+01 3.767E+03 3.769E+03 3.749E+05 24.5586 1.00000
  2.000E+08 2.000E+08 2.358E+00 1.790E+03 2.547E+03 9.774E+01 4.434E+03 4.437E+03 3.823E+05 24.8836 1.00000
  2.500E+08 2.500E+08 2.381E+00 2.238E+03 3.184E+03 1.253E+02 5.548E+03 5.550E+03 3.924E+05 25.3299 1.00000
  3.000E+08 3.000E+08 2.400E+00 2.687E+03 3.821E+03 1.535E+02 6.662E+03 6.664E+03 4.006E+05 25.6946 1.00000
  3.500E+08 3.500E+08 2.416E+00 3.135E+03 4.459E+03 1.822E+02 7.776E+03 7.779E+03 4.076E+05 26.0029 1.00000
  4.000E+08 4.000E+08 2.431E+00 3.584E+03 5.096E+03 2.114E+02 8.891E+03 8.894E+03 4.136E+05 26.2699 1.00000
  4.500E+08 4.500E+08 2.443E+00 4.033E+03 5.733E+03 2.410E+02 1.001E+04 1.001E+04 4.189E+05 26.5055 1.00000
  5.000E+08 5.000E+08 2.455E+00 4.481E+03 6.370E+03 2.711E+02 1.112E+04 1.113E+04 4.237E+05 26.7162 1.00000
  5.500E+08 5.500E+08 2.465E+00 4.930E+03 7.008E+03 3.015E+02 1.224E+04 1.224E+04 4.280E+05 26.9068 1.00000
  6.000E+08 6.000E+08 2.474E+00 5.378E+03 7.645E+03 3.322E+02 1.336E+04 1.336E+04 4.319E+05 27.0809 1.00000
  7.000E+08 7.000E+08 2.491E+00 6.276E+03 8.919E+03 3.945E+02 1.559E+04 1.559E+04 4.388E+05 27.3892 1.00000
  8.000E+08 8.000E+08 2.506E+00 7.173E+03 1.019E+04 4.579E+02 1.782E+04 1.783E+04 4.449E+05 27.6562 1.00000
  9.000E+08 9.000E+08 2.519E+00 8.070E+03 1.147E+04 5.222E+02 2.006E+04 2.006E+04 4.502E+05 27.8918 1.00000
  1.000E+09 1.000E+09 2.531E+00 8.967E+03 1.274E+04 5.874E+02 2.230E+04 2.230E+04 4.549E+05 28.1025 1.00000
