 Incident particle is a Muon with M = 105.65839 MeV
 Index = 0: CarbonTetrachloride
      Absorber with <Z/A> = 0.48107
 Sternheimer coef:  a     k=m_s   x_0    x_1    I[eV]   Cbar  delta0
                 0.1902  3.0116  0.1773  2.9165  166.3  4.7712 0.00

 *** Table generated with PUMAS v1.00 ***

      T         p     Ionization  brems     pair     photonuc  Radloss    dE/dx   CSDA Range  delta   beta
    [MeV]    [MeV/c]  -----------------------[MeV cm^2/g]------------------------  [g/cm^2]
  1.000E+00 1.457E+01 3.750E+01 1.531E-06 0.000E+00 0.000E+00 1.531E-06 3.750E+01 1.333E-02  0.0000 0.13661
  1.200E+00 1.597E+01 3.253E+01 1.759E-06 0.000E+00 0.000E+00 1.759E-06 3.253E+01 1.907E-02  0.0000 0.14944
  1.400E+00 1.726E+01 2.882E+01 1.977E-06 0.000E+00 0.000E+00 1.977E-06 2.882E+01 2.562E-02  0.0000 0.16119
  1.700E+00 1.903E+01 2.473E+01 2.286E-06 0.000E+00 0.000E+00 2.286E-06 2.473E+01 3.689E-02  0.0000 0.17725
  2.000E+00 2.066E+01 2.174E+01 2.579E-06 0.000E+00 0.000E+00 2.579E-06 2.174E+01 4.986E-02  0.0000 0.19186
  2.500E+00 2.312E+01 1.821E+01 3.036E-06 0.000E+00 0.000E+00 3.036E-06 1.821E+01 7.508E-02  0.0000 0.21376
  3.000E+00 2.536E+01 1.576E+01 3.462E-06 0.000E+00 0.000E+00 3.462E-06 1.576E+01 1.047E-01  0.0000 0.23336
  3.500E+00 2.742E+01 1.395E+01 3.862E-06 0.000E+00 0.000E+00 3.862E-06 1.395E+01 1.385E-01  0.0000 0.25120
  4.000E+00 2.935E+01 1.255E+01 4.241E-06 0.000E+00 0.000E+00 4.241E-06 1.255E+01 1.763E-01  0.0000 0.26763
  4.500E+00 3.116E+01 1.144E+01 4.602E-06 0.000E+00 0.000E+00 4.602E-06 1.144E+01 2.181E-01  0.0000 0.28290
  5.000E+00 3.289E+01 1.053E+01 4.947E-06 0.000E+00 0.000E+00 4.947E-06 1.053E+01 2.637E-01  0.0000 0.29720
  5.500E+00 3.453E+01 9.774E+00 5.278E-06 0.000E+00 0.000E+00 5.278E-06 9.774E+00 3.130E-01  0.0000 0.31066
  6.000E+00 3.611E+01 9.134E+00 5.597E-06 0.000E+00 0.000E+00 5.597E-06 9.134E+00 3.659E-01  0.0000 0.32339
  7.000E+00 3.909E+01 8.109E+00 6.202E-06 0.000E+00 0.000E+00 6.202E-06 8.109E+00 4.823E-01  0.0000 0.34700
  8.000E+00 4.189E+01 7.322E+00 6.770E-06 0.000E+00 0.000E+00 6.770E-06 7.322E+00 6.123E-01  0.0000 0.36854
  9.000E+00 4.453E+01 6.699E+00 7.308E-06 0.000E+00 0.000E+00 7.308E-06 6.699E+00 7.552E-01  0.0000 0.38836
  1.000E+01 4.704E+01 6.192E+00 7.819E-06 0.000E+00 0.000E+00 7.819E-06 6.192E+00 9.106E-01  0.0000 0.40675
  1.200E+01 5.177E+01 5.416E+00 8.779E-06 0.000E+00 0.000E+00 8.779E-06 5.416E+00 1.257E+00  0.0000 0.43998
  1.400E+01 5.616E+01 4.851E+00 9.669E-06 0.000E+00 0.000E+00 9.669E-06 4.851E+00 1.648E+00  0.0000 0.46937
  1.700E+01 6.230E+01 4.239E+00 1.091E-05 0.000E+00 0.000E+00 1.091E-05 4.239E+00 2.311E+00  0.0000 0.50792
  2.000E+01 6.802E+01 3.804E+00 1.206E-05 0.000E+00 0.000E+00 1.206E-05 3.804E+00 3.059E+00  0.0000 0.54129
  2.500E+01 7.686E+01 3.302E+00 1.385E-05 0.000E+00 0.000E+00 1.385E-05 3.302E+00 4.473E+00  0.0000 0.58827
  3.000E+01 8.509E+01 2.963E+00 1.552E-05 0.000E+00 0.000E+00 1.552E-05 2.963E+00 6.074E+00  0.0000 0.62720
  3.500E+01 9.285E+01 2.720E+00 1.712E-05 0.000E+00 0.000E+00 1.712E-05 2.720E+00 7.837E+00  0.0000 0.66011
  4.000E+01 1.003E+02 2.537E+00 1.867E-05 0.000E+00 0.000E+00 1.867E-05 2.537E+00 9.741E+00  0.0000 0.68834
  4.500E+01 1.074E+02 2.396E+00 2.019E-05 0.000E+00 0.000E+00 2.019E-05 2.396E+00 1.177E+01  0.0000 0.71286
  5.000E+01 1.143E+02 2.283E+00 2.169E-05 0.000E+00 0.000E+00 2.169E-05 2.283E+00 1.391E+01  0.0000 0.73434
  5.500E+01 1.210E+02 2.192E+00 2.318E-05 0.000E+00 0.000E+00 2.318E-05 2.192E+00 1.614E+01  0.0000 0.75332
  6.000E+01 1.276E+02 2.117E+00 2.467E-05 0.000E+00 0.000E+00 2.467E-05 2.117E+00 1.847E+01  0.0000 0.77019
  7.000E+01 1.403E+02 2.001E+00 2.765E-05 0.000E+00 0.000E+00 2.765E-05 2.001E+00 2.333E+01  0.0000 0.79887
  8.000E+01 1.527E+02 1.917E+00 3.066E-05 0.000E+00 0.000E+00 3.066E-05 1.917E+00 2.843E+01  0.0000 0.82227
  9.000E+01 1.647E+02 1.854E+00 3.370E-05 0.000E+00 0.000E+00 3.370E-05 1.854E+00 3.374E+01  0.0047 0.84166
  1.000E+02 1.764E+02 1.806E+00 3.680E-05 0.000E+00 0.000E+00 3.680E-05 1.806E+00 3.920E+01  0.0153 0.85794
  1.200E+02 1.994E+02 1.738E+00 4.316E-05 0.000E+00 0.000E+00 4.316E-05 1.738E+00 5.049E+01  0.0410 0.88361
  1.400E+02 2.218E+02 1.694E+00 4.976E-05 0.000E+00 0.000E+00 4.976E-05 1.694E+00 6.215E+01  0.0704 0.90278
  1.700E+02 2.546E+02 1.656E+00 6.010E-05 3.049E-15 0.000E+00 6.010E-05 1.656E+00 8.006E+01  0.1181 0.92363
  2.000E+02 2.868E+02 1.635E+00 7.097E-05 6.810E-13 0.000E+00 7.097E-05 1.635E+00 9.830E+01  0.1679 0.93835
  2.500E+02 3.396E+02 1.622E+00 9.019E-05 1.282E-07 0.000E+00 9.032E-05 1.622E+00 1.290E+02  0.2517 0.95485
  3.000E+02 3.917E+02 1.622E+00 1.107E-04 1.505E-06 0.000E+00 1.122E-04 1.622E+00 1.598E+02  0.3341 0.96548
  3.500E+02 4.432E+02 1.628E+00 1.323E-04 4.259E-06 0.000E+00 1.366E-04 1.628E+00 1.906E+02  0.4142 0.97274
  4.000E+02 4.945E+02 1.636E+00 1.551E-04 8.341E-06 0.000E+00 1.634E-04 1.637E+00 2.212E+02  0.4914 0.97793
  4.500E+02 5.455E+02 1.647E+00 1.788E-04 1.370E-05 0.000E+00 1.925E-04 1.647E+00 2.517E+02  0.5658 0.98176
  5.000E+02 5.964E+02 1.658E+00 2.034E-04 2.031E-05 0.000E+00 2.237E-04 1.658E+00 2.819E+02  0.6373 0.98467
  5.500E+02 6.471E+02 1.669E+00 2.288E-04 2.810E-05 0.000E+00 2.569E-04 1.669E+00 3.120E+02  0.7061 0.98693
  6.000E+02 6.977E+02 1.680E+00 2.551E-04 3.704E-05 0.000E+00 2.921E-04 1.680E+00 3.419E+02  0.7723 0.98873
  7.000E+02 7.987E+02 1.701E+00 3.098E-04 5.823E-05 0.000E+00 3.680E-04 1.702E+00 4.010E+02  0.8977 0.99136
  8.000E+02 8.995E+02 1.721E+00 3.672E-04 8.358E-05 0.000E+00 4.508E-04 1.721E+00 4.594E+02  1.0147 0.99317
  9.000E+02 1.000E+03 1.739E+00 4.270E-04 1.128E-04 0.000E+00 5.399E-04 1.740E+00 5.172E+02  1.1243 0.99447
  1.000E+03 1.101E+03 1.756E+00 4.891E-04 1.457E-04 0.000E+00 6.348E-04 1.757E+00 5.744E+02  1.2274 0.99542
  1.200E+03 1.301E+03 1.786E+00 6.190E-04 2.217E-04 2.252E-05 8.632E-04 1.787E+00 6.873E+02  1.4169 0.99672
  1.400E+03 1.502E+03 1.813E+00 7.561E-04 3.100E-04 6.145E-05 1.127E-03 1.814E+00 7.984E+02  1.5879 0.99753
  1.700E+03 1.803E+03 1.846E+00 9.730E-04 4.630E-04 1.312E-04 1.567E-03 1.847E+00 9.623E+02  1.8170 0.99829
  2.000E+03 2.103E+03 1.874E+00 1.202E-03 6.378E-04 2.131E-04 2.053E-03 1.876E+00 1.123E+03  2.0201 0.99874
  2.500E+03 2.604E+03 1.912E+00 1.605E-03 9.713E-04 3.709E-04 2.947E-03 1.915E+00 1.387E+03  2.3153 0.99918
  3.000E+03 3.104E+03 1.942E+00 2.032E-03 1.350E-03 5.359E-04 3.918E-03 1.946E+00 1.646E+03  2.5697 0.99942
  3.500E+03 3.604E+03 1.968E+00 2.478E-03 1.768E-03 7.103E-04 4.956E-03 1.973E+00 1.901E+03  2.7937 0.99957
  4.000E+03 4.104E+03 1.990E+00 2.942E-03 2.232E-03 8.964E-04 6.070E-03 1.996E+00 2.153E+03  2.9940 0.99967
  4.500E+03 4.604E+03 2.009E+00 3.421E-03 2.733E-03 1.090E-03 7.243E-03 2.016E+00 2.403E+03  3.1754 0.99974
  5.000E+03 5.105E+03 2.025E+00 3.913E-03 3.263E-03 1.275E-03 8.451E-03 2.034E+00 2.650E+03  3.3411 0.99979
  5.500E+03 5.605E+03 2.040E+00 4.418E-03 3.819E-03 1.475E-03 9.712E-03 2.050E+00 2.895E+03  3.4938 0.99982
  6.000E+03 6.105E+03 2.053E+00 4.934E-03 4.399E-03 1.661E-03 1.099E-02 2.064E+00 3.138E+03  3.6354 0.99985
  7.000E+03 7.105E+03 2.077E+00 5.997E-03 5.624E-03 2.055E-03 1.368E-02 2.090E+00 3.619E+03  3.8912 0.99989
  8.000E+03 8.105E+03 2.096E+00 7.095E-03 6.926E-03 2.446E-03 1.647E-02 2.113E+00 4.095E+03  4.1178 0.99992
  9.000E+03 9.105E+03 2.113E+00 8.224E-03 8.296E-03 2.813E-03 1.933E-02 2.133E+00 4.566E+03  4.3211 0.99993
  1.000E+04 1.011E+04 2.128E+00 9.382E-03 9.725E-03 3.192E-03 2.230E-02 2.150E+00 5.033E+03  4.5058 0.99995
  1.200E+04 1.211E+04 2.153E+00 1.177E-02 1.274E-02 3.959E-03 2.847E-02 2.182E+00 5.956E+03  4.8308 0.99996
  1.400E+04 1.411E+04 2.174E+00 1.424E-02 1.593E-02 4.728E-03 3.490E-02 2.209E+00 6.868E+03  5.1109 0.99997
  1.700E+04 1.711E+04 2.199E+00 1.808E-02 2.100E-02 5.867E-03 4.495E-02 2.244E+00 8.215E+03  5.4697 0.99998
  2.000E+04 2.011E+04 2.219E+00 2.205E-02 2.635E-02 6.984E-03 5.539E-02 2.275E+00 9.543E+03  5.7748 0.99999
  2.500E+04 2.511E+04 2.246E+00 2.891E-02 3.576E-02 8.817E-03 7.349E-02 2.320E+00 1.172E+04  6.1999 0.99999
  3.000E+04 3.011E+04 2.268E+00 3.602E-02 4.568E-02 1.062E-02 9.232E-02 2.360E+00 1.386E+04  6.5519 0.99999
  3.500E+04 3.511E+04 2.285E+00 4.333E-02 5.600E-02 1.243E-02 1.118E-01 2.397E+00 1.596E+04  6.8522 1.00000
  4.000E+04 4.011E+04 2.300E+00 5.082E-02 6.665E-02 1.423E-02 1.317E-01 2.432E+00 1.803E+04  7.1141 1.00000
  4.500E+04 4.511E+04 2.313E+00 5.845E-02 7.759E-02 1.601E-02 1.520E-01 2.465E+00 2.007E+04  7.3463 1.00000
  5.000E+04 5.011E+04 2.324E+00 6.621E-02 8.878E-02 1.778E-02 1.728E-01 2.497E+00 2.209E+04  7.5548 1.00000
  5.500E+04 5.511E+04 2.334E+00 7.409E-02 1.002E-01 1.957E-02 1.938E-01 2.528E+00 2.408E+04  7.7439 1.00000
  6.000E+04 6.011E+04 2.343E+00 8.207E-02 1.118E-01 2.133E-02 2.152E-01 2.558E+00 2.605E+04  7.9169 1.00000
  7.000E+04 7.011E+04 2.359E+00 9.830E-02 1.355E-01 2.484E-02 2.586E-01 2.618E+00 2.991E+04  8.2240 1.00000
  8.000E+04 8.011E+04 2.373E+00 1.149E-01 1.597E-01 2.836E-02 3.029E-01 2.676E+00 3.369E+04  8.4906 1.00000
  9.000E+04 9.011E+04 2.385E+00 1.317E-01 1.844E-01 3.188E-02 3.480E-01 2.733E+00 3.739E+04  8.7259 1.00000
  1.000E+05 1.001E+05 2.396E+00 1.488E-01 2.095E-01 3.533E-02 3.936E-01 2.789E+00 4.101E+04  8.9363 1.00000
  1.200E+05 1.201E+05 2.414E+00 1.835E-01 2.607E-01 4.236E-02 4.866E-01 2.900E+00 4.804E+04  9.3006 1.00000
  1.400E+05 1.401E+05 2.429E+00 2.189E-01 3.130E-01 4.939E-02 5.813E-01 3.011E+00 5.481E+04  9.6087 1.00000
  1.700E+05 1.701E+05 2.449E+00 2.730E-01 3.929E-01 5.994E-02 7.259E-01 3.174E+00 6.452E+04  9.9967 1.00000
  2.000E+05 2.001E+05 2.465E+00 3.282E-01 4.743E-01 7.055E-02 8.730E-01 3.338E+00 7.374E+04 10.3216 1.00000
  2.500E+05 2.501E+05 2.487E+00 4.219E-01 6.124E-01 8.829E-02 1.123E+00 3.609E+00 8.815E+04 10.7677 1.00000
  3.000E+05 3.001E+05 2.505E+00 5.172E-01 7.526E-01 1.062E-01 1.376E+00 3.881E+00 1.015E+05 11.1322 1.00000
  3.500E+05 3.501E+05 2.520E+00 6.140E-01 8.946E-01 1.243E-01 1.633E+00 4.153E+00 1.140E+05 11.4404 1.00000
  4.000E+05 4.001E+05 2.533E+00 7.118E-01 1.038E+00 1.424E-01 1.892E+00 4.425E+00 1.257E+05 11.7073 1.00000
  4.500E+05 4.501E+05 2.544E+00 8.106E-01 1.182E+00 1.607E-01 2.154E+00 4.698E+00 1.366E+05 11.9429 1.00000
  5.000E+05 5.001E+05 2.555E+00 9.102E-01 1.327E+00 1.791E-01 2.417E+00 4.972E+00 1.470E+05 12.1535 1.00000
  5.500E+05 5.501E+05 2.564E+00 1.010E+00 1.473E+00 1.974E-01 2.681E+00 5.246E+00 1.568E+05 12.3441 1.00000
  6.000E+05 6.001E+05 2.573E+00 1.111E+00 1.620E+00 2.158E-01 2.947E+00 5.520E+00 1.661E+05 12.5181 1.00000
  7.000E+05 7.001E+05 2.588E+00 1.315E+00 1.915E+00 2.530E-01 3.482E+00 6.071E+00 1.834E+05 12.8264 1.00000
  8.000E+05 8.001E+05 2.602E+00 1.520E+00 2.211E+00 2.905E-01 4.021E+00 6.623E+00 1.991E+05 13.0934 1.00000
  9.000E+05 9.001E+05 2.613E+00 1.726E+00 2.509E+00 3.284E-01 4.563E+00 7.177E+00 2.137E+05 13.3289 1.00000
  1.000E+06 1.000E+06 2.624E+00 1.934E+00 2.808E+00 3.666E-01 5.108E+00 7.732E+00 2.271E+05 13.5396 1.00000
  1.200E+06 1.200E+06 2.642E+00 2.352E+00 3.408E+00 4.439E-01 6.204E+00 8.847E+00 2.513E+05 13.9042 1.00000
  1.400E+06 1.400E+06 2.658E+00 2.773E+00 4.012E+00 5.224E-01 7.307E+00 9.966E+00 2.727E+05 14.2125 1.00000
  1.700E+06 1.700E+06 2.678E+00 3.410E+00 4.920E+00 6.419E-01 8.972E+00 1.165E+01 3.006E+05 14.6008 1.00000
  2.000E+06 2.000E+06 2.695E+00 4.051E+00 5.832E+00 7.634E-01 1.065E+01 1.334E+01 3.247E+05 14.9258 1.00000
  2.500E+06 2.500E+06 2.718E+00 5.126E+00 7.358E+00 9.696E-01 1.345E+01 1.617E+01 3.589E+05 15.3721 1.00000
  3.000E+06 3.000E+06 2.737E+00 6.208E+00 8.888E+00 1.180E+00 1.628E+01 1.901E+01 3.875E+05 15.7367 1.00000
  3.500E+06 3.500E+06 2.753E+00 7.295E+00 1.042E+01 1.393E+00 1.911E+01 2.186E+01 4.121E+05 16.0450 1.00000
  4.000E+06 4.000E+06 2.767E+00 8.386E+00 1.196E+01 1.610E+00 2.195E+01 2.472E+01 4.337E+05 16.3120 1.00000
  4.500E+06 4.500E+06 2.780E+00 9.480E+00 1.350E+01 1.829E+00 2.481E+01 2.758E+01 4.528E+05 16.5476 1.00000
  5.000E+06 5.000E+06 2.791E+00 1.058E+01 1.504E+01 2.051E+00 2.766E+01 3.045E+01 4.701E+05 16.7583 1.00000
  5.500E+06 5.500E+06 2.801E+00 1.167E+01 1.658E+01 2.275E+00 3.053E+01 3.333E+01 4.858E+05 16.9489 1.00000
  6.000E+06 6.000E+06 2.811E+00 1.277E+01 1.812E+01 2.501E+00 3.340E+01 3.621E+01 5.002E+05 17.1230 1.00000
  7.000E+06 7.000E+06 2.827E+00 1.498E+01 2.121E+01 2.959E+00 3.915E+01 4.197E+01 5.259E+05 17.4312 1.00000
  8.000E+06 8.000E+06 2.842E+00 1.719E+01 2.430E+01 3.424E+00 4.491E+01 4.775E+01 5.483E+05 17.6983 1.00000
  9.000E+06 9.000E+06 2.855E+00 1.940E+01 2.739E+01 3.894E+00 5.069E+01 5.354E+01 5.681E+05 17.9339 1.00000
  1.000E+07 1.000E+07 2.866E+00 2.162E+01 3.049E+01 4.371E+00 5.648E+01 5.934E+01 5.859E+05 18.1446 1.00000
  1.200E+07 1.200E+07 2.887E+00 2.606E+01 3.668E+01 5.338E+00 6.808E+01 7.096E+01 6.168E+05 18.5092 1.00000
  1.400E+07 1.400E+07 2.904E+00 3.051E+01 4.288E+01 6.323E+00 7.971E+01 8.261E+01 6.430E+05 18.8175 1.00000
  1.700E+07 1.700E+07 2.926E+00 3.719E+01 5.218E+01 7.827E+00 9.720E+01 1.001E+02 6.762E+05 19.2058 1.00000
  2.000E+07 2.000E+07 2.944E+00 4.388E+01 6.149E+01 9.361E+00 1.147E+02 1.177E+02 7.039E+05 19.5309 1.00000
  2.500E+07 2.500E+07 2.970E+00 5.505E+01 7.701E+01 1.197E+01 1.440E+02 1.470E+02 7.422E+05 19.9772 1.00000
  3.000E+07 3.000E+07 2.991E+00 6.623E+01 9.254E+01 1.464E+01 1.734E+02 1.764E+02 7.733E+05 20.3418 1.00000
  3.500E+07 3.500E+07 3.009E+00 7.742E+01 1.081E+02 1.736E+01 2.028E+02 2.059E+02 7.996E+05 20.6501 1.00000
  4.000E+07 4.000E+07 3.024E+00 8.862E+01 1.236E+02 2.012E+01 2.323E+02 2.354E+02 8.224E+05 20.9172 1.00000
  4.500E+07 4.500E+07 3.038E+00 9.982E+01 1.391E+02 2.292E+01 2.619E+02 2.649E+02 8.425E+05 21.1527 1.00000
  5.000E+07 5.000E+07 3.051E+00 1.110E+02 1.547E+02 2.575E+01 2.915E+02 2.945E+02 8.604E+05 21.3634 1.00000
  5.500E+07 5.500E+07 3.062E+00 1.222E+02 1.702E+02 2.862E+01 3.211E+02 3.241E+02 8.766E+05 21.5541 1.00000
  6.000E+07 6.000E+07 3.073E+00 1.334E+02 1.858E+02 3.152E+01 3.507E+02 3.538E+02 8.914E+05 21.7281 1.00000
  7.000E+07 7.000E+07 3.091E+00 1.559E+02 2.169E+02 3.739E+01 4.101E+02 4.132E+02 9.176E+05 22.0364 1.00000
  8.000E+07 8.000E+07 3.107E+00 1.783E+02 2.480E+02 4.335E+01 4.696E+02 4.727E+02 9.403E+05 22.3035 1.00000
  9.000E+07 9.000E+07 3.122E+00 2.008E+02 2.790E+02 4.940E+01 5.292E+02 5.323E+02 9.603E+05 22.5390 1.00000
  1.000E+08 1.000E+08 3.135E+00 2.232E+02 3.101E+02 5.553E+01 5.889E+02 5.920E+02 9.781E+05 22.7497 1.00000
  1.200E+08 1.200E+08 3.157E+00 2.681E+02 3.723E+02 6.798E+01 7.084E+02 7.116E+02 1.009E+06 23.1144 1.00000
  1.400E+08 1.400E+08 3.176E+00 3.130E+02 4.345E+02 8.068E+01 8.283E+02 8.314E+02 1.035E+06 23.4227 1.00000
  1.700E+08 1.700E+08 3.201E+00 3.804E+02 5.279E+02 1.001E+02 1.008E+03 1.012E+03 1.068E+06 23.8110 1.00000
  2.000E+08 2.000E+08 3.221E+00 4.478E+02 6.212E+02 1.199E+02 1.189E+03 1.192E+03 1.095E+06 24.1360 1.00000
  2.500E+08 2.500E+08 3.250E+00 5.602E+02 7.767E+02 1.537E+02 1.491E+03 1.494E+03 1.133E+06 24.5823 1.00000
  3.000E+08 3.000E+08 3.273E+00 6.726E+02 9.322E+02 1.883E+02 1.793E+03 1.796E+03 1.164E+06 24.9470 1.00000
  3.500E+08 3.500E+08 3.293E+00 7.850E+02 1.088E+03 2.235E+02 2.096E+03 2.100E+03 1.190E+06 25.2553 1.00000
  4.000E+08 4.000E+08 3.311E+00 8.973E+02 1.243E+03 2.594E+02 2.400E+03 2.403E+03 1.212E+06 25.5223 1.00000
  4.500E+08 4.500E+08 3.326E+00 1.010E+03 1.399E+03 2.958E+02 2.704E+03 2.708E+03 1.232E+06 25.7579 1.00000
  5.000E+08 5.000E+08 3.340E+00 1.122E+03 1.554E+03 3.326E+02 3.009E+03 3.012E+03 1.249E+06 25.9686 1.00000
  5.500E+08 5.500E+08 3.353E+00 1.235E+03 1.710E+03 3.699E+02 3.314E+03 3.318E+03 1.265E+06 26.1592 1.00000
  6.000E+08 6.000E+08 3.365E+00 1.347E+03 1.865E+03 4.076E+02 3.620E+03 3.623E+03 1.279E+06 26.3333 1.00000
  7.000E+08 7.000E+08 3.385E+00 1.572E+03 2.176E+03 4.841E+02 4.232E+03 4.236E+03 1.305E+06 26.6416 1.00000
  8.000E+08 8.000E+08 3.404E+00 1.797E+03 2.487E+03 5.618E+02 4.846E+03 4.849E+03 1.327E+06 26.9086 1.00000
  9.000E+08 9.000E+08 3.420E+00 2.021E+03 2.799E+03 6.408E+02 5.461E+03 5.464E+03 1.347E+06 27.1442 1.00000
  1.000E+09 1.000E+09 3.434E+00 2.246E+03 3.110E+03 7.207E+02 6.077E+03 6.080E+03 1.364E+06 27.3549 1.00000
