 Incident particle is a Muon with M = 105.65839 MeV
 Index = 0: CarbonDioxideGas
      Absorber with <Z/A> = 0.49989
 Sternheimer coef:  a     k=m_s   x_0    x_1    I[eV]   Cbar  delta0
                 0.1177  3.3227  1.6294  4.1825   85.0 10.1537 0.00

 *** Table generated with PUMAS v1.00 ***

      T         p     Ionization  brems     pair     photonuc  Radloss    dE/dx   CSDA Range  delta   beta
    [MeV]    [MeV/c]  -----------------------[MeV cm^2/g]------------------------  [g/cm^2]
  1.000E+00 1.457E+01 4.449E+01 7.966E-07 0.000E+00 0.000E+00 7.966E-07 4.449E+01 1.124E-02  0.0000 0.13661
  1.200E+00 1.597E+01 3.841E+01 9.136E-07 0.000E+00 0.000E+00 9.136E-07 3.841E+01 1.609E-02  0.0000 0.14944
  1.400E+00 1.726E+01 3.391E+01 1.025E-06 0.000E+00 0.000E+00 1.025E-06 3.391E+01 2.164E-02  0.0000 0.16119
  1.700E+00 1.903E+01 2.897E+01 1.185E-06 0.000E+00 0.000E+00 1.185E-06 2.897E+01 3.124E-02  0.0000 0.17725
  2.000E+00 2.066E+01 2.539E+01 1.336E-06 0.000E+00 0.000E+00 1.336E-06 2.539E+01 4.233E-02  0.0000 0.19186
  2.500E+00 2.312E+01 2.118E+01 1.572E-06 0.000E+00 0.000E+00 1.572E-06 2.118E+01 6.398E-02  0.0000 0.21376
  3.000E+00 2.536E+01 1.827E+01 1.794E-06 0.000E+00 0.000E+00 1.794E-06 1.827E+01 8.947E-02  0.0000 0.23336
  3.500E+00 2.742E+01 1.613E+01 2.003E-06 0.000E+00 0.000E+00 2.003E-06 1.613E+01 1.187E-01  0.0000 0.25120
  4.000E+00 2.935E+01 1.448E+01 2.201E-06 0.000E+00 0.000E+00 2.201E-06 1.448E+01 1.514E-01  0.0000 0.26763
  4.500E+00 3.116E+01 1.317E+01 2.391E-06 0.000E+00 0.000E+00 2.391E-06 1.317E+01 1.877E-01  0.0000 0.28290
  5.000E+00 3.289E+01 1.211E+01 2.572E-06 0.000E+00 0.000E+00 2.572E-06 1.211E+01 2.273E-01  0.0000 0.29720
  5.500E+00 3.453E+01 1.122E+01 2.747E-06 0.000E+00 0.000E+00 2.747E-06 1.122E+01 2.702E-01  0.0000 0.31066
  6.000E+00 3.611E+01 1.048E+01 2.915E-06 0.000E+00 0.000E+00 2.915E-06 1.048E+01 3.163E-01  0.0000 0.32339
  7.000E+00 3.909E+01 9.282E+00 3.236E-06 0.000E+00 0.000E+00 3.236E-06 9.282E+00 4.179E-01  0.0000 0.34700
  8.000E+00 4.189E+01 8.367E+00 3.538E-06 0.000E+00 0.000E+00 3.538E-06 8.367E+00 5.316E-01  0.0000 0.36854
  9.000E+00 4.453E+01 7.644E+00 3.825E-06 0.000E+00 0.000E+00 3.825E-06 7.644E+00 6.567E-01  0.0000 0.38836
  1.000E+01 4.704E+01 7.057E+00 4.099E-06 0.000E+00 0.000E+00 4.099E-06 7.057E+00 7.930E-01  0.0000 0.40675
  1.200E+01 5.177E+01 6.160E+00 4.613E-06 0.000E+00 0.000E+00 4.613E-06 6.161E+00 1.097E+00  0.0000 0.43998
  1.400E+01 5.616E+01 5.508E+00 5.093E-06 0.000E+00 0.000E+00 5.093E-06 5.508E+00 1.441E+00  0.0000 0.46937
  1.700E+01 6.230E+01 4.805E+00 5.761E-06 0.000E+00 0.000E+00 5.761E-06 4.805E+00 2.025E+00  0.0000 0.50792
  2.000E+01 6.802E+01 4.304E+00 6.385E-06 0.000E+00 0.000E+00 6.385E-06 4.304E+00 2.686E+00  0.0000 0.54129
  2.500E+01 7.686E+01 3.729E+00 7.352E-06 0.000E+00 0.000E+00 7.352E-06 3.729E+00 3.937E+00  0.0000 0.58827
  3.000E+01 8.509E+01 3.341E+00 8.259E-06 0.000E+00 0.000E+00 8.259E-06 3.341E+00 5.356E+00  0.0000 0.62720
  3.500E+01 9.285E+01 3.063E+00 9.125E-06 0.000E+00 0.000E+00 9.125E-06 3.063E+00 6.921E+00  0.0000 0.66011
  4.000E+01 1.003E+02 2.854E+00 9.965E-06 0.000E+00 0.000E+00 9.965E-06 2.854E+00 8.613E+00  0.0000 0.68834
  4.500E+01 1.074E+02 2.692E+00 1.079E-05 0.000E+00 0.000E+00 1.079E-05 2.692E+00 1.042E+01  0.0000 0.71286
  5.000E+01 1.143E+02 2.564E+00 1.160E-05 0.000E+00 0.000E+00 1.160E-05 2.564E+00 1.232E+01  0.0000 0.73434
  5.500E+01 1.210E+02 2.459E+00 1.240E-05 0.000E+00 0.000E+00 1.240E-05 2.459E+00 1.431E+01  0.0000 0.75332
  6.000E+01 1.276E+02 2.373E+00 1.321E-05 0.000E+00 0.000E+00 1.321E-05 2.373E+00 1.638E+01  0.0000 0.77019
  7.000E+01 1.403E+02 2.241E+00 1.481E-05 0.000E+00 0.000E+00 1.481E-05 2.241E+00 2.072E+01  0.0000 0.79887
  8.000E+01 1.527E+02 2.145E+00 1.643E-05 0.000E+00 0.000E+00 1.643E-05 2.145E+00 2.528E+01  0.0000 0.82227
  9.000E+01 1.647E+02 2.073E+00 1.806E-05 0.000E+00 0.000E+00 1.806E-05 2.073E+00 3.003E+01  0.0000 0.84166
  1.000E+02 1.764E+02 2.018E+00 1.972E-05 0.000E+00 0.000E+00 1.972E-05 2.018E+00 3.492E+01  0.0000 0.85794
  1.200E+02 1.994E+02 1.942E+00 2.313E-05 0.000E+00 0.000E+00 2.313E-05 1.942E+00 4.502E+01  0.0000 0.88361
  1.400E+02 2.218E+02 1.894E+00 2.665E-05 0.000E+00 0.000E+00 2.665E-05 1.894E+00 5.545E+01  0.0000 0.90278
  1.700E+02 2.546E+02 1.852E+00 3.216E-05 4.741E-14 0.000E+00 3.216E-05 1.852E+00 7.147E+01  0.0000 0.92363
  2.000E+02 2.868E+02 1.831E+00 3.794E-05 1.060E-11 0.000E+00 3.794E-05 1.831E+00 8.777E+01  0.0000 0.93835
  2.500E+02 3.396E+02 1.819E+00 4.814E-05 8.715E-08 0.000E+00 4.823E-05 1.820E+00 1.152E+02  0.0000 0.95485
  3.000E+02 3.917E+02 1.823E+00 5.900E-05 7.764E-07 0.000E+00 5.978E-05 1.823E+00 1.426E+02  0.0000 0.96548
  3.500E+02 4.432E+02 1.834E+00 7.045E-05 2.137E-06 0.000E+00 7.259E-05 1.834E+00 1.700E+02  0.0000 0.97274
  4.000E+02 4.945E+02 1.848E+00 8.245E-05 4.141E-06 0.000E+00 8.659E-05 1.848E+00 1.971E+02  0.0000 0.97793
  4.500E+02 5.455E+02 1.863E+00 9.496E-05 6.761E-06 0.000E+00 1.017E-04 1.863E+00 2.241E+02  0.0000 0.98176
  5.000E+02 5.964E+02 1.879E+00 1.079E-04 9.979E-06 0.000E+00 1.179E-04 1.880E+00 2.508E+02  0.0000 0.98467
  5.500E+02 6.471E+02 1.896E+00 1.213E-04 1.377E-05 0.000E+00 1.351E-04 1.896E+00 2.773E+02  0.0000 0.98693
  6.000E+02 6.977E+02 1.912E+00 1.351E-04 1.812E-05 0.000E+00 1.533E-04 1.912E+00 3.035E+02  0.0000 0.98873
  7.000E+02 7.987E+02 1.943E+00 1.639E-04 2.841E-05 0.000E+00 1.923E-04 1.943E+00 3.554E+02  0.0000 0.99136
  8.000E+02 8.995E+02 1.972E+00 1.940E-04 4.071E-05 0.000E+00 2.347E-04 1.972E+00 4.065E+02  0.0000 0.99317
  9.000E+02 1.000E+03 1.999E+00 2.254E-04 5.489E-05 0.000E+00 2.803E-04 1.999E+00 4.569E+02  0.0000 0.99447
  1.000E+03 1.101E+03 2.024E+00 2.579E-04 7.083E-05 0.000E+00 3.287E-04 2.024E+00 5.066E+02  0.0000 0.99542
  1.200E+03 1.301E+03 2.070E+00 3.260E-04 1.076E-04 2.255E-05 4.561E-04 2.070E+00 6.043E+02  0.0000 0.99672
  1.400E+03 1.502E+03 2.109E+00 3.976E-04 1.504E-04 6.172E-05 6.097E-04 2.110E+00 7.000E+02  0.0000 0.99753
  1.700E+03 1.803E+03 2.161E+00 5.110E-04 2.244E-04 1.323E-04 8.677E-04 2.162E+00 8.405E+02  0.0000 0.99829
  2.000E+03 2.103E+03 2.206E+00 6.304E-04 3.091E-04 2.156E-04 1.155E-03 2.207E+00 9.778E+02  0.0000 0.99874
  2.500E+03 2.604E+03 2.268E+00 8.409E-04 4.705E-04 3.769E-04 1.688E-03 2.269E+00 1.201E+03  0.0000 0.99918
  3.000E+03 3.104E+03 2.319E+00 1.064E-03 6.539E-04 5.465E-04 2.264E-03 2.321E+00 1.419E+03  0.0000 0.99942
  3.500E+03 3.604E+03 2.363E+00 1.297E-03 8.561E-04 7.265E-04 2.879E-03 2.365E+00 1.633E+03  0.0000 0.99957
  4.000E+03 4.104E+03 2.401E+00 1.539E-03 1.089E-03 9.190E-04 3.546E-03 2.404E+00 1.842E+03  0.0000 0.99967
  4.500E+03 4.604E+03 2.433E+00 1.789E-03 1.342E-03 1.120E-03 4.250E-03 2.437E+00 2.049E+03  0.0121 0.99974
  5.000E+03 5.105E+03 2.459E+00 2.046E-03 1.611E-03 1.312E-03 4.969E-03 2.464E+00 2.253E+03  0.0683 0.99979
  5.500E+03 5.605E+03 2.482E+00 2.309E-03 1.893E-03 1.520E-03 5.723E-03 2.487E+00 2.455E+03  0.1246 0.99982
  6.000E+03 6.105E+03 2.502E+00 2.579E-03 2.188E-03 1.714E-03 6.481E-03 2.509E+00 2.655E+03  0.1804 0.99985
  7.000E+03 7.105E+03 2.537E+00 3.134E-03 2.812E-03 2.126E-03 8.072E-03 2.545E+00 3.051E+03  0.2892 0.99989
  8.000E+03 8.105E+03 2.567E+00 3.709E-03 3.477E-03 2.535E-03 9.720E-03 2.577E+00 3.441E+03  0.3937 0.99992
  9.000E+03 9.105E+03 2.593E+00 4.300E-03 4.177E-03 2.920E-03 1.140E-02 2.604E+00 3.827E+03  0.4934 0.99993
  1.000E+04 1.011E+04 2.615E+00 4.906E-03 4.908E-03 3.318E-03 1.313E-02 2.628E+00 4.209E+03  0.5884 0.99995
  1.200E+04 1.211E+04 2.653E+00 6.157E-03 6.455E-03 4.126E-03 1.674E-02 2.669E+00 4.965E+03  0.7656 0.99996
  1.400E+04 1.411E+04 2.683E+00 7.454E-03 8.098E-03 4.937E-03 2.049E-02 2.703E+00 5.709E+03  0.9274 0.99997
  1.700E+04 1.711E+04 2.720E+00 9.472E-03 1.071E-02 6.140E-03 2.632E-02 2.746E+00 6.810E+03  1.1463 0.99998
  2.000E+04 2.011E+04 2.749E+00 1.156E-02 1.347E-02 7.323E-03 3.236E-02 2.782E+00 7.896E+03  1.3418 0.99999
  2.500E+04 2.511E+04 2.788E+00 1.518E-02 1.835E-02 9.269E-03 4.279E-02 2.831E+00 9.677E+03  1.6276 0.99999
  3.000E+04 3.011E+04 2.818E+00 1.893E-02 2.350E-02 1.118E-02 5.361E-02 2.872E+00 1.143E+04  1.8750 0.99999
  3.500E+04 3.511E+04 2.843E+00 2.279E-02 2.887E-02 1.312E-02 6.478E-02 2.907E+00 1.316E+04  2.0935 1.00000
  4.000E+04 4.011E+04 2.863E+00 2.675E-02 3.443E-02 1.503E-02 7.621E-02 2.939E+00 1.487E+04  2.2892 1.00000
  4.500E+04 4.511E+04 2.881E+00 3.079E-02 4.014E-02 1.693E-02 8.786E-02 2.969E+00 1.656E+04  2.4666 1.00000
  5.000E+04 5.011E+04 2.896E+00 3.490E-02 4.600E-02 1.882E-02 9.973E-02 2.996E+00 1.824E+04  2.6290 1.00000
  5.500E+04 5.511E+04 2.910E+00 3.908E-02 5.198E-02 2.073E-02 1.118E-01 3.021E+00 1.990E+04  2.7787 1.00000
  6.000E+04 6.011E+04 2.922E+00 4.332E-02 5.806E-02 2.262E-02 1.240E-01 3.046E+00 2.155E+04  2.9176 1.00000
  7.000E+04 7.011E+04 2.943E+00 5.195E-02 7.051E-02 2.638E-02 1.488E-01 3.091E+00 2.481E+04  3.1689 1.00000
  8.000E+04 8.011E+04 2.960E+00 6.076E-02 8.328E-02 3.015E-02 1.742E-01 3.134E+00 2.802E+04  3.3915 1.00000
  9.000E+04 9.011E+04 2.975E+00 6.972E-02 9.632E-02 3.392E-02 2.000E-01 3.175E+00 3.119E+04  3.5915 1.00000
  1.000E+05 1.001E+05 2.989E+00 7.882E-02 1.096E-01 3.763E-02 2.260E-01 3.215E+00 3.432E+04  3.7731 1.00000
  1.200E+05 1.201E+05 3.011E+00 9.736E-02 1.367E-01 4.518E-02 2.792E-01 3.290E+00 4.047E+04  4.0932 1.00000
  1.400E+05 1.401E+05 3.029E+00 1.163E-01 1.644E-01 5.273E-02 3.335E-01 3.363E+00 4.649E+04  4.3690 1.00000
  1.700E+05 1.701E+05 3.052E+00 1.453E-01 2.070E-01 6.408E-02 4.163E-01 3.468E+00 5.527E+04  4.7227 1.00000
  2.000E+05 2.001E+05 3.071E+00 1.748E-01 2.503E-01 7.550E-02 5.007E-01 3.571E+00 6.380E+04  5.0236 1.00000
  2.500E+05 2.501E+05 3.096E+00 2.252E-01 3.241E-01 9.461E-02 6.439E-01 3.739E+00 7.748E+04  5.4432 1.00000
  3.000E+05 3.001E+05 3.115E+00 2.765E-01 3.993E-01 1.139E-01 7.896E-01 3.905E+00 9.057E+04  5.7909 1.00000
  3.500E+05 3.501E+05 3.132E+00 3.286E-01 4.754E-01 1.334E-01 9.374E-01 4.070E+00 1.031E+05  6.0878 1.00000
  4.000E+05 4.001E+05 3.146E+00 3.813E-01 5.524E-01 1.530E-01 1.087E+00 4.233E+00 1.152E+05  6.3469 1.00000
  4.500E+05 4.501E+05 3.159E+00 4.346E-01 6.301E-01 1.727E-01 1.237E+00 4.396E+00 1.268E+05  6.5768 1.00000
  5.000E+05 5.001E+05 3.170E+00 4.885E-01 7.083E-01 1.926E-01 1.389E+00 4.559E+00 1.379E+05  6.7834 1.00000
  5.500E+05 5.501E+05 3.180E+00 5.427E-01 7.870E-01 2.123E-01 1.542E+00 4.722E+00 1.487E+05  6.9709 1.00000
  6.000E+05 6.001E+05 3.189E+00 5.973E-01 8.661E-01 2.322E-01 1.696E+00 4.885E+00 1.591E+05  7.1426 1.00000
  7.000E+05 7.001E+05 3.205E+00 7.074E-01 1.025E+00 2.723E-01 2.005E+00 5.210E+00 1.789E+05  7.4478 1.00000
  8.000E+05 8.001E+05 3.219E+00 8.186E-01 1.186E+00 3.128E-01 2.317E+00 5.536E+00 1.976E+05  7.7131 1.00000
  9.000E+05 9.001E+05 3.232E+00 9.306E-01 1.347E+00 3.537E-01 2.631E+00 5.863E+00 2.151E+05  7.9476 1.00000
  1.000E+06 1.000E+06 3.243E+00 1.043E+00 1.509E+00 3.950E-01 2.947E+00 6.190E+00 2.317E+05  8.1577 1.00000
  1.200E+06 1.200E+06 3.262E+00 1.271E+00 1.834E+00 4.786E-01 3.584E+00 6.846E+00 2.625E+05  8.5218 1.00000
  1.400E+06 1.400E+06 3.278E+00 1.500E+00 2.162E+00 5.634E-01 4.225E+00 7.504E+00 2.904E+05  8.8300 1.00000
  1.700E+06 1.700E+06 3.299E+00 1.847E+00 2.655E+00 6.926E-01 5.195E+00 8.494E+00 3.281E+05  9.2183 1.00000
  2.000E+06 2.000E+06 3.316E+00 2.197E+00 3.151E+00 8.239E-01 6.172E+00 9.488E+00 3.616E+05  9.5433 1.00000
  2.500E+06 2.500E+06 3.340E+00 2.785E+00 3.981E+00 1.047E+00 7.812E+00 1.115E+01 4.103E+05  9.9896 1.00000
  3.000E+06 3.000E+06 3.360E+00 3.377E+00 4.814E+00 1.274E+00 9.464E+00 1.282E+01 4.522E+05 10.3542 1.00000
  3.500E+06 3.500E+06 3.377E+00 3.972E+00 5.649E+00 1.505E+00 1.113E+01 1.450E+01 4.890E+05 10.6625 1.00000
  4.000E+06 4.000E+06 3.392E+00 4.569E+00 6.486E+00 1.739E+00 1.279E+01 1.619E+01 5.216E+05 10.9295 1.00000
  4.500E+06 4.500E+06 3.405E+00 5.169E+00 7.325E+00 1.976E+00 1.447E+01 1.787E+01 5.511E+05 11.1651 1.00000
  5.000E+06 5.000E+06 3.416E+00 5.770E+00 8.164E+00 2.216E+00 1.615E+01 1.957E+01 5.778E+05 11.3758 1.00000
  5.500E+06 5.500E+06 3.427E+00 6.373E+00 9.005E+00 2.458E+00 1.784E+01 2.126E+01 6.024E+05 11.5664 1.00000
  6.000E+06 6.000E+06 3.437E+00 6.977E+00 9.846E+00 2.703E+00 1.953E+01 2.296E+01 6.250E+05 11.7405 1.00000
  7.000E+06 7.000E+06 3.454E+00 8.188E+00 1.153E+01 3.198E+00 2.292E+01 2.637E+01 6.658E+05 12.0487 1.00000
  8.000E+06 8.000E+06 3.469E+00 9.403E+00 1.322E+01 3.701E+00 2.632E+01 2.979E+01 7.015E+05 12.3158 1.00000
  9.000E+06 9.000E+06 3.483E+00 1.062E+01 1.490E+01 4.210E+00 2.973E+01 3.322E+01 7.333E+05 12.5514 1.00000
  1.000E+07 1.000E+07 3.495E+00 1.184E+01 1.659E+01 4.725E+00 3.316E+01 3.665E+01 7.620E+05 12.7621 1.00000
  1.200E+07 1.200E+07 3.516E+00 1.428E+01 1.997E+01 5.771E+00 4.003E+01 4.354E+01 8.123E+05 13.1267 1.00000
  1.400E+07 1.400E+07 3.534E+00 1.673E+01 2.336E+01 6.836E+00 4.693E+01 5.046E+01 8.551E+05 13.4350 1.00000
  1.700E+07 1.700E+07 3.556E+00 2.041E+01 2.844E+01 8.464E+00 5.731E+01 6.087E+01 9.094E+05 13.8233 1.00000
  2.000E+07 2.000E+07 3.576E+00 2.410E+01 3.352E+01 1.012E+01 6.774E+01 7.132E+01 9.551E+05 14.1484 1.00000
  2.500E+07 2.500E+07 3.602E+00 3.026E+01 4.200E+01 1.295E+01 8.520E+01 8.880E+01 1.018E+06 14.5947 1.00000
  3.000E+07 3.000E+07 3.624E+00 3.642E+01 5.048E+01 1.583E+01 1.027E+02 1.064E+02 1.070E+06 14.9593 1.00000
  3.500E+07 3.500E+07 3.643E+00 4.260E+01 5.896E+01 1.877E+01 1.203E+02 1.240E+02 1.114E+06 15.2676 1.00000
  4.000E+07 4.000E+07 3.659E+00 4.877E+01 6.745E+01 2.176E+01 1.380E+02 1.416E+02 1.151E+06 15.5347 1.00000
  4.500E+07 4.500E+07 3.673E+00 5.496E+01 7.594E+01 2.479E+01 1.557E+02 1.594E+02 1.185E+06 15.7702 1.00000
  5.000E+07 5.000E+07 3.686E+00 6.114E+01 8.442E+01 2.786E+01 1.734E+02 1.771E+02 1.215E+06 15.9809 1.00000
  5.500E+07 5.500E+07 3.698E+00 6.733E+01 9.291E+01 3.096E+01 1.912E+02 1.949E+02 1.242E+06 16.1716 1.00000
  6.000E+07 6.000E+07 3.709E+00 7.352E+01 1.014E+02 3.409E+01 2.090E+02 2.127E+02 1.266E+06 16.3456 1.00000
  7.000E+07 7.000E+07 3.728E+00 8.590E+01 1.184E+02 4.044E+01 2.447E+02 2.485E+02 1.310E+06 16.6539 1.00000
  8.000E+07 8.000E+07 3.745E+00 9.829E+01 1.354E+02 4.689E+01 2.806E+02 2.843E+02 1.347E+06 16.9210 1.00000
  9.000E+07 9.000E+07 3.760E+00 1.107E+02 1.524E+02 5.343E+01 3.165E+02 3.203E+02 1.381E+06 17.1565 1.00000
  1.000E+08 1.000E+08 3.773E+00 1.231E+02 1.694E+02 6.006E+01 3.525E+02 3.563E+02 1.410E+06 17.3672 1.00000
  1.200E+08 1.200E+08 3.797E+00 1.479E+02 2.033E+02 7.354E+01 4.248E+02 4.286E+02 1.462E+06 17.7319 1.00000
  1.400E+08 1.400E+08 3.817E+00 1.727E+02 2.373E+02 8.727E+01 4.973E+02 5.011E+02 1.505E+06 18.0402 1.00000
  1.700E+08 1.700E+08 3.842E+00 2.099E+02 2.883E+02 1.083E+02 6.065E+02 6.104E+02 1.560E+06 18.4285 1.00000
  2.000E+08 2.000E+08 3.864E+00 2.472E+02 3.393E+02 1.297E+02 7.162E+02 7.201E+02 1.605E+06 18.7535 1.00000
  2.500E+08 2.500E+08 3.893E+00 3.093E+02 4.243E+02 1.663E+02 8.998E+02 9.037E+02 1.667E+06 19.1998 1.00000
  3.000E+08 3.000E+08 3.918E+00 3.714E+02 5.092E+02 2.037E+02 1.084E+03 1.088E+03 1.718E+06 19.5645 1.00000
  3.500E+08 3.500E+08 3.938E+00 4.335E+02 5.942E+02 2.418E+02 1.269E+03 1.273E+03 1.761E+06 19.8728 1.00000
  4.000E+08 4.000E+08 3.957E+00 4.956E+02 6.792E+02 2.806E+02 1.455E+03 1.459E+03 1.797E+06 20.1398 1.00000
  4.500E+08 4.500E+08 3.973E+00 5.577E+02 7.642E+02 3.199E+02 1.642E+03 1.646E+03 1.830E+06 20.3754 1.00000
  5.000E+08 5.000E+08 3.987E+00 6.198E+02 8.492E+02 3.598E+02 1.829E+03 1.833E+03 1.858E+06 20.5861 1.00000
  5.500E+08 5.500E+08 4.000E+00 6.819E+02 9.342E+02 4.001E+02 2.016E+03 2.020E+03 1.884E+06 20.7767 1.00000
  6.000E+08 6.000E+08 4.013E+00 7.440E+02 1.019E+03 4.409E+02 2.204E+03 2.208E+03 1.908E+06 20.9508 1.00000
  7.000E+08 7.000E+08 4.034E+00 8.683E+02 1.189E+03 5.236E+02 2.581E+03 2.585E+03 1.950E+06 21.2591 1.00000
  8.000E+08 8.000E+08 4.053E+00 9.925E+02 1.359E+03 6.078E+02 2.959E+03 2.963E+03 1.986E+06 21.5261 1.00000
  9.000E+08 9.000E+08 4.070E+00 1.117E+03 1.529E+03 6.931E+02 3.339E+03 3.343E+03 2.018E+06 21.7617 1.00000
  1.000E+09 1.000E+09 4.085E+00 1.241E+03 1.699E+03 7.796E+02 3.720E+03 3.724E+03 2.047E+06 21.9724 1.00000
