 Incident particle is a Muon with M = 105.65839 MeV
 Index = 0: CarbonGraphite
      Absorber with <Z/A> = 0.49955
 Sternheimer coef:  a     k=m_s   x_0    x_1    I[eV]   Cbar  delta0
                 0.2076  2.9532  0.0090  2.4817   78.0  2.8926 0.14

 *** Table generated with PUMAS v1.00 ***

      T         p     Ionization  brems     pair     photonuc  Radloss    dE/dx   CSDA Range  delta   beta
    [MeV]    [MeV/c]  -----------------------[MeV cm^2/g]------------------------  [g/cm^2]
  1.000E+00 1.457E+01 4.515E+01 6.573E-07 0.000E+00 0.000E+00 6.573E-07 4.515E+01 1.107E-02  0.0026 0.13661
  1.200E+00 1.597E+01 3.896E+01 7.529E-07 0.000E+00 0.000E+00 7.529E-07 3.896E+01 1.585E-02  0.0031 0.14944
  1.400E+00 1.726E+01 3.438E+01 8.443E-07 0.000E+00 0.000E+00 8.443E-07 3.438E+01 2.133E-02  0.0036 0.16119
  1.700E+00 1.903E+01 2.936E+01 9.747E-07 0.000E+00 0.000E+00 9.747E-07 2.936E+01 3.080E-02  0.0044 0.17725
  2.000E+00 2.066E+01 2.572E+01 1.099E-06 0.000E+00 0.000E+00 1.099E-06 2.572E+01 4.174E-02  0.0051 0.19186
  2.500E+00 2.312E+01 2.144E+01 1.293E-06 0.000E+00 0.000E+00 1.293E-06 2.144E+01 6.312E-02  0.0064 0.21376
  3.000E+00 2.536E+01 1.849E+01 1.474E-06 0.000E+00 0.000E+00 1.474E-06 1.849E+01 8.830E-02  0.0077 0.23336
  3.500E+00 2.742E+01 1.631E+01 1.646E-06 0.000E+00 0.000E+00 1.646E-06 1.631E+01 1.171E-01  0.0090 0.25120
  4.000E+00 2.935E+01 1.464E+01 1.809E-06 0.000E+00 0.000E+00 1.809E-06 1.464E+01 1.495E-01  0.0104 0.26763
  4.500E+00 3.116E+01 1.332E+01 1.965E-06 0.000E+00 0.000E+00 1.965E-06 1.332E+01 1.854E-01  0.0117 0.28290
  5.000E+00 3.289E+01 1.224E+01 2.115E-06 0.000E+00 0.000E+00 2.115E-06 1.224E+01 2.246E-01  0.0130 0.29720
  5.500E+00 3.453E+01 1.134E+01 2.259E-06 0.000E+00 0.000E+00 2.259E-06 1.134E+01 2.671E-01  0.0143 0.31066
  6.000E+00 3.611E+01 1.058E+01 2.398E-06 0.000E+00 0.000E+00 2.398E-06 1.058E+01 3.127E-01  0.0157 0.32339
  7.000E+00 3.909E+01 9.373E+00 2.662E-06 0.000E+00 0.000E+00 2.662E-06 9.373E+00 4.133E-01  0.0184 0.34700
  8.000E+00 4.189E+01 8.447E+00 2.912E-06 0.000E+00 0.000E+00 2.912E-06 8.447E+00 5.259E-01  0.0211 0.36854
  9.000E+00 4.453E+01 7.714E+00 3.149E-06 0.000E+00 0.000E+00 3.149E-06 7.714E+00 6.499E-01  0.0239 0.38836
  1.000E+01 4.704E+01 7.119E+00 3.375E-06 0.000E+00 0.000E+00 3.375E-06 7.119E+00 7.849E-01  0.0266 0.40675
  1.200E+01 5.177E+01 6.212E+00 3.801E-06 0.000E+00 0.000E+00 3.801E-06 6.212E+00 1.086E+00  0.0322 0.43998
  1.400E+01 5.616E+01 5.551E+00 4.199E-06 0.000E+00 0.000E+00 4.199E-06 5.551E+00 1.428E+00  0.0380 0.46937
  1.700E+01 6.230E+01 4.838E+00 4.753E-06 0.000E+00 0.000E+00 4.753E-06 4.838E+00 2.008E+00  0.0467 0.50792
  2.000E+01 6.802E+01 4.332E+00 5.270E-06 0.000E+00 0.000E+00 5.270E-06 4.332E+00 2.664E+00  0.0557 0.54129
  2.500E+01 7.686E+01 3.749E+00 6.073E-06 0.000E+00 0.000E+00 6.073E-06 3.749E+00 3.908E+00  0.0711 0.58827
  3.000E+01 8.509E+01 3.355E+00 6.826E-06 0.000E+00 0.000E+00 6.826E-06 3.355E+00 5.320E+00  0.0871 0.62720
  3.500E+01 9.285E+01 3.073E+00 7.546E-06 0.000E+00 0.000E+00 7.546E-06 3.073E+00 6.879E+00  0.1037 0.66011
  4.000E+01 1.003E+02 2.860E+00 8.243E-06 0.000E+00 0.000E+00 8.243E-06 2.860E+00 8.566E+00  0.1209 0.68834
  4.500E+01 1.074E+02 2.695E+00 8.926E-06 0.000E+00 0.000E+00 8.926E-06 2.695E+00 1.037E+01  0.1388 0.71286
  5.000E+01 1.143E+02 2.560E+00 9.600E-06 0.000E+00 0.000E+00 9.600E-06 2.560E+00 1.227E+01  0.1837 0.73434
  5.500E+01 1.210E+02 2.452E+00 1.027E-05 0.000E+00 0.000E+00 1.027E-05 2.452E+00 1.427E+01  0.2114 0.75332
  6.000E+01 1.276E+02 2.363E+00 1.093E-05 0.000E+00 0.000E+00 1.093E-05 2.363E+00 1.635E+01  0.2386 0.77019
  7.000E+01 1.403E+02 2.225E+00 1.226E-05 0.000E+00 0.000E+00 1.226E-05 2.225E+00 2.071E+01  0.2912 0.79887
  8.000E+01 1.527E+02 2.124E+00 1.360E-05 0.000E+00 0.000E+00 1.360E-05 2.124E+00 2.531E+01  0.3416 0.82227
  9.000E+01 1.647E+02 2.048E+00 1.496E-05 0.000E+00 0.000E+00 1.496E-05 2.048E+00 3.010E+01  0.3900 0.84166
  1.000E+02 1.764E+02 1.989E+00 1.633E-05 0.000E+00 0.000E+00 1.633E-05 1.989E+00 3.506E+01  0.4366 0.85794
  1.200E+02 1.994E+02 1.906E+00 1.915E-05 0.000E+00 0.000E+00 1.915E-05 1.906E+00 4.534E+01  0.5249 0.88361
  1.400E+02 2.218E+02 1.851E+00 2.207E-05 0.000E+00 0.000E+00 2.207E-05 1.851E+00 5.598E+01  0.6075 0.90278
  1.700E+02 2.546E+02 1.801E+00 2.663E-05 3.905E-14 0.000E+00 2.663E-05 1.801E+00 7.242E+01  0.7227 0.92363
  2.000E+02 2.868E+02 1.772E+00 3.141E-05 8.722E-12 0.000E+00 3.141E-05 1.772E+00 8.921E+01  0.8291 0.93835
  2.500E+02 3.396E+02 1.749E+00 3.984E-05 7.208E-08 0.000E+00 3.991E-05 1.749E+00 1.176E+02  0.9908 0.95485
  3.000E+02 3.917E+02 1.742E+00 4.880E-05 6.325E-07 0.000E+00 4.943E-05 1.742E+00 1.462E+02  1.1370 0.96548
  3.500E+02 4.432E+02 1.743E+00 5.826E-05 1.735E-06 0.000E+00 5.999E-05 1.743E+00 1.749E+02  1.2707 0.97274
  4.000E+02 4.945E+02 1.748E+00 6.816E-05 3.354E-06 0.000E+00 7.152E-05 1.748E+00 2.036E+02  1.3942 0.97793
  4.500E+02 5.455E+02 1.756E+00 7.848E-05 5.471E-06 0.000E+00 8.395E-05 1.756E+00 2.321E+02  1.5090 0.98176
  5.000E+02 5.964E+02 1.764E+00 8.918E-05 8.067E-06 0.000E+00 9.725E-05 1.764E+00 2.605E+02  1.6165 0.98467
  5.500E+02 6.471E+02 1.773E+00 1.002E-04 1.113E-05 0.000E+00 1.114E-04 1.773E+00 2.888E+02  1.7176 0.98693
  6.000E+02 6.977E+02 1.782E+00 1.116E-04 1.463E-05 0.000E+00 1.263E-04 1.782E+00 3.169E+02  1.8131 0.98873
  7.000E+02 7.987E+02 1.799E+00 1.353E-04 2.293E-05 0.000E+00 1.583E-04 1.800E+00 3.728E+02  1.9897 0.99136
  8.000E+02 8.995E+02 1.817E+00 1.602E-04 3.284E-05 0.000E+00 1.930E-04 1.817E+00 4.281E+02  2.1503 0.99317
  9.000E+02 1.000E+03 1.833E+00 1.860E-04 4.427E-05 0.000E+00 2.303E-04 1.833E+00 4.829E+02  2.2977 0.99447
  1.000E+03 1.101E+03 1.848E+00 2.128E-04 5.712E-05 0.000E+00 2.700E-04 1.848E+00 5.372E+02  2.4341 0.99542
  1.200E+03 1.301E+03 1.874E+00 2.689E-04 8.676E-05 2.256E-05 3.783E-04 1.875E+00 6.447E+02  2.6797 0.99672
  1.400E+03 1.502E+03 1.898E+00 3.280E-04 1.212E-04 6.180E-05 5.110E-04 1.898E+00 7.507E+02  2.8968 0.99753
  1.700E+03 1.803E+03 1.928E+00 4.214E-04 1.809E-04 1.326E-04 7.349E-04 1.929E+00 9.075E+02  3.1819 0.99829
  2.000E+03 2.103E+03 1.954E+00 5.198E-04 2.491E-04 2.163E-04 9.852E-04 1.955E+00 1.062E+03  3.4300 0.99874
  2.500E+03 2.604E+03 1.989E+00 6.933E-04 3.791E-04 3.785E-04 1.451E-03 1.990E+00 1.315E+03  3.7840 0.99918
  3.000E+03 3.104E+03 2.017E+00 8.769E-04 5.269E-04 5.494E-04 1.953E-03 2.019E+00 1.565E+03  4.0839 0.99942
  3.500E+03 3.604E+03 2.041E+00 1.069E-03 6.897E-04 7.309E-04 2.490E-03 2.043E+00 1.811E+03  4.3444 0.99957
  4.000E+03 4.104E+03 2.061E+00 1.269E-03 8.799E-04 9.252E-04 3.074E-03 2.064E+00 2.055E+03  4.5749 0.99967
  4.500E+03 4.604E+03 2.079E+00 1.475E-03 1.088E-03 1.128E-03 3.691E-03 2.082E+00 2.296E+03  4.7816 0.99974
  5.000E+03 5.105E+03 2.094E+00 1.687E-03 1.309E-03 1.323E-03 4.319E-03 2.099E+00 2.535E+03  4.9692 0.99979
  5.500E+03 5.605E+03 2.108E+00 1.905E-03 1.541E-03 1.533E-03 4.979E-03 2.113E+00 2.772E+03  5.1409 0.99982
  6.000E+03 6.105E+03 2.121E+00 2.128E-03 1.784E-03 1.729E-03 5.641E-03 2.126E+00 3.008E+03  5.2993 0.99985
  7.000E+03 7.105E+03 2.143E+00 2.586E-03 2.298E-03 2.145E-03 7.029E-03 2.150E+00 3.476E+03  5.5833 0.99989
  8.000E+03 8.105E+03 2.161E+00 3.061E-03 2.845E-03 2.560E-03 8.466E-03 2.170E+00 3.939E+03  5.8327 0.99992
  9.000E+03 9.105E+03 2.178E+00 3.550E-03 3.422E-03 2.950E-03 9.922E-03 2.187E+00 4.398E+03  6.0550 0.99993
  1.000E+04 1.011E+04 2.192E+00 4.051E-03 4.026E-03 3.353E-03 1.143E-02 2.203E+00 4.854E+03  6.2555 0.99995
  1.200E+04 1.211E+04 2.216E+00 5.087E-03 5.303E-03 4.172E-03 1.456E-02 2.230E+00 5.756E+03  6.6061 0.99996
  1.400E+04 1.411E+04 2.236E+00 6.162E-03 6.660E-03 4.995E-03 1.782E-02 2.254E+00 6.648E+03  6.9054 0.99997
  1.700E+04 1.711E+04 2.260E+00 7.833E-03 8.821E-03 6.216E-03 2.287E-02 2.283E+00 7.970E+03  7.2857 0.99998
  2.000E+04 2.011E+04 2.280E+00 9.566E-03 1.111E-02 7.417E-03 2.809E-02 2.308E+00 9.277E+03  7.6063 0.99999
  2.500E+04 2.511E+04 2.307E+00 1.257E-02 1.514E-02 9.393E-03 3.710E-02 2.344E+00 1.143E+04  8.0489 0.99999
  3.000E+04 3.011E+04 2.328E+00 1.568E-02 1.941E-02 1.134E-02 4.643E-02 2.375E+00 1.355E+04  8.4119 0.99999
  3.500E+04 3.511E+04 2.346E+00 1.889E-02 2.387E-02 1.331E-02 5.607E-02 2.402E+00 1.564E+04  8.7192 1.00000
  4.000E+04 4.011E+04 2.361E+00 2.218E-02 2.848E-02 1.526E-02 6.592E-02 2.427E+00 1.771E+04  8.9855 1.00000
  4.500E+04 4.511E+04 2.374E+00 2.555E-02 3.323E-02 1.718E-02 7.596E-02 2.450E+00 1.976E+04  9.2205 1.00000
  5.000E+04 5.011E+04 2.386E+00 2.897E-02 3.810E-02 1.911E-02 8.618E-02 2.472E+00 2.179E+04  9.4308 1.00000
  5.500E+04 5.511E+04 2.396E+00 3.245E-02 4.307E-02 2.105E-02 9.657E-02 2.493E+00 2.381E+04  9.6210 1.00000
  6.000E+04 6.011E+04 2.405E+00 3.598E-02 4.813E-02 2.298E-02 1.071E-01 2.512E+00 2.581E+04  9.7947 1.00000
  7.000E+04 7.011E+04 2.422E+00 4.317E-02 5.849E-02 2.681E-02 1.285E-01 2.550E+00 2.976E+04 10.1025 1.00000
  8.000E+04 8.011E+04 2.436E+00 5.051E-02 6.912E-02 3.064E-02 1.503E-01 2.586E+00 3.365E+04 10.3692 1.00000
  9.000E+04 9.011E+04 2.449E+00 5.799E-02 7.998E-02 3.449E-02 1.725E-01 2.621E+00 3.749E+04 10.6045 1.00000
  1.000E+05 1.001E+05 2.460E+00 6.558E-02 9.104E-02 3.827E-02 1.949E-01 2.655E+00 4.128E+04 10.8149 1.00000
  1.200E+05 1.201E+05 2.479E+00 8.105E-02 1.136E-01 4.596E-02 2.407E-01 2.719E+00 4.873E+04 11.1792 1.00000
  1.400E+05 1.401E+05 2.495E+00 9.687E-02 1.368E-01 5.366E-02 2.873E-01 2.782E+00 5.600E+04 11.4873 1.00000
  1.700E+05 1.701E+05 2.515E+00 1.211E-01 1.723E-01 6.523E-02 3.586E-01 2.873E+00 6.661E+04 11.8753 1.00000
  2.000E+05 2.001E+05 2.531E+00 1.458E-01 2.086E-01 7.688E-02 4.313E-01 2.963E+00 7.689E+04 12.2002 1.00000
  2.500E+05 2.501E+05 2.554E+00 1.879E-01 2.703E-01 9.636E-02 5.546E-01 3.109E+00 9.338E+04 12.6463 1.00000
  3.000E+05 3.001E+05 2.573E+00 2.309E-01 3.332E-01 1.160E-01 6.801E-01 3.253E+00 1.091E+05 13.0108 1.00000
  3.500E+05 3.501E+05 2.589E+00 2.745E-01 3.970E-01 1.359E-01 8.074E-01 3.396E+00 1.242E+05 13.3190 1.00000
  4.000E+05 4.001E+05 2.602E+00 3.187E-01 4.615E-01 1.559E-01 9.362E-01 3.538E+00 1.386E+05 13.5859 1.00000
  4.500E+05 4.501E+05 2.614E+00 3.634E-01 5.267E-01 1.760E-01 1.066E+00 3.680E+00 1.524E+05 13.8215 1.00000
  5.000E+05 5.001E+05 2.625E+00 4.085E-01 5.923E-01 1.963E-01 1.197E+00 3.822E+00 1.658E+05 14.0321 1.00000
  5.500E+05 5.501E+05 2.635E+00 4.540E-01 6.583E-01 2.165E-01 1.329E+00 3.964E+00 1.786E+05 14.2227 1.00000
  6.000E+05 6.001E+05 2.644E+00 4.999E-01 7.247E-01 2.367E-01 1.461E+00 4.105E+00 1.910E+05 14.3967 1.00000
  7.000E+05 7.001E+05 2.660E+00 5.923E-01 8.583E-01 2.777E-01 1.728E+00 4.388E+00 2.146E+05 14.7050 1.00000
  8.000E+05 8.001E+05 2.674E+00 6.856E-01 9.929E-01 3.190E-01 1.998E+00 4.671E+00 2.367E+05 14.9720 1.00000
  9.000E+05 9.001E+05 2.686E+00 7.798E-01 1.128E+00 3.608E-01 2.269E+00 4.955E+00 2.575E+05 15.2075 1.00000
  1.000E+06 1.000E+06 2.697E+00 8.745E-01 1.264E+00 4.029E-01 2.542E+00 5.239E+00 2.771E+05 15.4182 1.00000
  1.200E+06 1.200E+06 2.716E+00 1.066E+00 1.538E+00 4.883E-01 3.092E+00 5.808E+00 3.134E+05 15.7828 1.00000
  1.400E+06 1.400E+06 2.732E+00 1.259E+00 1.813E+00 5.748E-01 3.647E+00 6.379E+00 3.463E+05 16.0911 1.00000
  1.700E+06 1.700E+06 2.753E+00 1.551E+00 2.229E+00 7.067E-01 4.486E+00 7.239E+00 3.906E+05 16.4794 1.00000
  2.000E+06 2.000E+06 2.770E+00 1.845E+00 2.646E+00 8.407E-01 5.332E+00 8.102E+00 4.298E+05 16.8044 1.00000
  2.500E+06 2.500E+06 2.794E+00 2.340E+00 3.345E+00 1.068E+00 6.752E+00 9.547E+00 4.868E+05 17.2507 1.00000
  3.000E+06 3.000E+06 2.814E+00 2.838E+00 4.046E+00 1.300E+00 8.184E+00 1.100E+01 5.357E+05 17.6153 1.00000
  3.500E+06 3.500E+06 2.831E+00 3.340E+00 4.750E+00 1.536E+00 9.625E+00 1.246E+01 5.786E+05 17.9236 1.00000
  4.000E+06 4.000E+06 2.846E+00 3.843E+00 5.455E+00 1.775E+00 1.107E+01 1.392E+01 6.166E+05 18.1906 1.00000
  4.500E+06 4.500E+06 2.859E+00 4.349E+00 6.161E+00 2.017E+00 1.253E+01 1.539E+01 6.508E+05 18.4262 1.00000
  5.000E+06 5.000E+06 2.870E+00 4.856E+00 6.869E+00 2.262E+00 1.399E+01 1.686E+01 6.819E+05 18.6369 1.00000
  5.500E+06 5.500E+06 2.881E+00 5.364E+00 7.577E+00 2.509E+00 1.545E+01 1.833E+01 7.103E+05 18.8275 1.00000
  6.000E+06 6.000E+06 2.891E+00 5.874E+00 8.286E+00 2.759E+00 1.692E+01 1.981E+01 7.366E+05 19.0016 1.00000
  7.000E+06 7.000E+06 2.908E+00 6.896E+00 9.705E+00 3.264E+00 1.987E+01 2.277E+01 7.838E+05 19.3098 1.00000
  8.000E+06 8.000E+06 2.923E+00 7.920E+00 1.113E+01 3.778E+00 2.282E+01 2.575E+01 8.252E+05 19.5769 1.00000
  9.000E+06 9.000E+06 2.937E+00 8.947E+00 1.255E+01 4.297E+00 2.579E+01 2.873E+01 8.620E+05 19.8125 1.00000
  1.000E+07 1.000E+07 2.949E+00 9.977E+00 1.397E+01 4.823E+00 2.877E+01 3.172E+01 8.952E+05 20.0232 1.00000
  1.200E+07 1.200E+07 2.970E+00 1.204E+01 1.682E+01 5.892E+00 3.475E+01 3.772E+01 9.532E+05 20.3878 1.00000
  1.400E+07 1.400E+07 2.987E+00 1.411E+01 1.968E+01 6.979E+00 4.076E+01 4.375E+01 1.003E+06 20.6961 1.00000
  1.700E+07 1.700E+07 3.010E+00 1.722E+01 2.396E+01 8.641E+00 4.981E+01 5.282E+01 1.065E+06 21.0844 1.00000
  2.000E+07 2.000E+07 3.029E+00 2.033E+01 2.824E+01 1.033E+01 5.891E+01 6.194E+01 1.118E+06 21.4095 1.00000
  2.500E+07 2.500E+07 3.056E+00 2.553E+01 3.539E+01 1.322E+01 7.414E+01 7.720E+01 1.191E+06 21.8558 1.00000
  3.000E+07 3.000E+07 3.078E+00 3.074E+01 4.254E+01 1.617E+01 8.945E+01 9.252E+01 1.250E+06 22.2204 1.00000
  3.500E+07 3.500E+07 3.096E+00 3.596E+01 4.969E+01 1.917E+01 1.048E+02 1.079E+02 1.300E+06 22.5287 1.00000
  4.000E+07 4.000E+07 3.113E+00 4.118E+01 5.685E+01 2.222E+01 1.202E+02 1.234E+02 1.344E+06 22.7958 1.00000
  4.500E+07 4.500E+07 3.127E+00 4.640E+01 6.401E+01 2.531E+01 1.357E+02 1.388E+02 1.382E+06 23.0313 1.00000
  5.000E+07 5.000E+07 3.140E+00 5.163E+01 7.116E+01 2.844E+01 1.512E+02 1.544E+02 1.416E+06 23.2420 1.00000
  5.500E+07 5.500E+07 3.152E+00 5.686E+01 7.832E+01 3.160E+01 1.668E+02 1.699E+02 1.447E+06 23.4327 1.00000
  6.000E+07 6.000E+07 3.163E+00 6.209E+01 8.548E+01 3.480E+01 1.824E+02 1.855E+02 1.475E+06 23.6067 1.00000
  7.000E+07 7.000E+07 3.182E+00 7.256E+01 9.981E+01 4.129E+01 2.137E+02 2.168E+02 1.525E+06 23.9150 1.00000
  8.000E+07 8.000E+07 3.199E+00 8.303E+01 1.141E+02 4.787E+01 2.450E+02 2.482E+02 1.568E+06 24.1821 1.00000
  9.000E+07 9.000E+07 3.214E+00 9.351E+01 1.285E+02 5.455E+01 2.765E+02 2.797E+02 1.606E+06 24.4176 1.00000
  1.000E+08 1.000E+08 3.227E+00 1.040E+02 1.428E+02 6.132E+01 3.081E+02 3.113E+02 1.640E+06 24.6283 1.00000
  1.200E+08 1.200E+08 3.251E+00 1.250E+02 1.714E+02 7.508E+01 3.715E+02 3.747E+02 1.699E+06 24.9930 1.00000
  1.400E+08 1.400E+08 3.270E+00 1.459E+02 2.001E+02 8.910E+01 4.351E+02 4.384E+02 1.749E+06 25.3013 1.00000
  1.700E+08 1.700E+08 3.296E+00 1.774E+02 2.431E+02 1.106E+02 5.311E+02 5.344E+02 1.811E+06 25.6896 1.00000
  2.000E+08 2.000E+08 3.317E+00 2.089E+02 2.861E+02 1.324E+02 6.274E+02 6.308E+02 1.863E+06 26.0146 1.00000
  2.500E+08 2.500E+08 3.347E+00 2.614E+02 3.577E+02 1.698E+02 7.889E+02 7.922E+02 1.934E+06 26.4609 1.00000
  3.000E+08 3.000E+08 3.371E+00 3.139E+02 4.294E+02 2.080E+02 9.513E+02 9.546E+02 1.992E+06 26.8256 1.00000
  3.500E+08 3.500E+08 3.392E+00 3.664E+02 5.011E+02 2.469E+02 1.114E+03 1.118E+03 2.040E+06 27.1339 1.00000
  4.000E+08 4.000E+08 3.410E+00 4.189E+02 5.727E+02 2.865E+02 1.278E+03 1.282E+03 2.082E+06 27.4009 1.00000
  4.500E+08 4.500E+08 3.426E+00 4.714E+02 6.444E+02 3.267E+02 1.443E+03 1.446E+03 2.119E+06 27.6365 1.00000
  5.000E+08 5.000E+08 3.441E+00 5.240E+02 7.161E+02 3.674E+02 1.607E+03 1.611E+03 2.152E+06 27.8472 1.00000
  5.500E+08 5.500E+08 3.454E+00 5.765E+02 7.877E+02 4.085E+02 1.773E+03 1.776E+03 2.181E+06 28.0378 1.00000
  6.000E+08 6.000E+08 3.466E+00 6.290E+02 8.594E+02 4.502E+02 1.939E+03 1.942E+03 2.208E+06 28.2119 1.00000
  7.000E+08 7.000E+08 3.488E+00 7.341E+02 1.003E+03 5.346E+02 2.271E+03 2.275E+03 2.256E+06 28.5202 1.00000
  8.000E+08 8.000E+08 3.506E+00 8.392E+02 1.146E+03 6.205E+02 2.606E+03 2.609E+03 2.297E+06 28.7872 1.00000
  9.000E+08 9.000E+08 3.523E+00 9.442E+02 1.289E+03 7.077E+02 2.941E+03 2.945E+03 2.333E+06 29.0228 1.00000
  1.000E+09 1.000E+09 3.538E+00 1.049E+03 1.433E+03 7.960E+02 3.278E+03 3.282E+03 2.366E+06 29.2335 1.00000
