 Incident particle is a Muon with M = 105.65839 MeV
 Index = 0: CarbonAmorphous
      Absorber with <Z/A> = 0.49955
 Sternheimer coef:  a     k=m_s   x_0    x_1    I[eV]   Cbar  delta0
                 0.2024  3.0036  0.0351  2.4860   78.0  2.9925 0.10

 *** Table generated with PUMAS v1.00 ***

      T         p     Ionization  brems     pair     photonuc  Radloss    dE/dx   CSDA Range  delta   beta
    [MeV]    [MeV/c]  -----------------------[MeV cm^2/g]------------------------  [g/cm^2]
  1.000E+00 1.457E+01 4.516E+01 6.573E-07 0.000E+00 0.000E+00 6.573E-07 4.516E+01 1.107E-02  0.0016 0.13661
  1.200E+00 1.597E+01 3.897E+01 7.529E-07 0.000E+00 0.000E+00 7.529E-07 3.897E+01 1.585E-02  0.0019 0.14944
  1.400E+00 1.726E+01 3.439E+01 8.443E-07 0.000E+00 0.000E+00 8.443E-07 3.439E+01 2.133E-02  0.0023 0.16119
  1.700E+00 1.903E+01 2.937E+01 9.747E-07 0.000E+00 0.000E+00 9.747E-07 2.937E+01 3.080E-02  0.0028 0.17725
  2.000E+00 2.066E+01 2.572E+01 1.099E-06 0.000E+00 0.000E+00 1.099E-06 2.572E+01 4.174E-02  0.0033 0.19186
  2.500E+00 2.312E+01 2.145E+01 1.293E-06 0.000E+00 0.000E+00 1.293E-06 2.145E+01 6.311E-02  0.0041 0.21376
  3.000E+00 2.536E+01 1.849E+01 1.474E-06 0.000E+00 0.000E+00 1.474E-06 1.849E+01 8.829E-02  0.0049 0.23336
  3.500E+00 2.742E+01 1.632E+01 1.646E-06 0.000E+00 0.000E+00 1.646E-06 1.632E+01 1.171E-01  0.0057 0.25120
  4.000E+00 2.935E+01 1.465E+01 1.809E-06 0.000E+00 0.000E+00 1.809E-06 1.465E+01 1.495E-01  0.0066 0.26763
  4.500E+00 3.116E+01 1.332E+01 1.965E-06 0.000E+00 0.000E+00 1.965E-06 1.332E+01 1.854E-01  0.0074 0.28290
  5.000E+00 3.289E+01 1.224E+01 2.115E-06 0.000E+00 0.000E+00 2.115E-06 1.224E+01 2.245E-01  0.0082 0.29720
  5.500E+00 3.453E+01 1.135E+01 2.259E-06 0.000E+00 0.000E+00 2.259E-06 1.135E+01 2.670E-01  0.0091 0.31066
  6.000E+00 3.611E+01 1.059E+01 2.398E-06 0.000E+00 0.000E+00 2.398E-06 1.059E+01 3.126E-01  0.0099 0.32339
  7.000E+00 3.909E+01 9.377E+00 2.662E-06 0.000E+00 0.000E+00 2.662E-06 9.377E+00 4.132E-01  0.0116 0.34700
  8.000E+00 4.189E+01 8.451E+00 2.912E-06 0.000E+00 0.000E+00 2.912E-06 8.451E+00 5.257E-01  0.0134 0.36854
  9.000E+00 4.453E+01 7.718E+00 3.149E-06 0.000E+00 0.000E+00 3.149E-06 7.718E+00 6.496E-01  0.0151 0.38836
  1.000E+01 4.704E+01 7.124E+00 3.375E-06 0.000E+00 0.000E+00 3.375E-06 7.124E+00 7.846E-01  0.0169 0.40675
  1.200E+01 5.177E+01 6.216E+00 3.801E-06 0.000E+00 0.000E+00 3.801E-06 6.216E+00 1.086E+00  0.0204 0.43998
  1.400E+01 5.616E+01 5.556E+00 4.199E-06 0.000E+00 0.000E+00 4.199E-06 5.556E+00 1.427E+00  0.0240 0.46937
  1.700E+01 6.230E+01 4.844E+00 4.753E-06 0.000E+00 0.000E+00 4.753E-06 4.844E+00 2.006E+00  0.0296 0.50792
  2.000E+01 6.802E+01 4.337E+00 5.270E-06 0.000E+00 0.000E+00 5.270E-06 4.337E+00 2.662E+00  0.0353 0.54129
  2.500E+01 7.686E+01 3.754E+00 6.073E-06 0.000E+00 0.000E+00 6.073E-06 3.754E+00 3.904E+00  0.0450 0.58827
  3.000E+01 8.509E+01 3.362E+00 6.826E-06 0.000E+00 0.000E+00 6.826E-06 3.362E+00 5.314E+00  0.0552 0.62720
  3.500E+01 9.285E+01 3.079E+00 7.546E-06 0.000E+00 0.000E+00 7.546E-06 3.079E+00 6.869E+00  0.0657 0.66011
  4.000E+01 1.003E+02 2.868E+00 8.243E-06 0.000E+00 0.000E+00 8.243E-06 2.868E+00 8.553E+00  0.0766 0.68834
  4.500E+01 1.074E+02 2.703E+00 8.926E-06 0.000E+00 0.000E+00 8.926E-06 2.703E+00 1.035E+01  0.0879 0.71286
  5.000E+01 1.143E+02 2.572E+00 9.600E-06 0.000E+00 0.000E+00 9.600E-06 2.572E+00 1.225E+01  0.0996 0.73434
  5.500E+01 1.210E+02 2.456E+00 1.027E-05 0.000E+00 0.000E+00 1.027E-05 2.456E+00 1.424E+01  0.1819 0.75332
  6.000E+01 1.276E+02 2.367E+00 1.093E-05 0.000E+00 0.000E+00 1.093E-05 2.367E+00 1.631E+01  0.2059 0.77019
  7.000E+01 1.403E+02 2.230E+00 1.226E-05 0.000E+00 0.000E+00 1.226E-05 2.230E+00 2.066E+01  0.2531 0.79887
  8.000E+01 1.527E+02 2.129E+00 1.360E-05 0.000E+00 0.000E+00 1.360E-05 2.129E+00 2.526E+01  0.2989 0.82227
  9.000E+01 1.647E+02 2.053E+00 1.496E-05 0.000E+00 0.000E+00 1.496E-05 2.053E+00 3.004E+01  0.3434 0.84166
  1.000E+02 1.764E+02 1.994E+00 1.633E-05 0.000E+00 0.000E+00 1.633E-05 1.994E+00 3.498E+01  0.3866 0.85794
  1.200E+02 1.994E+02 1.911E+00 1.915E-05 0.000E+00 0.000E+00 1.915E-05 1.911E+00 4.523E+01  0.4691 0.88361
  1.400E+02 2.218E+02 1.857E+00 2.207E-05 0.000E+00 0.000E+00 2.207E-05 1.857E+00 5.585E+01  0.5472 0.90278
  1.700E+02 2.546E+02 1.807E+00 2.663E-05 3.905E-14 0.000E+00 2.663E-05 1.807E+00 7.223E+01  0.6568 0.92363
  2.000E+02 2.868E+02 1.778E+00 3.141E-05 8.722E-12 0.000E+00 3.141E-05 1.778E+00 8.896E+01  0.7589 0.93835
  2.500E+02 3.396E+02 1.756E+00 3.984E-05 7.208E-08 0.000E+00 3.991E-05 1.756E+00 1.173E+02  0.9151 0.95485
  3.000E+02 3.917E+02 1.749E+00 4.880E-05 6.325E-07 0.000E+00 4.943E-05 1.749E+00 1.458E+02  1.0570 0.96548
  3.500E+02 4.432E+02 1.750E+00 5.826E-05 1.735E-06 0.000E+00 5.999E-05 1.750E+00 1.744E+02  1.1875 0.97274
  4.000E+02 4.945E+02 1.755E+00 6.816E-05 3.354E-06 0.000E+00 7.152E-05 1.755E+00 2.029E+02  1.3084 0.97793
  4.500E+02 5.455E+02 1.763E+00 7.848E-05 5.471E-06 0.000E+00 8.395E-05 1.763E+00 2.313E+02  1.4211 0.98176
  5.000E+02 5.964E+02 1.771E+00 8.918E-05 8.067E-06 0.000E+00 9.725E-05 1.771E+00 2.596E+02  1.5269 0.98467
  5.500E+02 6.471E+02 1.780E+00 1.002E-04 1.113E-05 0.000E+00 1.114E-04 1.780E+00 2.878E+02  1.6265 0.98693
  6.000E+02 6.977E+02 1.789E+00 1.116E-04 1.463E-05 0.000E+00 1.263E-04 1.789E+00 3.158E+02  1.7207 0.98873
  7.000E+02 7.987E+02 1.807E+00 1.353E-04 2.293E-05 0.000E+00 1.583E-04 1.807E+00 3.714E+02  1.8953 0.99136
  8.000E+02 8.995E+02 1.824E+00 1.602E-04 3.284E-05 0.000E+00 1.930E-04 1.824E+00 4.265E+02  2.0543 0.99317
  9.000E+02 1.000E+03 1.840E+00 1.860E-04 4.427E-05 0.000E+00 2.303E-04 1.840E+00 4.811E+02  2.2005 0.99447
  1.000E+03 1.101E+03 1.855E+00 2.128E-04 5.712E-05 0.000E+00 2.700E-04 1.855E+00 5.352E+02  2.3359 0.99542
  1.200E+03 1.301E+03 1.882E+00 2.689E-04 8.676E-05 2.256E-05 3.783E-04 1.883E+00 6.422E+02  2.5801 0.99672
  1.400E+03 1.502E+03 1.906E+00 3.280E-04 1.212E-04 6.180E-05 5.110E-04 1.906E+00 7.478E+02  2.7963 0.99753
  1.700E+03 1.803E+03 1.936E+00 4.214E-04 1.809E-04 1.326E-04 7.349E-04 1.937E+00 9.039E+02  3.0805 0.99829
  2.000E+03 2.103E+03 1.961E+00 5.198E-04 2.491E-04 2.163E-04 9.852E-04 1.962E+00 1.058E+03  3.3281 0.99874
  2.500E+03 2.604E+03 1.996E+00 6.933E-04 3.791E-04 3.785E-04 1.451E-03 1.998E+00 1.310E+03  3.6817 0.99918
  3.000E+03 3.104E+03 2.025E+00 8.769E-04 5.269E-04 5.494E-04 1.953E-03 2.027E+00 1.559E+03  3.9814 0.99942
  3.500E+03 3.604E+03 2.049E+00 1.069E-03 6.897E-04 7.309E-04 2.490E-03 2.051E+00 1.804E+03  4.2419 0.99957
  4.000E+03 4.104E+03 2.069E+00 1.269E-03 8.799E-04 9.252E-04 3.074E-03 2.072E+00 2.047E+03  4.4725 0.99967
  4.500E+03 4.604E+03 2.086E+00 1.475E-03 1.088E-03 1.128E-03 3.691E-03 2.090E+00 2.287E+03  4.6794 0.99974
  5.000E+03 5.105E+03 2.102E+00 1.687E-03 1.309E-03 1.323E-03 4.319E-03 2.106E+00 2.525E+03  4.8672 0.99979
  5.500E+03 5.605E+03 2.116E+00 1.905E-03 1.541E-03 1.533E-03 4.979E-03 2.121E+00 2.762E+03  5.0390 0.99982
  6.000E+03 6.105E+03 2.129E+00 2.128E-03 1.784E-03 1.729E-03 5.641E-03 2.134E+00 2.997E+03  5.1975 0.99985
  7.000E+03 7.105E+03 2.150E+00 2.586E-03 2.298E-03 2.145E-03 7.029E-03 2.158E+00 3.463E+03  5.4818 0.99989
  8.000E+03 8.105E+03 2.169E+00 3.061E-03 2.845E-03 2.560E-03 8.466E-03 2.178E+00 3.924E+03  5.7314 0.99992
  9.000E+03 9.105E+03 2.185E+00 3.550E-03 3.422E-03 2.950E-03 9.922E-03 2.195E+00 4.382E+03  5.9540 0.99993
  1.000E+04 1.011E+04 2.200E+00 4.051E-03 4.026E-03 3.353E-03 1.143E-02 2.211E+00 4.835E+03  6.1547 0.99995
  1.200E+04 1.211E+04 2.224E+00 5.087E-03 5.303E-03 4.172E-03 1.456E-02 2.238E+00 5.735E+03  6.5056 0.99996
  1.400E+04 1.411E+04 2.243E+00 6.162E-03 6.660E-03 4.995E-03 1.782E-02 2.261E+00 6.624E+03  6.8051 0.99997
  1.700E+04 1.711E+04 2.268E+00 7.833E-03 8.821E-03 6.216E-03 2.287E-02 2.291E+00 7.942E+03  7.1856 0.99998
  2.000E+04 2.011E+04 2.288E+00 9.566E-03 1.111E-02 7.417E-03 2.809E-02 2.316E+00 9.244E+03  7.5063 0.99999
  2.500E+04 2.511E+04 2.315E+00 1.257E-02 1.514E-02 9.393E-03 3.710E-02 2.352E+00 1.139E+04  7.9490 0.99999
  3.000E+04 3.011E+04 2.336E+00 1.568E-02 1.941E-02 1.134E-02 4.643E-02 2.382E+00 1.350E+04  8.3120 0.99999
  3.500E+04 3.511E+04 2.353E+00 1.889E-02 2.387E-02 1.331E-02 5.607E-02 2.409E+00 1.559E+04  8.6193 1.00000
  4.000E+04 4.011E+04 2.368E+00 2.218E-02 2.848E-02 1.526E-02 6.592E-02 2.434E+00 1.765E+04  8.8856 1.00000
  4.500E+04 4.511E+04 2.382E+00 2.555E-02 3.323E-02 1.718E-02 7.596E-02 2.458E+00 1.970E+04  9.1206 1.00000
  5.000E+04 5.011E+04 2.393E+00 2.897E-02 3.810E-02 1.911E-02 8.618E-02 2.479E+00 2.172E+04  9.3309 1.00000
  5.500E+04 5.511E+04 2.404E+00 3.245E-02 4.307E-02 2.105E-02 9.657E-02 2.500E+00 2.373E+04  9.5211 1.00000
  6.000E+04 6.011E+04 2.413E+00 3.598E-02 4.813E-02 2.298E-02 1.071E-01 2.520E+00 2.572E+04  9.6948 1.00000
  7.000E+04 7.011E+04 2.430E+00 4.317E-02 5.849E-02 2.681E-02 1.285E-01 2.558E+00 2.966E+04 10.0026 1.00000
  8.000E+04 8.011E+04 2.444E+00 5.051E-02 6.912E-02 3.064E-02 1.503E-01 2.594E+00 3.354E+04 10.2693 1.00000
  9.000E+04 9.011E+04 2.456E+00 5.799E-02 7.998E-02 3.449E-02 1.725E-01 2.629E+00 3.737E+04 10.5046 1.00000
  1.000E+05 1.001E+05 2.467E+00 6.558E-02 9.104E-02 3.827E-02 1.949E-01 2.662E+00 4.115E+04 10.7150 1.00000
  1.200E+05 1.201E+05 2.486E+00 8.105E-02 1.136E-01 4.596E-02 2.407E-01 2.727E+00 4.857E+04 11.0793 1.00000
  1.400E+05 1.401E+05 2.502E+00 9.687E-02 1.368E-01 5.366E-02 2.873E-01 2.790E+00 5.583E+04 11.3874 1.00000
  1.700E+05 1.701E+05 2.522E+00 1.211E-01 1.723E-01 6.523E-02 3.586E-01 2.881E+00 6.641E+04 11.7754 1.00000
  2.000E+05 2.001E+05 2.539E+00 1.458E-01 2.086E-01 7.688E-02 4.313E-01 2.970E+00 7.667E+04 12.1003 1.00000
  2.500E+05 2.501E+05 2.562E+00 1.879E-01 2.703E-01 9.636E-02 5.546E-01 3.116E+00 9.311E+04 12.5464 1.00000
  3.000E+05 3.001E+05 2.580E+00 2.309E-01 3.332E-01 1.160E-01 6.801E-01 3.261E+00 1.088E+05 12.9109 1.00000
  3.500E+05 3.501E+05 2.596E+00 2.745E-01 3.970E-01 1.359E-01 8.074E-01 3.404E+00 1.238E+05 13.2191 1.00000
  4.000E+05 4.001E+05 2.610E+00 3.187E-01 4.615E-01 1.559E-01 9.362E-01 3.546E+00 1.382E+05 13.4860 1.00000
  4.500E+05 4.501E+05 2.622E+00 3.634E-01 5.267E-01 1.760E-01 1.066E+00 3.688E+00 1.520E+05 13.7216 1.00000
  5.000E+05 5.001E+05 2.633E+00 4.085E-01 5.923E-01 1.963E-01 1.197E+00 3.830E+00 1.653E+05 13.9322 1.00000
  5.500E+05 5.501E+05 2.643E+00 4.540E-01 6.583E-01 2.165E-01 1.329E+00 3.971E+00 1.782E+05 14.1228 1.00000
  6.000E+05 6.001E+05 2.652E+00 4.999E-01 7.247E-01 2.367E-01 1.461E+00 4.113E+00 1.905E+05 14.2968 1.00000
  7.000E+05 7.001E+05 2.667E+00 5.923E-01 8.583E-01 2.777E-01 1.728E+00 4.396E+00 2.141E+05 14.6051 1.00000
  8.000E+05 8.001E+05 2.681E+00 6.856E-01 9.929E-01 3.190E-01 1.998E+00 4.679E+00 2.361E+05 14.8721 1.00000
  9.000E+05 9.001E+05 2.694E+00 7.798E-01 1.128E+00 3.608E-01 2.269E+00 4.962E+00 2.569E+05 15.1076 1.00000
  1.000E+06 1.000E+06 2.705E+00 8.745E-01 1.264E+00 4.029E-01 2.542E+00 5.246E+00 2.765E+05 15.3183 1.00000
  1.200E+06 1.200E+06 2.724E+00 1.066E+00 1.538E+00 4.883E-01 3.092E+00 5.816E+00 3.128E+05 15.6829 1.00000
  1.400E+06 1.400E+06 2.740E+00 1.259E+00 1.813E+00 5.748E-01 3.647E+00 6.387E+00 3.456E+05 15.9912 1.00000
  1.700E+06 1.700E+06 2.761E+00 1.551E+00 2.229E+00 7.067E-01 4.486E+00 7.247E+00 3.898E+05 16.3795 1.00000
  2.000E+06 2.000E+06 2.778E+00 1.845E+00 2.646E+00 8.407E-01 5.332E+00 8.110E+00 4.290E+05 16.7045 1.00000
  2.500E+06 2.500E+06 2.802E+00 2.340E+00 3.345E+00 1.068E+00 6.752E+00 9.554E+00 4.860E+05 17.1508 1.00000
  3.000E+06 3.000E+06 2.822E+00 2.838E+00 4.046E+00 1.300E+00 8.184E+00 1.101E+01 5.349E+05 17.5154 1.00000
  3.500E+06 3.500E+06 2.839E+00 3.340E+00 4.750E+00 1.536E+00 9.625E+00 1.246E+01 5.776E+05 17.8237 1.00000
  4.000E+06 4.000E+06 2.853E+00 3.843E+00 5.455E+00 1.775E+00 1.107E+01 1.393E+01 6.156E+05 18.0907 1.00000
  4.500E+06 4.500E+06 2.866E+00 4.349E+00 6.161E+00 2.017E+00 1.253E+01 1.539E+01 6.498E+05 18.3263 1.00000
  5.000E+06 5.000E+06 2.878E+00 4.856E+00 6.869E+00 2.262E+00 1.399E+01 1.686E+01 6.809E+05 18.5370 1.00000
  5.500E+06 5.500E+06 2.889E+00 5.364E+00 7.577E+00 2.509E+00 1.545E+01 1.834E+01 7.094E+05 18.7276 1.00000
  6.000E+06 6.000E+06 2.898E+00 5.874E+00 8.286E+00 2.759E+00 1.692E+01 1.982E+01 7.356E+05 18.9017 1.00000
  7.000E+06 7.000E+06 2.916E+00 6.896E+00 9.705E+00 3.264E+00 1.987E+01 2.278E+01 7.828E+05 19.2099 1.00000
  8.000E+06 8.000E+06 2.931E+00 7.920E+00 1.113E+01 3.778E+00 2.282E+01 2.576E+01 8.241E+05 19.4770 1.00000
  9.000E+06 9.000E+06 2.944E+00 8.947E+00 1.255E+01 4.297E+00 2.579E+01 2.874E+01 8.610E+05 19.7126 1.00000
  1.000E+07 1.000E+07 2.956E+00 9.977E+00 1.397E+01 4.823E+00 2.877E+01 3.173E+01 8.941E+05 19.9233 1.00000
  1.200E+07 1.200E+07 2.977E+00 1.204E+01 1.682E+01 5.892E+00 3.475E+01 3.773E+01 9.521E+05 20.2879 1.00000
  1.400E+07 1.400E+07 2.995E+00 1.411E+01 1.968E+01 6.979E+00 4.076E+01 4.376E+01 1.001E+06 20.5962 1.00000
  1.700E+07 1.700E+07 3.018E+00 1.722E+01 2.396E+01 8.641E+00 4.981E+01 5.283E+01 1.064E+06 20.9845 1.00000
  2.000E+07 2.000E+07 3.037E+00 2.033E+01 2.824E+01 1.033E+01 5.891E+01 6.195E+01 1.117E+06 21.3096 1.00000
  2.500E+07 2.500E+07 3.064E+00 2.553E+01 3.539E+01 1.322E+01 7.414E+01 7.720E+01 1.190E+06 21.7559 1.00000
  3.000E+07 3.000E+07 3.085E+00 3.074E+01 4.254E+01 1.617E+01 8.945E+01 9.253E+01 1.249E+06 22.1205 1.00000
  3.500E+07 3.500E+07 3.104E+00 3.596E+01 4.969E+01 1.917E+01 1.048E+02 1.079E+02 1.299E+06 22.4288 1.00000
  4.000E+07 4.000E+07 3.120E+00 4.118E+01 5.685E+01 2.222E+01 1.202E+02 1.234E+02 1.343E+06 22.6959 1.00000
  4.500E+07 4.500E+07 3.135E+00 4.640E+01 6.401E+01 2.531E+01 1.357E+02 1.389E+02 1.381E+06 22.9314 1.00000
  5.000E+07 5.000E+07 3.148E+00 5.163E+01 7.116E+01 2.844E+01 1.512E+02 1.544E+02 1.415E+06 23.1421 1.00000
  5.500E+07 5.500E+07 3.160E+00 5.686E+01 7.832E+01 3.160E+01 1.668E+02 1.699E+02 1.446E+06 23.3328 1.00000
  6.000E+07 6.000E+07 3.170E+00 6.209E+01 8.548E+01 3.480E+01 1.824E+02 1.855E+02 1.474E+06 23.5068 1.00000
  7.000E+07 7.000E+07 3.190E+00 7.256E+01 9.981E+01 4.129E+01 2.137E+02 2.168E+02 1.524E+06 23.8151 1.00000
  8.000E+07 8.000E+07 3.206E+00 8.303E+01 1.141E+02 4.787E+01 2.450E+02 2.482E+02 1.567E+06 24.0822 1.00000
  9.000E+07 9.000E+07 3.221E+00 9.351E+01 1.285E+02 5.455E+01 2.765E+02 2.797E+02 1.605E+06 24.3177 1.00000
  1.000E+08 1.000E+08 3.235E+00 1.040E+02 1.428E+02 6.132E+01 3.081E+02 3.113E+02 1.639E+06 24.5284 1.00000
  1.200E+08 1.200E+08 3.258E+00 1.250E+02 1.714E+02 7.508E+01 3.715E+02 3.747E+02 1.698E+06 24.8931 1.00000
  1.400E+08 1.400E+08 3.278E+00 1.459E+02 2.001E+02 8.910E+01 4.351E+02 4.384E+02 1.748E+06 25.2014 1.00000
  1.700E+08 1.700E+08 3.303E+00 1.774E+02 2.431E+02 1.106E+02 5.311E+02 5.344E+02 1.810E+06 25.5897 1.00000
  2.000E+08 2.000E+08 3.325E+00 2.089E+02 2.861E+02 1.324E+02 6.274E+02 6.308E+02 1.862E+06 25.9147 1.00000
  2.500E+08 2.500E+08 3.354E+00 2.614E+02 3.577E+02 1.698E+02 7.889E+02 7.923E+02 1.933E+06 26.3610 1.00000
  3.000E+08 3.000E+08 3.379E+00 3.139E+02 4.294E+02 2.080E+02 9.513E+02 9.546E+02 1.991E+06 26.7257 1.00000
  3.500E+08 3.500E+08 3.400E+00 3.664E+02 5.011E+02 2.469E+02 1.114E+03 1.118E+03 2.039E+06 27.0340 1.00000
  4.000E+08 4.000E+08 3.418E+00 4.189E+02 5.727E+02 2.865E+02 1.278E+03 1.282E+03 2.081E+06 27.3010 1.00000
  4.500E+08 4.500E+08 3.434E+00 4.714E+02 6.444E+02 3.267E+02 1.443E+03 1.446E+03 2.118E+06 27.5366 1.00000
  5.000E+08 5.000E+08 3.448E+00 5.240E+02 7.161E+02 3.674E+02 1.607E+03 1.611E+03 2.151E+06 27.7473 1.00000
  5.500E+08 5.500E+08 3.462E+00 5.765E+02 7.877E+02 4.085E+02 1.773E+03 1.776E+03 2.180E+06 27.9379 1.00000
  6.000E+08 6.000E+08 3.474E+00 6.290E+02 8.594E+02 4.502E+02 1.939E+03 1.942E+03 2.207E+06 28.1120 1.00000
  7.000E+08 7.000E+08 3.495E+00 7.341E+02 1.003E+03 5.346E+02 2.271E+03 2.275E+03 2.255E+06 28.4203 1.00000
  8.000E+08 8.000E+08 3.514E+00 8.392E+02 1.146E+03 6.205E+02 2.606E+03 2.609E+03 2.296E+06 28.6873 1.00000
  9.000E+08 9.000E+08 3.531E+00 9.442E+02 1.289E+03 7.077E+02 2.941E+03 2.945E+03 2.332E+06 28.9229 1.00000
  1.000E+09 1.000E+09 3.546E+00 1.049E+03 1.433E+03 7.960E+02 3.278E+03 3.282E+03 2.364E+06 29.1336 1.00000
