 Incident particle is a Muon with M = 105.65839 MeV
 Index = 0: CelluloseNitrate
      Absorber with <Z/A> = 0.51422
 Sternheimer coef:  a     k=m_s   x_0    x_1    I[eV]   Cbar  delta0
                 0.1181  3.3237  0.1897  2.7253   87.0  3.4762 0.00

 *** Table generated with PUMAS v1.00 ***

      T         p     Ionization  brems     pair     photonuc  Radloss    dE/dx   CSDA Range  delta   beta
    [MeV]    [MeV/c]  -----------------------[MeV cm^2/g]------------------------  [g/cm^2]
  1.000E+00 1.457E+01 4.556E+01 7.698E-07 0.000E+00 0.000E+00 7.698E-07 4.556E+01 1.097E-02  0.0000 0.13661
  1.200E+00 1.597E+01 3.935E+01 8.825E-07 0.000E+00 0.000E+00 8.825E-07 3.935E+01 1.571E-02  0.0000 0.14944
  1.400E+00 1.726E+01 3.474E+01 9.901E-07 0.000E+00 0.000E+00 9.901E-07 3.474E+01 2.113E-02  0.0000 0.16119
  1.700E+00 1.903E+01 2.969E+01 1.144E-06 0.000E+00 0.000E+00 1.144E-06 2.969E+01 3.050E-02  0.0000 0.17725
  2.000E+00 2.066E+01 2.602E+01 1.289E-06 0.000E+00 0.000E+00 1.289E-06 2.602E+01 4.132E-02  0.0000 0.19186
  2.500E+00 2.312E+01 2.171E+01 1.517E-06 0.000E+00 0.000E+00 1.517E-06 2.171E+01 6.244E-02  0.0000 0.21376
  3.000E+00 2.536E+01 1.872E+01 1.731E-06 0.000E+00 0.000E+00 1.731E-06 1.872E+01 8.731E-02  0.0000 0.23336
  3.500E+00 2.742E+01 1.653E+01 1.932E-06 0.000E+00 0.000E+00 1.932E-06 1.653E+01 1.158E-01  0.0000 0.25120
  4.000E+00 2.935E+01 1.484E+01 2.124E-06 0.000E+00 0.000E+00 2.124E-06 1.484E+01 1.478E-01  0.0000 0.26763
  4.500E+00 3.116E+01 1.350E+01 2.307E-06 0.000E+00 0.000E+00 2.307E-06 1.350E+01 1.831E-01  0.0000 0.28290
  5.000E+00 3.289E+01 1.241E+01 2.482E-06 0.000E+00 0.000E+00 2.482E-06 1.241E+01 2.218E-01  0.0000 0.29720
  5.500E+00 3.453E+01 1.151E+01 2.650E-06 0.000E+00 0.000E+00 2.650E-06 1.151E+01 2.636E-01  0.0000 0.31066
  6.000E+00 3.611E+01 1.074E+01 2.813E-06 0.000E+00 0.000E+00 2.813E-06 1.074E+01 3.086E-01  0.0000 0.32339
  7.000E+00 3.909E+01 9.517E+00 3.122E-06 0.000E+00 0.000E+00 3.122E-06 9.517E+00 4.077E-01  0.0000 0.34700
  8.000E+00 4.189E+01 8.580E+00 3.414E-06 0.000E+00 0.000E+00 3.414E-06 8.580E+00 5.185E-01  0.0000 0.36854
  9.000E+00 4.453E+01 7.838E+00 3.691E-06 0.000E+00 0.000E+00 3.691E-06 7.838E+00 6.406E-01  0.0000 0.38836
  1.000E+01 4.704E+01 7.237E+00 3.955E-06 0.000E+00 0.000E+00 3.955E-06 7.237E+00 7.735E-01  0.0000 0.40675
  1.200E+01 5.177E+01 6.318E+00 4.452E-06 0.000E+00 0.000E+00 4.452E-06 6.318E+00 1.070E+00  0.0000 0.43998
  1.400E+01 5.616E+01 5.649E+00 4.915E-06 0.000E+00 0.000E+00 4.915E-06 5.649E+00 1.405E+00  0.0000 0.46937
  1.700E+01 6.230E+01 4.928E+00 5.561E-06 0.000E+00 0.000E+00 5.561E-06 4.928E+00 1.975E+00  0.0000 0.50792
  2.000E+01 6.802E+01 4.415E+00 6.164E-06 0.000E+00 0.000E+00 6.164E-06 4.415E+00 2.619E+00  0.0000 0.54129
  2.500E+01 7.686E+01 3.825E+00 7.099E-06 0.000E+00 0.000E+00 7.099E-06 3.825E+00 3.839E+00  0.0000 0.58827
  3.000E+01 8.509E+01 3.427E+00 7.975E-06 0.000E+00 0.000E+00 7.975E-06 3.427E+00 5.222E+00  0.0000 0.62720
  3.500E+01 9.285E+01 3.142E+00 8.813E-06 0.000E+00 0.000E+00 8.813E-06 3.142E+00 6.747E+00  0.0000 0.66011
  4.000E+01 1.003E+02 2.928E+00 9.625E-06 0.000E+00 0.000E+00 9.625E-06 2.928E+00 8.397E+00  0.0000 0.68834
  4.500E+01 1.074E+02 2.762E+00 1.042E-05 0.000E+00 0.000E+00 1.042E-05 2.762E+00 1.016E+01  0.0000 0.71286
  5.000E+01 1.143E+02 2.630E+00 1.120E-05 0.000E+00 0.000E+00 1.120E-05 2.630E+00 1.201E+01  0.0000 0.73434
  5.500E+01 1.210E+02 2.523E+00 1.198E-05 0.000E+00 0.000E+00 1.198E-05 2.523E+00 1.395E+01  0.0000 0.75332
  6.000E+01 1.276E+02 2.435E+00 1.276E-05 0.000E+00 0.000E+00 1.276E-05 2.435E+00 1.597E+01  0.0000 0.77019
  7.000E+01 1.403E+02 2.299E+00 1.431E-05 0.000E+00 0.000E+00 1.431E-05 2.299E+00 2.020E+01  0.0000 0.79887
  8.000E+01 1.527E+02 2.201E+00 1.587E-05 0.000E+00 0.000E+00 1.587E-05 2.201E+00 2.464E+01  0.0000 0.82227
  9.000E+01 1.647E+02 2.127E+00 1.745E-05 0.000E+00 0.000E+00 1.745E-05 2.127E+00 2.927E+01  0.0029 0.84166
  1.000E+02 1.764E+02 2.066E+00 1.905E-05 0.000E+00 0.000E+00 1.905E-05 2.066E+00 3.404E+01  0.0404 0.85794
  1.200E+02 1.994E+02 1.981E+00 2.234E-05 0.000E+00 0.000E+00 2.234E-05 1.981E+00 4.392E+01  0.1136 0.88361
  1.400E+02 2.218E+02 1.925E+00 2.574E-05 0.000E+00 0.000E+00 2.574E-05 1.926E+00 5.416E+01  0.1841 0.90278
  1.700E+02 2.546E+02 1.874E+00 3.107E-05 4.571E-14 0.000E+00 3.107E-05 1.874E+00 6.996E+01  0.2848 0.92363
  2.000E+02 2.868E+02 1.845E+00 3.665E-05 1.022E-11 0.000E+00 3.665E-05 1.845E+00 8.609E+01  0.3799 0.93835
  2.500E+02 3.396E+02 1.822E+00 4.650E-05 8.403E-08 0.000E+00 4.659E-05 1.822E+00 1.134E+02  0.5272 0.95485
  3.000E+02 3.917E+02 1.815E+00 5.699E-05 7.471E-07 0.000E+00 5.773E-05 1.815E+00 1.409E+02  0.6626 0.96548
  3.500E+02 4.432E+02 1.817E+00 6.804E-05 2.056E-06 0.000E+00 7.010E-05 1.817E+00 1.684E+02  0.7879 0.97274
  4.000E+02 4.945E+02 1.822E+00 7.963E-05 3.981E-06 0.000E+00 8.361E-05 1.822E+00 1.959E+02  0.9046 0.97793
  4.500E+02 5.455E+02 1.830E+00 9.170E-05 6.500E-06 0.000E+00 9.820E-05 1.830E+00 2.233E+02  1.0138 0.98176
  5.000E+02 5.964E+02 1.839E+00 1.042E-04 9.591E-06 0.000E+00 1.138E-04 1.839E+00 2.505E+02  1.1166 0.98467
  5.500E+02 6.471E+02 1.848E+00 1.172E-04 1.324E-05 0.000E+00 1.304E-04 1.848E+00 2.776E+02  1.2137 0.98693
  6.000E+02 6.977E+02 1.857E+00 1.305E-04 1.741E-05 0.000E+00 1.479E-04 1.857E+00 3.046E+02  1.3058 0.98873
  7.000E+02 7.987E+02 1.876E+00 1.583E-04 2.730E-05 0.000E+00 1.856E-04 1.876E+00 3.582E+02  1.4767 0.99136
  8.000E+02 8.995E+02 1.894E+00 1.874E-04 3.912E-05 0.000E+00 2.265E-04 1.894E+00 4.112E+02  1.6328 0.99317
  9.000E+02 1.000E+03 1.911E+00 2.176E-04 5.274E-05 0.000E+00 2.704E-04 1.911E+00 4.638E+02  1.7765 0.99447
  1.000E+03 1.101E+03 1.926E+00 2.490E-04 6.806E-05 0.000E+00 3.171E-04 1.926E+00 5.159E+02  1.9098 0.99542
  1.200E+03 1.301E+03 1.954E+00 3.147E-04 1.034E-04 2.255E-05 4.407E-04 1.955E+00 6.190E+02  2.1507 0.99672
  1.400E+03 1.502E+03 1.979E+00 3.839E-04 1.445E-04 6.176E-05 5.902E-04 1.979E+00 7.207E+02  2.3642 0.99753
  1.700E+03 1.803E+03 2.010E+00 4.934E-04 2.156E-04 1.325E-04 8.415E-04 2.011E+00 8.711E+02  2.6451 0.99829
  2.000E+03 2.103E+03 2.036E+00 6.087E-04 2.970E-04 2.159E-04 1.122E-03 2.038E+00 1.019E+03  2.8901 0.99874
  2.500E+03 2.604E+03 2.073E+00 8.120E-04 4.521E-04 3.777E-04 1.642E-03 2.074E+00 1.262E+03  3.2401 0.99918
  3.000E+03 3.104E+03 2.102E+00 1.027E-03 6.282E-04 5.479E-04 2.203E-03 2.104E+00 1.502E+03  3.5370 0.99942
  3.500E+03 3.604E+03 2.127E+00 1.252E-03 8.225E-04 7.287E-04 2.803E-03 2.130E+00 1.738E+03  3.7950 0.99957
  4.000E+03 4.104E+03 2.148E+00 1.486E-03 1.047E-03 9.221E-04 3.455E-03 2.151E+00 1.972E+03  4.0234 0.99967
  4.500E+03 4.604E+03 2.166E+00 1.727E-03 1.292E-03 1.124E-03 4.143E-03 2.170E+00 2.203E+03  4.2283 0.99974
  5.000E+03 5.105E+03 2.182E+00 1.976E-03 1.552E-03 1.317E-03 4.845E-03 2.187E+00 2.433E+03  4.4142 0.99979
  5.500E+03 5.605E+03 2.197E+00 2.231E-03 1.824E-03 1.527E-03 5.582E-03 2.202E+00 2.660E+03  4.5844 0.99982
  6.000E+03 6.105E+03 2.210E+00 2.491E-03 2.110E-03 1.722E-03 6.323E-03 2.216E+00 2.887E+03  4.7414 0.99985
  7.000E+03 7.105E+03 2.233E+00 3.028E-03 2.713E-03 2.136E-03 7.877E-03 2.240E+00 3.335E+03  5.0229 0.99989
  8.000E+03 8.105E+03 2.252E+00 3.583E-03 3.355E-03 2.547E-03 9.486E-03 2.261E+00 3.780E+03  5.2701 0.99992
  9.000E+03 9.105E+03 2.269E+00 4.155E-03 4.033E-03 2.935E-03 1.112E-02 2.280E+00 4.220E+03  5.4905 0.99993
  1.000E+04 1.011E+04 2.284E+00 4.741E-03 4.741E-03 3.336E-03 1.282E-02 2.296E+00 4.657E+03  5.6893 0.99995
  1.200E+04 1.211E+04 2.309E+00 5.952E-03 6.237E-03 4.149E-03 1.634E-02 2.325E+00 5.523E+03  6.0368 0.99996
  1.400E+04 1.411E+04 2.329E+00 7.207E-03 7.827E-03 4.966E-03 2.000E-02 2.349E+00 6.378E+03  6.3336 0.99997
  1.700E+04 1.711E+04 2.355E+00 9.159E-03 1.036E-02 6.179E-03 2.569E-02 2.380E+00 7.647E+03  6.7108 0.99998
  2.000E+04 2.011E+04 2.375E+00 1.118E-02 1.303E-02 7.371E-03 3.158E-02 2.407E+00 8.900E+03  7.0289 0.99999
  2.500E+04 2.511E+04 2.403E+00 1.468E-02 1.775E-02 9.332E-03 4.177E-02 2.445E+00 1.096E+04  7.4686 0.99999
  3.000E+04 3.011E+04 2.425E+00 1.831E-02 2.274E-02 1.126E-02 5.232E-02 2.477E+00 1.299E+04  7.8298 0.99999
  3.500E+04 3.511E+04 2.443E+00 2.206E-02 2.795E-02 1.321E-02 6.321E-02 2.507E+00 1.500E+04  8.1362 1.00000
  4.000E+04 4.011E+04 2.459E+00 2.589E-02 3.333E-02 1.515E-02 7.437E-02 2.533E+00 1.698E+04  8.4021 1.00000
  4.500E+04 4.511E+04 2.472E+00 2.981E-02 3.887E-02 1.706E-02 8.574E-02 2.558E+00 1.895E+04  8.6369 1.00000
  5.000E+04 5.011E+04 2.484E+00 3.379E-02 4.455E-02 1.897E-02 9.731E-02 2.582E+00 2.089E+04  8.8472 1.00000
  5.500E+04 5.511E+04 2.495E+00 3.784E-02 5.034E-02 2.090E-02 1.091E-01 2.604E+00 2.282E+04  9.0374 1.00000
  6.000E+04 6.011E+04 2.505E+00 4.195E-02 5.624E-02 2.281E-02 1.210E-01 2.626E+00 2.473E+04  9.2111 1.00000
  7.000E+04 7.011E+04 2.522E+00 5.032E-02 6.831E-02 2.660E-02 1.452E-01 2.667E+00 2.851E+04  9.5189 1.00000
  8.000E+04 8.011E+04 2.537E+00 5.886E-02 8.069E-02 3.040E-02 1.699E-01 2.706E+00 3.223E+04  9.7856 1.00000
  9.000E+04 9.011E+04 2.549E+00 6.755E-02 9.334E-02 3.421E-02 1.951E-01 2.744E+00 3.590E+04 10.0209 1.00000
  1.000E+05 1.001E+05 2.561E+00 7.637E-02 1.062E-01 3.795E-02 2.205E-01 2.781E+00 3.952E+04 10.2313 1.00000
  1.200E+05 1.201E+05 2.580E+00 9.435E-02 1.325E-01 4.558E-02 2.724E-01 2.853E+00 4.662E+04 10.5956 1.00000
  1.400E+05 1.401E+05 2.597E+00 1.127E-01 1.594E-01 5.321E-02 3.253E-01 2.922E+00 5.355E+04 10.9037 1.00000
  1.700E+05 1.701E+05 2.617E+00 1.408E-01 2.007E-01 6.467E-02 4.062E-01 3.023E+00 6.365E+04 11.2917 1.00000
  2.000E+05 2.001E+05 2.634E+00 1.695E-01 2.428E-01 7.621E-02 4.885E-01 3.123E+00 7.341E+04 11.6166 1.00000
  2.500E+05 2.501E+05 2.658E+00 2.184E-01 3.144E-01 9.551E-02 6.283E-01 3.286E+00 8.902E+04 12.0627 1.00000
  3.000E+05 3.001E+05 2.677E+00 2.682E-01 3.874E-01 1.150E-01 7.705E-01 3.448E+00 1.039E+05 12.4272 1.00000
  3.500E+05 3.501E+05 2.693E+00 3.188E-01 4.613E-01 1.347E-01 9.148E-01 3.608E+00 1.181E+05 12.7354 1.00000
  4.000E+05 4.001E+05 2.707E+00 3.700E-01 5.361E-01 1.545E-01 1.061E+00 3.768E+00 1.316E+05 13.0023 1.00000
  4.500E+05 4.501E+05 2.720E+00 4.218E-01 6.116E-01 1.744E-01 1.208E+00 3.928E+00 1.446E+05 13.2379 1.00000
  5.000E+05 5.001E+05 2.731E+00 4.740E-01 6.875E-01 1.945E-01 1.356E+00 4.087E+00 1.571E+05 13.4485 1.00000
  5.500E+05 5.501E+05 2.741E+00 5.267E-01 7.640E-01 2.145E-01 1.505E+00 4.246E+00 1.691E+05 13.6391 1.00000
  6.000E+05 6.001E+05 2.750E+00 5.797E-01 8.408E-01 2.345E-01 1.655E+00 4.405E+00 1.807E+05 13.8131 1.00000
  7.000E+05 7.001E+05 2.767E+00 6.867E-01 9.955E-01 2.750E-01 1.957E+00 4.724E+00 2.026E+05 14.1214 1.00000
  8.000E+05 8.001E+05 2.781E+00 7.947E-01 1.151E+00 3.160E-01 2.262E+00 5.043E+00 2.231E+05 14.3884 1.00000
  9.000E+05 9.001E+05 2.794E+00 9.035E-01 1.308E+00 3.574E-01 2.569E+00 5.362E+00 2.423E+05 14.6239 1.00000
  1.000E+06 1.000E+06 2.805E+00 1.013E+00 1.465E+00 3.991E-01 2.877E+00 5.682E+00 2.605E+05 14.8346 1.00000
  1.200E+06 1.200E+06 2.825E+00 1.234E+00 1.782E+00 4.836E-01 3.499E+00 6.324E+00 2.939E+05 15.1992 1.00000
  1.400E+06 1.400E+06 2.841E+00 1.457E+00 2.100E+00 5.693E-01 4.126E+00 6.967E+00 3.240E+05 15.5075 1.00000
  1.700E+06 1.700E+06 2.863E+00 1.794E+00 2.579E+00 6.999E-01 5.074E+00 7.936E+00 3.645E+05 15.8958 1.00000
  2.000E+06 2.000E+06 2.880E+00 2.134E+00 3.061E+00 8.326E-01 6.028E+00 8.909E+00 4.002E+05 16.2208 1.00000
  2.500E+06 2.500E+06 2.905E+00 2.705E+00 3.868E+00 1.058E+00 7.632E+00 1.054E+01 4.520E+05 16.6671 1.00000
  3.000E+06 3.000E+06 2.926E+00 3.281E+00 4.678E+00 1.287E+00 9.247E+00 1.217E+01 4.963E+05 17.0317 1.00000
  3.500E+06 3.500E+06 2.943E+00 3.860E+00 5.490E+00 1.521E+00 1.087E+01 1.381E+01 5.349E+05 17.3400 1.00000
  4.000E+06 4.000E+06 2.958E+00 4.441E+00 6.304E+00 1.758E+00 1.250E+01 1.546E+01 5.692E+05 17.6070 1.00000
  4.500E+06 4.500E+06 2.971E+00 5.024E+00 7.120E+00 1.997E+00 1.414E+01 1.711E+01 6.000E+05 17.8426 1.00000
  5.000E+06 5.000E+06 2.983E+00 5.609E+00 7.936E+00 2.240E+00 1.578E+01 1.877E+01 6.279E+05 18.0533 1.00000
  5.500E+06 5.500E+06 2.994E+00 6.195E+00 8.753E+00 2.484E+00 1.743E+01 2.043E+01 6.534E+05 18.2439 1.00000
  6.000E+06 6.000E+06 3.004E+00 6.782E+00 9.571E+00 2.732E+00 1.909E+01 2.209E+01 6.770E+05 18.4180 1.00000
  7.000E+06 7.000E+06 3.022E+00 7.960E+00 1.121E+01 3.232E+00 2.240E+01 2.542E+01 7.193E+05 18.7262 1.00000
  8.000E+06 8.000E+06 3.038E+00 9.141E+00 1.285E+01 3.740E+00 2.573E+01 2.877E+01 7.564E+05 18.9933 1.00000
  9.000E+06 9.000E+06 3.052E+00 1.033E+01 1.449E+01 4.255E+00 2.907E+01 3.212E+01 7.893E+05 19.2289 1.00000
  1.000E+07 1.000E+07 3.064E+00 1.151E+01 1.613E+01 4.776E+00 3.242E+01 3.548E+01 8.190E+05 19.4396 1.00000
  1.200E+07 1.200E+07 3.086E+00 1.389E+01 1.942E+01 5.833E+00 3.914E+01 4.223E+01 8.708E+05 19.8042 1.00000
  1.400E+07 1.400E+07 3.104E+00 1.627E+01 2.271E+01 6.910E+00 4.589E+01 4.900E+01 9.149E+05 20.1125 1.00000
  1.700E+07 1.700E+07 3.127E+00 1.985E+01 2.765E+01 8.555E+00 5.606E+01 5.918E+01 9.709E+05 20.5008 1.00000
  2.000E+07 2.000E+07 3.147E+00 2.344E+01 3.259E+01 1.023E+01 6.626E+01 6.941E+01 1.018E+06 20.8259 1.00000
  2.500E+07 2.500E+07 3.174E+00 2.943E+01 4.084E+01 1.309E+01 8.335E+01 8.653E+01 1.083E+06 21.2722 1.00000
  3.000E+07 3.000E+07 3.197E+00 3.543E+01 4.909E+01 1.600E+01 1.005E+02 1.037E+02 1.136E+06 21.6368 1.00000
  3.500E+07 3.500E+07 3.216E+00 4.143E+01 5.734E+01 1.898E+01 1.177E+02 1.210E+02 1.181E+06 21.9451 1.00000
  4.000E+07 4.000E+07 3.233E+00 4.744E+01 6.559E+01 2.200E+01 1.350E+02 1.383E+02 1.219E+06 22.2122 1.00000
  4.500E+07 4.500E+07 3.248E+00 5.346E+01 7.384E+01 2.506E+01 1.524E+02 1.556E+02 1.253E+06 22.4477 1.00000
  5.000E+07 5.000E+07 3.261E+00 5.948E+01 8.210E+01 2.816E+01 1.697E+02 1.730E+02 1.284E+06 22.6584 1.00000
  5.500E+07 5.500E+07 3.273E+00 6.550E+01 9.036E+01 3.129E+01 1.871E+02 1.904E+02 1.312E+06 22.8491 1.00000
  6.000E+07 6.000E+07 3.284E+00 7.152E+01 9.862E+01 3.446E+01 2.046E+02 2.079E+02 1.337E+06 23.0231 1.00000
  7.000E+07 7.000E+07 3.304E+00 8.357E+01 1.151E+02 4.087E+01 2.396E+02 2.429E+02 1.381E+06 23.3314 1.00000
  8.000E+07 8.000E+07 3.322E+00 9.562E+01 1.317E+02 4.740E+01 2.747E+02 2.780E+02 1.420E+06 23.5985 1.00000
  9.000E+07 9.000E+07 3.337E+00 1.077E+02 1.482E+02 5.401E+01 3.099E+02 3.132E+02 1.454E+06 23.8340 1.00000
  1.000E+08 1.000E+08 3.351E+00 1.197E+02 1.647E+02 6.071E+01 3.452E+02 3.485E+02 1.484E+06 24.0447 1.00000
  1.200E+08 1.200E+08 3.375E+00 1.439E+02 1.978E+02 7.433E+01 4.160E+02 4.193E+02 1.537E+06 24.4094 1.00000
  1.400E+08 1.400E+08 3.395E+00 1.680E+02 2.308E+02 8.821E+01 4.870E+02 4.904E+02 1.581E+06 24.7177 1.00000
  1.700E+08 1.700E+08 3.421E+00 2.043E+02 2.804E+02 1.094E+02 5.941E+02 5.975E+02 1.637E+06 25.1060 1.00000
  2.000E+08 2.000E+08 3.443E+00 2.405E+02 3.300E+02 1.311E+02 7.016E+02 7.050E+02 1.683E+06 25.4310 1.00000
  2.500E+08 2.500E+08 3.474E+00 3.009E+02 4.126E+02 1.681E+02 8.816E+02 8.851E+02 1.747E+06 25.8773 1.00000
  3.000E+08 3.000E+08 3.499E+00 3.613E+02 4.953E+02 2.059E+02 1.062E+03 1.066E+03 1.798E+06 26.2420 1.00000
  3.500E+08 3.500E+08 3.520E+00 4.217E+02 5.779E+02 2.444E+02 1.244E+03 1.248E+03 1.842E+06 26.5503 1.00000
  4.000E+08 4.000E+08 3.539E+00 4.822E+02 6.606E+02 2.836E+02 1.426E+03 1.430E+03 1.879E+06 26.8173 1.00000
  4.500E+08 4.500E+08 3.556E+00 5.426E+02 7.432E+02 3.234E+02 1.609E+03 1.613E+03 1.912E+06 27.0529 1.00000
  5.000E+08 5.000E+08 3.571E+00 6.031E+02 8.259E+02 3.637E+02 1.793E+03 1.796E+03 1.942E+06 27.2636 1.00000
  5.500E+08 5.500E+08 3.584E+00 6.635E+02 9.085E+02 4.045E+02 1.976E+03 1.980E+03 1.968E+06 27.4542 1.00000
  6.000E+08 6.000E+08 3.597E+00 7.239E+02 9.912E+02 4.457E+02 2.161E+03 2.164E+03 1.993E+06 27.6283 1.00000
  7.000E+08 7.000E+08 3.619E+00 8.448E+02 1.156E+03 5.293E+02 2.531E+03 2.534E+03 2.035E+06 27.9366 1.00000
  8.000E+08 8.000E+08 3.638E+00 9.657E+02 1.322E+03 6.143E+02 2.902E+03 2.905E+03 2.072E+06 28.2036 1.00000
  9.000E+08 9.000E+08 3.655E+00 1.087E+03 1.487E+03 7.006E+02 3.274E+03 3.278E+03 2.105E+06 28.4392 1.00000
  1.000E+09 1.000E+09 3.671E+00 1.208E+03 1.652E+03 7.881E+02 3.648E+03 3.652E+03 2.134E+06 28.6499 1.00000
