 Incident particle is a Muon with M = 105.65839 MeV
 Index = 0: Chlorobenzene
      Absorber with <Z/A> = 0.51526
 Sternheimer coef:  a     k=m_s   x_0    x_1    I[eV]   Cbar  delta0
                 0.0986  3.3797  0.1714  2.9272   89.1  3.8201 0.00

 *** Table generated with PUMAS v1.00 ***

      T         p     Ionization  brems     pair     photonuc  Radloss    dE/dx   CSDA Range  delta   beta
    [MeV]    [MeV/c]  -----------------------[MeV cm^2/g]------------------------  [g/cm^2]
  1.000E+00 1.457E+01 4.545E+01 9.406E-07 0.000E+00 0.000E+00 9.406E-07 4.545E+01 1.100E-02  0.0000 0.13661
  1.200E+00 1.597E+01 3.926E+01 1.079E-06 0.000E+00 0.000E+00 1.079E-06 3.926E+01 1.575E-02  0.0000 0.14944
  1.400E+00 1.726E+01 3.467E+01 1.211E-06 0.000E+00 0.000E+00 1.211E-06 3.467E+01 2.118E-02  0.0000 0.16119
  1.700E+00 1.903E+01 2.963E+01 1.399E-06 0.000E+00 0.000E+00 1.399E-06 2.963E+01 3.057E-02  0.0000 0.17725
  2.000E+00 2.066E+01 2.597E+01 1.577E-06 0.000E+00 0.000E+00 1.577E-06 2.597E+01 4.141E-02  0.0000 0.19186
  2.500E+00 2.312E+01 2.167E+01 1.856E-06 0.000E+00 0.000E+00 1.856E-06 2.167E+01 6.257E-02  0.0000 0.21376
  3.000E+00 2.536E+01 1.869E+01 2.116E-06 0.000E+00 0.000E+00 2.116E-06 1.869E+01 8.748E-02  0.0000 0.23336
  3.500E+00 2.742E+01 1.650E+01 2.362E-06 0.000E+00 0.000E+00 2.362E-06 1.650E+01 1.160E-01  0.0000 0.25120
  4.000E+00 2.935E+01 1.482E+01 2.594E-06 0.000E+00 0.000E+00 2.594E-06 1.482E+01 1.480E-01  0.0000 0.26763
  4.500E+00 3.116E+01 1.348E+01 2.816E-06 0.000E+00 0.000E+00 2.816E-06 1.348E+01 1.834E-01  0.0000 0.28290
  5.000E+00 3.289E+01 1.240E+01 3.029E-06 0.000E+00 0.000E+00 3.029E-06 1.240E+01 2.221E-01  0.0000 0.29720
  5.500E+00 3.453E+01 1.149E+01 3.233E-06 0.000E+00 0.000E+00 3.233E-06 1.149E+01 2.641E-01  0.0000 0.31066
  6.000E+00 3.611E+01 1.073E+01 3.430E-06 0.000E+00 0.000E+00 3.430E-06 1.073E+01 3.091E-01  0.0000 0.32339
  7.000E+00 3.909E+01 9.505E+00 3.804E-06 0.000E+00 0.000E+00 3.804E-06 9.505E+00 4.083E-01  0.0000 0.34700
  8.000E+00 4.189E+01 8.569E+00 4.156E-06 0.000E+00 0.000E+00 4.156E-06 8.569E+00 5.193E-01  0.0000 0.36854
  9.000E+00 4.453E+01 7.829E+00 4.490E-06 0.000E+00 0.000E+00 4.490E-06 7.829E+00 6.415E-01  0.0000 0.38836
  1.000E+01 4.704E+01 7.228E+00 4.808E-06 0.000E+00 0.000E+00 4.808E-06 7.228E+00 7.745E-01  0.0000 0.40675
  1.200E+01 5.177E+01 6.311E+00 5.405E-06 0.000E+00 0.000E+00 5.405E-06 6.311E+00 1.071E+00  0.0000 0.43998
  1.400E+01 5.616E+01 5.643E+00 5.961E-06 0.000E+00 0.000E+00 5.961E-06 5.643E+00 1.407E+00  0.0000 0.46937
  1.700E+01 6.230E+01 4.923E+00 6.736E-06 0.000E+00 0.000E+00 6.736E-06 4.923E+00 1.977E+00  0.0000 0.50792
  2.000E+01 6.802E+01 4.411E+00 7.458E-06 0.000E+00 0.000E+00 7.458E-06 4.411E+00 2.622E+00  0.0000 0.54129
  2.500E+01 7.686E+01 3.822E+00 8.577E-06 0.000E+00 0.000E+00 8.577E-06 3.822E+00 3.843E+00  0.0000 0.58827
  3.000E+01 8.509E+01 3.425E+00 9.626E-06 0.000E+00 0.000E+00 9.626E-06 3.425E+00 5.227E+00  0.0000 0.62720
  3.500E+01 9.285E+01 3.140E+00 1.063E-05 0.000E+00 0.000E+00 1.063E-05 3.140E+00 6.753E+00  0.0000 0.66011
  4.000E+01 1.003E+02 2.926E+00 1.160E-05 0.000E+00 0.000E+00 1.160E-05 2.926E+00 8.404E+00  0.0000 0.68834
  4.500E+01 1.074E+02 2.760E+00 1.255E-05 0.000E+00 0.000E+00 1.255E-05 2.760E+00 1.016E+01  0.0000 0.71286
  5.000E+01 1.143E+02 2.629E+00 1.349E-05 0.000E+00 0.000E+00 1.349E-05 2.629E+00 1.202E+01  0.0000 0.73434
  5.500E+01 1.210E+02 2.522E+00 1.443E-05 0.000E+00 0.000E+00 1.443E-05 2.522E+00 1.396E+01  0.0000 0.75332
  6.000E+01 1.276E+02 2.434E+00 1.536E-05 0.000E+00 0.000E+00 1.536E-05 2.434E+00 1.598E+01  0.0000 0.77019
  7.000E+01 1.403E+02 2.298E+00 1.722E-05 0.000E+00 0.000E+00 1.722E-05 2.298E+00 2.021E+01  0.0000 0.79887
  8.000E+01 1.527E+02 2.200E+00 1.910E-05 0.000E+00 0.000E+00 1.910E-05 2.200E+00 2.466E+01  0.0000 0.82227
  9.000E+01 1.647E+02 2.124E+00 2.100E-05 0.000E+00 0.000E+00 2.100E-05 2.124E+00 2.929E+01  0.0212 0.84166
  1.000E+02 1.764E+02 2.064E+00 2.293E-05 0.000E+00 0.000E+00 2.293E-05 2.064E+00 3.406E+01  0.0512 0.85794
  1.200E+02 1.994E+02 1.980E+00 2.689E-05 0.000E+00 0.000E+00 2.689E-05 1.980E+00 4.396E+01  0.1113 0.88361
  1.400E+02 2.218E+02 1.926E+00 3.099E-05 0.000E+00 0.000E+00 3.099E-05 1.926E+00 5.420E+01  0.1706 0.90278
  1.700E+02 2.546E+02 1.876E+00 3.741E-05 2.569E-14 0.000E+00 3.741E-05 1.876E+00 6.998E+01  0.2569 0.92363
  2.000E+02 2.868E+02 1.848E+00 4.415E-05 5.737E-12 0.000E+00 4.415E-05 1.848E+00 8.609E+01  0.3397 0.93835
  2.500E+02 3.396E+02 1.826E+00 5.606E-05 8.924E-08 0.000E+00 5.615E-05 1.827E+00 1.133E+02  0.4700 0.95485
  3.000E+02 3.917E+02 1.821E+00 6.874E-05 9.124E-07 0.000E+00 6.966E-05 1.821E+00 1.407E+02  0.5912 0.96548
  3.500E+02 4.432E+02 1.823E+00 8.213E-05 2.547E-06 0.000E+00 8.468E-05 1.823E+00 1.682E+02  0.7044 0.97274
  4.000E+02 4.945E+02 1.830E+00 9.617E-05 4.959E-06 0.000E+00 1.011E-04 1.830E+00 1.955E+02  0.8106 0.97793
  4.500E+02 5.455E+02 1.838E+00 1.108E-04 8.123E-06 0.000E+00 1.189E-04 1.838E+00 2.228E+02  0.9106 0.98176
  5.000E+02 5.964E+02 1.847E+00 1.260E-04 1.201E-05 0.000E+00 1.380E-04 1.848E+00 2.499E+02  1.0051 0.98467
  5.500E+02 6.471E+02 1.857E+00 1.417E-04 1.660E-05 0.000E+00 1.583E-04 1.857E+00 2.769E+02  1.0947 0.98693
  6.000E+02 6.977E+02 1.867E+00 1.579E-04 2.186E-05 0.000E+00 1.797E-04 1.868E+00 3.038E+02  1.1799 0.98873
  7.000E+02 7.987E+02 1.887E+00 1.916E-04 3.431E-05 0.000E+00 2.259E-04 1.887E+00 3.570E+02  1.3387 0.99136
  8.000E+02 8.995E+02 1.906E+00 2.270E-04 4.920E-05 0.000E+00 2.762E-04 1.906E+00 4.098E+02  1.4844 0.99317
  9.000E+02 1.000E+03 1.923E+00 2.638E-04 6.638E-05 0.000E+00 3.302E-04 1.924E+00 4.620E+02  1.6190 0.99447
  1.000E+03 1.101E+03 1.939E+00 3.019E-04 8.569E-05 0.000E+00 3.876E-04 1.940E+00 5.138E+02  1.7443 0.99542
  1.200E+03 1.301E+03 1.969E+00 3.819E-04 1.303E-04 2.255E-05 5.347E-04 1.969E+00 6.161E+02  1.9714 0.99672
  1.400E+03 1.502E+03 1.994E+00 4.661E-04 1.821E-04 6.172E-05 7.099E-04 1.995E+00 7.170E+02  2.1734 0.99753
  1.700E+03 1.803E+03 2.027E+00 5.994E-04 2.719E-04 1.323E-04 1.004E-03 2.028E+00 8.662E+02  2.4403 0.99829
  2.000E+03 2.103E+03 2.054E+00 7.400E-04 3.745E-04 2.156E-04 1.330E-03 2.055E+00 1.013E+03  2.6739 0.99874
  2.500E+03 2.604E+03 2.091E+00 9.878E-04 5.702E-04 3.768E-04 1.935E-03 2.093E+00 1.254E+03  3.0088 0.99918
  3.000E+03 3.104E+03 2.122E+00 1.250E-03 7.924E-04 5.464E-04 2.589E-03 2.124E+00 1.491E+03  3.2939 0.99942
  3.500E+03 3.604E+03 2.147E+00 1.525E-03 1.037E-03 7.264E-04 3.288E-03 2.151E+00 1.725E+03  3.5424 0.99957
  4.000E+03 4.104E+03 2.169E+00 1.810E-03 1.317E-03 9.190E-04 4.045E-03 2.173E+00 1.957E+03  3.7628 0.99967
  4.500E+03 4.604E+03 2.188E+00 2.104E-03 1.620E-03 1.119E-03 4.844E-03 2.193E+00 2.186E+03  3.9609 0.99974
  5.000E+03 5.105E+03 2.205E+00 2.407E-03 1.942E-03 1.312E-03 5.661E-03 2.210E+00 2.413E+03  4.1410 0.99979
  5.500E+03 5.605E+03 2.219E+00 2.718E-03 2.279E-03 1.520E-03 6.518E-03 2.226E+00 2.638E+03  4.3061 0.99982
  6.000E+03 6.105E+03 2.233E+00 3.036E-03 2.632E-03 1.714E-03 7.382E-03 2.240E+00 2.862E+03  4.4585 0.99985
  7.000E+03 7.105E+03 2.256E+00 3.691E-03 3.378E-03 2.126E-03 9.194E-03 2.266E+00 3.306E+03  4.7324 0.99989
  8.000E+03 8.105E+03 2.276E+00 4.368E-03 4.171E-03 2.535E-03 1.107E-02 2.287E+00 3.745E+03  4.9734 0.99992
  9.000E+03 9.105E+03 2.294E+00 5.064E-03 5.007E-03 2.920E-03 1.299E-02 2.306E+00 4.181E+03  5.1885 0.99993
  1.000E+04 1.011E+04 2.309E+00 5.779E-03 5.880E-03 3.319E-03 1.498E-02 2.324E+00 4.613E+03  5.3830 0.99995
  1.200E+04 1.211E+04 2.334E+00 7.254E-03 7.724E-03 4.127E-03 1.910E-02 2.353E+00 5.468E+03  5.7234 0.99996
  1.400E+04 1.411E+04 2.355E+00 8.782E-03 9.681E-03 4.938E-03 2.340E-02 2.379E+00 6.313E+03  6.0148 0.99997
  1.700E+04 1.711E+04 2.381E+00 1.116E-02 1.279E-02 6.142E-03 3.009E-02 2.412E+00 7.566E+03  6.3859 0.99998
  2.000E+04 2.011E+04 2.403E+00 1.362E-02 1.608E-02 7.325E-03 3.702E-02 2.440E+00 8.803E+03  6.6997 0.99999
  2.500E+04 2.511E+04 2.431E+00 1.788E-02 2.187E-02 9.271E-03 4.902E-02 2.480E+00 1.084E+04  7.1343 0.99999
  3.000E+04 3.011E+04 2.453E+00 2.229E-02 2.799E-02 1.119E-02 6.147E-02 2.514E+00 1.284E+04  7.4922 0.99999
  3.500E+04 3.511E+04 2.471E+00 2.684E-02 3.436E-02 1.312E-02 7.432E-02 2.546E+00 1.481E+04  7.7964 1.00000
  4.000E+04 4.011E+04 2.487E+00 3.150E-02 4.095E-02 1.504E-02 8.749E-02 2.575E+00 1.677E+04  8.0608 1.00000
  4.500E+04 4.511E+04 2.501E+00 3.625E-02 4.772E-02 1.693E-02 1.009E-01 2.602E+00 1.870E+04  8.2946 1.00000
  5.000E+04 5.011E+04 2.513E+00 4.109E-02 5.466E-02 1.883E-02 1.146E-01 2.627E+00 2.061E+04  8.5042 1.00000
  5.500E+04 5.511E+04 2.524E+00 4.601E-02 6.173E-02 2.074E-02 1.285E-01 2.652E+00 2.251E+04  8.6940 1.00000
  6.000E+04 6.011E+04 2.533E+00 5.099E-02 6.893E-02 2.263E-02 1.425E-01 2.676E+00 2.438E+04  8.8675 1.00000
  7.000E+04 7.011E+04 2.550E+00 6.113E-02 8.365E-02 2.639E-02 1.712E-01 2.722E+00 2.809E+04  9.1750 1.00000
  8.000E+04 8.011E+04 2.565E+00 7.148E-02 9.873E-02 3.016E-02 2.004E-01 2.765E+00 3.173E+04  9.4417 1.00000
  9.000E+04 9.011E+04 2.578E+00 8.201E-02 1.141E-01 3.394E-02 2.301E-01 2.808E+00 3.532E+04  9.6770 1.00000
  1.000E+05 1.001E+05 2.589E+00 9.270E-02 1.298E-01 3.765E-02 2.601E-01 2.849E+00 3.886E+04  9.8874 1.00000
  1.200E+05 1.201E+05 2.609E+00 1.145E-01 1.618E-01 4.520E-02 3.214E-01 2.930E+00 4.578E+04 10.2517 1.00000
  1.400E+05 1.401E+05 2.625E+00 1.367E-01 1.944E-01 5.276E-02 3.839E-01 3.009E+00 5.252E+04 10.5598 1.00000
  1.700E+05 1.701E+05 2.646E+00 1.707E-01 2.445E-01 6.412E-02 4.793E-01 3.125E+00 6.230E+04 10.9478 1.00000
  2.000E+05 2.001E+05 2.663E+00 2.054E-01 2.956E-01 7.555E-02 5.765E-01 3.240E+00 7.173E+04 11.2727 1.00000
  2.500E+05 2.501E+05 2.687E+00 2.643E-01 3.823E-01 9.467E-02 7.413E-01 3.428E+00 8.674E+04 11.7188 1.00000
  3.000E+05 3.001E+05 2.706E+00 3.245E-01 4.706E-01 1.140E-01 9.090E-01 3.615E+00 1.009E+05 12.0833 1.00000
  3.500E+05 3.501E+05 2.722E+00 3.855E-01 5.600E-01 1.335E-01 1.079E+00 3.801E+00 1.144E+05 12.3915 1.00000
  4.000E+05 4.001E+05 2.736E+00 4.473E-01 6.503E-01 1.531E-01 1.251E+00 3.987E+00 1.273E+05 12.6584 1.00000
  4.500E+05 4.501E+05 2.749E+00 5.097E-01 7.414E-01 1.728E-01 1.424E+00 4.173E+00 1.395E+05 12.8940 1.00000
  5.000E+05 5.001E+05 2.760E+00 5.726E-01 8.332E-01 1.927E-01 1.599E+00 4.358E+00 1.513E+05 13.1046 1.00000
  5.500E+05 5.501E+05 2.770E+00 6.361E-01 9.254E-01 2.125E-01 1.774E+00 4.544E+00 1.625E+05 13.2952 1.00000
  6.000E+05 6.001E+05 2.779E+00 6.999E-01 1.018E+00 2.324E-01 1.950E+00 4.730E+00 1.733E+05 13.4692 1.00000
  7.000E+05 7.001E+05 2.796E+00 8.287E-01 1.205E+00 2.725E-01 2.306E+00 5.101E+00 1.937E+05 13.7775 1.00000
  8.000E+05 8.001E+05 2.810E+00 9.586E-01 1.392E+00 3.130E-01 2.664E+00 5.474E+00 2.126E+05 14.0445 1.00000
  9.000E+05 9.001E+05 2.823E+00 1.090E+00 1.581E+00 3.540E-01 3.025E+00 5.847E+00 2.303E+05 14.2800 1.00000
  1.000E+06 1.000E+06 2.834E+00 1.221E+00 1.771E+00 3.953E-01 3.387E+00 6.221E+00 2.469E+05 14.4907 1.00000
  1.200E+06 1.200E+06 2.854E+00 1.487E+00 2.151E+00 4.790E-01 4.117E+00 6.971E+00 2.773E+05 14.8553 1.00000
  1.400E+06 1.400E+06 2.871E+00 1.755E+00 2.534E+00 5.639E-01 4.853E+00 7.724E+00 3.046E+05 15.1636 1.00000
  1.700E+06 1.700E+06 2.892E+00 2.160E+00 3.112E+00 6.932E-01 5.965E+00 8.856E+00 3.410E+05 15.5519 1.00000
  2.000E+06 2.000E+06 2.910E+00 2.568E+00 3.691E+00 8.246E-01 7.084E+00 9.993E+00 3.729E+05 15.8769 1.00000
  2.500E+06 2.500E+06 2.934E+00 3.253E+00 4.661E+00 1.048E+00 8.962E+00 1.190E+01 4.189E+05 16.3232 1.00000
  3.000E+06 3.000E+06 2.955E+00 3.943E+00 5.635E+00 1.275E+00 1.085E+01 1.381E+01 4.580E+05 16.6878 1.00000
  3.500E+06 3.500E+06 2.972E+00 4.637E+00 6.611E+00 1.506E+00 1.275E+01 1.573E+01 4.921E+05 16.9961 1.00000
  4.000E+06 4.000E+06 2.987E+00 5.333E+00 7.589E+00 1.741E+00 1.466E+01 1.765E+01 5.221E+05 17.2631 1.00000
  4.500E+06 4.500E+06 3.001E+00 6.031E+00 8.569E+00 1.978E+00 1.658E+01 1.958E+01 5.490E+05 17.4987 1.00000
  5.000E+06 5.000E+06 3.013E+00 6.732E+00 9.550E+00 2.218E+00 1.850E+01 2.151E+01 5.734E+05 17.7094 1.00000
  5.500E+06 5.500E+06 3.024E+00 7.434E+00 1.053E+01 2.460E+00 2.043E+01 2.345E+01 5.957E+05 17.9000 1.00000
  6.000E+06 6.000E+06 3.034E+00 8.137E+00 1.151E+01 2.705E+00 2.236E+01 2.539E+01 6.162E+05 18.0741 1.00000
  7.000E+06 7.000E+06 3.052E+00 9.547E+00 1.348E+01 3.201E+00 2.623E+01 2.928E+01 6.530E+05 18.3823 1.00000
  8.000E+06 8.000E+06 3.067E+00 1.096E+01 1.545E+01 3.704E+00 3.012E+01 3.318E+01 6.851E+05 18.6494 1.00000
  9.000E+06 9.000E+06 3.081E+00 1.238E+01 1.742E+01 4.213E+00 3.401E+01 3.709E+01 7.137E+05 18.8850 1.00000
  1.000E+07 1.000E+07 3.094E+00 1.380E+01 1.940E+01 4.729E+00 3.792E+01 4.101E+01 7.394E+05 19.0957 1.00000
  1.200E+07 1.200E+07 3.115E+00 1.664E+01 2.334E+01 5.776E+00 4.576E+01 4.888E+01 7.842E+05 19.4603 1.00000
  1.400E+07 1.400E+07 3.134E+00 1.949E+01 2.730E+01 6.842E+00 5.363E+01 5.676E+01 8.223E+05 19.7686 1.00000
  1.700E+07 1.700E+07 3.157E+00 2.377E+01 3.323E+01 8.471E+00 6.547E+01 6.863E+01 8.706E+05 20.1569 1.00000
  2.000E+07 2.000E+07 3.177E+00 2.806E+01 3.916E+01 1.013E+01 7.736E+01 8.053E+01 9.110E+05 20.4820 1.00000
  2.500E+07 2.500E+07 3.204E+00 3.522E+01 4.906E+01 1.296E+01 9.724E+01 1.004E+02 9.670E+05 20.9283 1.00000
  3.000E+07 3.000E+07 3.227E+00 4.239E+01 5.896E+01 1.585E+01 1.172E+02 1.204E+02 1.013E+06 21.2929 1.00000
  3.500E+07 3.500E+07 3.246E+00 4.957E+01 6.887E+01 1.879E+01 1.372E+02 1.405E+02 1.051E+06 21.6012 1.00000
  4.000E+07 4.000E+07 3.263E+00 5.675E+01 7.878E+01 2.178E+01 1.573E+02 1.606E+02 1.085E+06 21.8683 1.00000
  4.500E+07 4.500E+07 3.278E+00 6.394E+01 8.869E+01 2.481E+01 1.774E+02 1.807E+02 1.114E+06 22.1038 1.00000
  5.000E+07 5.000E+07 3.291E+00 7.113E+01 9.860E+01 2.788E+01 1.976E+02 2.009E+02 1.140E+06 22.3145 1.00000
  5.500E+07 5.500E+07 3.303E+00 7.833E+01 1.085E+02 3.098E+01 2.178E+02 2.211E+02 1.164E+06 22.5052 1.00000
  6.000E+07 6.000E+07 3.314E+00 8.552E+01 1.184E+02 3.412E+01 2.381E+02 2.414E+02 1.186E+06 22.6792 1.00000
  7.000E+07 7.000E+07 3.334E+00 9.992E+01 1.383E+02 4.047E+01 2.787E+02 2.820E+02 1.224E+06 22.9875 1.00000
  8.000E+07 8.000E+07 3.352E+00 1.143E+02 1.581E+02 4.693E+01 3.193E+02 3.227E+02 1.257E+06 23.2546 1.00000
  9.000E+07 9.000E+07 3.367E+00 1.287E+02 1.779E+02 5.348E+01 3.601E+02 3.635E+02 1.287E+06 23.4901 1.00000
  1.000E+08 1.000E+08 3.381E+00 1.431E+02 1.978E+02 6.011E+01 4.010E+02 4.044E+02 1.313E+06 23.7008 1.00000
  1.200E+08 1.200E+08 3.405E+00 1.720E+02 2.374E+02 7.360E+01 4.830E+02 4.864E+02 1.358E+06 24.0655 1.00000
  1.400E+08 1.400E+08 3.426E+00 2.008E+02 2.771E+02 8.734E+01 5.653E+02 5.687E+02 1.396E+06 24.3738 1.00000
  1.700E+08 1.700E+08 3.452E+00 2.441E+02 3.366E+02 1.084E+02 6.891E+02 6.926E+02 1.444E+06 24.7621 1.00000
  2.000E+08 2.000E+08 3.474E+00 2.874E+02 3.962E+02 1.298E+02 8.134E+02 8.169E+02 1.484E+06 25.0871 1.00000
  2.500E+08 2.500E+08 3.504E+00 3.595E+02 4.954E+02 1.664E+02 1.021E+03 1.025E+03 1.539E+06 25.5334 1.00000
  3.000E+08 3.000E+08 3.529E+00 4.317E+02 5.946E+02 2.039E+02 1.230E+03 1.234E+03 1.584E+06 25.8981 1.00000
  3.500E+08 3.500E+08 3.551E+00 5.039E+02 6.938E+02 2.420E+02 1.440E+03 1.443E+03 1.621E+06 26.2064 1.00000
  4.000E+08 4.000E+08 3.570E+00 5.761E+02 7.930E+02 2.808E+02 1.650E+03 1.654E+03 1.654E+06 26.4734 1.00000
  4.500E+08 4.500E+08 3.586E+00 6.483E+02 8.923E+02 3.202E+02 1.861E+03 1.864E+03 1.682E+06 26.7090 1.00000
  5.000E+08 5.000E+08 3.601E+00 7.205E+02 9.915E+02 3.601E+02 2.072E+03 2.076E+03 1.708E+06 26.9197 1.00000
  5.500E+08 5.500E+08 3.615E+00 7.927E+02 1.091E+03 4.005E+02 2.284E+03 2.287E+03 1.731E+06 27.1103 1.00000
  6.000E+08 6.000E+08 3.627E+00 8.649E+02 1.190E+03 4.413E+02 2.496E+03 2.500E+03 1.752E+06 27.2844 1.00000
  7.000E+08 7.000E+08 3.650E+00 1.009E+03 1.388E+03 5.241E+02 2.922E+03 2.925E+03 1.789E+06 27.5927 1.00000
  8.000E+08 8.000E+08 3.669E+00 1.154E+03 1.587E+03 6.083E+02 3.349E+03 3.352E+03 1.821E+06 27.8597 1.00000
  9.000E+08 9.000E+08 3.686E+00 1.298E+03 1.785E+03 6.937E+02 3.777E+03 3.781E+03 1.849E+06 28.0953 1.00000
  1.000E+09 1.000E+09 3.702E+00 1.443E+03 1.984E+03 7.803E+02 4.206E+03 4.210E+03 1.874E+06 28.3060 1.00000
