 Incident particle is a Muon with M = 105.65839 MeV
 Index = 0: Copper
      Absorber with <Z/A> = 0.45636
 Sternheimer coef:  a     k=m_s   x_0    x_1    I[eV]   Cbar  delta0
                 0.1434  2.9044  0.0254  3.2792  322.0  4.4190 0.08

 *** Table generated with PUMAS v1.00 ***

      T         p     Ionization  brems     pair     photonuc  Radloss    dE/dx   CSDA Range  delta   beta
    [MeV]    [MeV/c]  -----------------------[MeV cm^2/g]------------------------  [g/cm^2]
  1.000E+00 1.457E+01 3.061E+01 2.484E-06 0.000E+00 0.000E+00 2.484E-06 3.061E+01 1.634E-02  0.0014 0.13661
  1.200E+00 1.597E+01 2.670E+01 2.856E-06 0.000E+00 0.000E+00 2.856E-06 2.670E+01 2.335E-02  0.0016 0.14944
  1.400E+00 1.726E+01 2.377E+01 3.209E-06 0.000E+00 0.000E+00 3.209E-06 2.377E+01 3.130E-02  0.0019 0.16119
  1.700E+00 1.903E+01 2.050E+01 3.710E-06 0.000E+00 0.000E+00 3.710E-06 2.050E+01 4.493E-02  0.0023 0.17725
  2.000E+00 2.066E+01 1.810E+01 4.183E-06 0.000E+00 0.000E+00 4.183E-06 1.810E+01 6.053E-02  0.0027 0.19186
  2.500E+00 2.312E+01 1.525E+01 4.919E-06 0.000E+00 0.000E+00 4.919E-06 1.525E+01 9.073E-02  0.0034 0.21376
  3.000E+00 2.536E+01 1.325E+01 5.602E-06 0.000E+00 0.000E+00 5.602E-06 1.325E+01 1.260E-01  0.0041 0.23336
  3.500E+00 2.742E+01 1.176E+01 6.244E-06 0.000E+00 0.000E+00 6.244E-06 1.176E+01 1.661E-01  0.0048 0.25120
  4.000E+00 2.935E+01 1.061E+01 6.849E-06 0.000E+00 0.000E+00 6.849E-06 1.061E+01 2.110E-01  0.0055 0.26763
  4.500E+00 3.116E+01 9.688E+00 7.424E-06 0.000E+00 0.000E+00 7.424E-06 9.688E+00 2.603E-01  0.0062 0.28290
  5.000E+00 3.289E+01 8.935E+00 7.973E-06 0.000E+00 0.000E+00 7.973E-06 8.935E+00 3.141E-01  0.0069 0.29720
  5.500E+00 3.453E+01 8.307E+00 8.499E-06 0.000E+00 0.000E+00 8.499E-06 8.307E+00 3.722E-01  0.0076 0.31066
  6.000E+00 3.611E+01 7.774E+00 9.004E-06 0.000E+00 0.000E+00 9.004E-06 7.774E+00 4.345E-01  0.0083 0.32339
  7.000E+00 3.909E+01 6.918E+00 9.961E-06 0.000E+00 0.000E+00 9.961E-06 6.918E+00 5.711E-01  0.0097 0.34700
  8.000E+00 4.189E+01 6.259E+00 1.086E-05 0.000E+00 0.000E+00 1.086E-05 6.259E+00 7.232E-01  0.0112 0.36854
  9.000E+00 4.453E+01 5.735E+00 1.170E-05 0.000E+00 0.000E+00 1.170E-05 5.735E+00 8.903E-01  0.0126 0.38836
  1.000E+01 4.704E+01 5.308E+00 1.251E-05 0.000E+00 0.000E+00 1.251E-05 5.308E+00 1.072E+00  0.0141 0.40675
  1.200E+01 5.177E+01 4.654E+00 1.401E-05 0.000E+00 0.000E+00 1.401E-05 4.654E+00 1.475E+00  0.0171 0.43998
  1.400E+01 5.616E+01 4.175E+00 1.541E-05 0.000E+00 0.000E+00 1.541E-05 4.175E+00 1.929E+00  0.0201 0.46937
  1.700E+01 6.230E+01 3.656E+00 1.734E-05 0.000E+00 0.000E+00 1.734E-05 3.656E+00 2.699E+00  0.0247 0.50792
  2.000E+01 6.802E+01 3.285E+00 1.914E-05 0.000E+00 0.000E+00 1.914E-05 3.285E+00 3.566E+00  0.0295 0.54129
  2.500E+01 7.686E+01 2.857E+00 2.192E-05 0.000E+00 0.000E+00 2.192E-05 2.857E+00 5.202E+00  0.0377 0.58827
  3.000E+01 8.509E+01 2.567E+00 2.452E-05 0.000E+00 0.000E+00 2.452E-05 2.567E+00 7.051E+00  0.0462 0.62720
  3.500E+01 9.285E+01 2.359E+00 2.701E-05 0.000E+00 0.000E+00 2.701E-05 2.359E+00 9.084E+00  0.0550 0.66011
  4.000E+01 1.003E+02 2.202E+00 2.943E-05 0.000E+00 0.000E+00 2.943E-05 2.202E+00 1.128E+01  0.0641 0.68834
  4.500E+01 1.074E+02 2.080E+00 3.180E-05 0.000E+00 0.000E+00 3.180E-05 2.080E+00 1.362E+01  0.0735 0.71286
  5.000E+01 1.143E+02 1.979E+00 3.414E-05 0.000E+00 0.000E+00 3.414E-05 1.979E+00 1.608E+01  0.1169 0.73434
  5.500E+01 1.210E+02 1.900E+00 3.648E-05 0.000E+00 0.000E+00 3.648E-05 1.900E+00 1.866E+01  0.1347 0.75332
  6.000E+01 1.276E+02 1.834E+00 3.880E-05 0.000E+00 0.000E+00 3.880E-05 1.834E+00 2.134E+01  0.1523 0.77019
  7.000E+01 1.403E+02 1.733E+00 4.347E-05 0.000E+00 0.000E+00 4.347E-05 1.733E+00 2.695E+01  0.1871 0.79887
  8.000E+01 1.527E+02 1.659E+00 4.819E-05 0.000E+00 0.000E+00 4.819E-05 1.659E+00 3.285E+01  0.2211 0.82227
  9.000E+01 1.647E+02 1.604E+00 5.298E-05 0.000E+00 0.000E+00 5.298E-05 1.604E+00 3.898E+01  0.2542 0.84166
  1.000E+02 1.764E+02 1.561E+00 5.785E-05 0.000E+00 0.000E+00 5.785E-05 1.561E+00 4.530E+01  0.2865 0.85794
  1.200E+02 1.994E+02 1.502E+00 6.787E-05 0.000E+00 0.000E+00 6.787E-05 1.502E+00 5.836E+01  0.3484 0.88361
  1.400E+02 2.218E+02 1.465E+00 7.827E-05 0.000E+00 0.000E+00 7.827E-05 1.465E+00 7.185E+01  0.4072 0.90278
  1.700E+02 2.546E+02 1.431E+00 9.462E-05 0.000E+00 0.000E+00 9.462E-05 1.432E+00 9.256E+01  0.4902 0.92363
  2.000E+02 2.868E+02 1.414E+00 1.118E-04 0.000E+00 0.000E+00 1.118E-04 1.414E+00 1.136E+02  0.5678 0.93835
  2.500E+02 3.396E+02 1.404E+00 1.423E-04 0.000E+00 0.000E+00 1.423E-04 1.404E+00 1.491E+02  0.6873 0.95485
  3.000E+02 3.917E+02 1.404E+00 1.748E-04 7.246E-10 0.000E+00 1.748E-04 1.404E+00 1.847E+02  0.7965 0.96548
  3.500E+02 4.432E+02 1.410E+00 2.092E-04 6.871E-06 0.000E+00 2.161E-04 1.411E+00 2.203E+02  0.8973 0.97274
  4.000E+02 4.945E+02 1.419E+00 2.454E-04 1.380E-05 0.000E+00 2.592E-04 1.419E+00 2.556E+02  0.9911 0.97793
  4.500E+02 5.455E+02 1.429E+00 2.832E-04 2.284E-05 0.000E+00 3.060E-04 1.429E+00 2.907E+02  1.0789 0.98176
  5.000E+02 5.964E+02 1.439E+00 3.224E-04 3.398E-05 0.000E+00 3.564E-04 1.440E+00 3.256E+02  1.1615 0.98467
  5.500E+02 6.471E+02 1.450E+00 3.631E-04 4.715E-05 0.000E+00 4.102E-04 1.450E+00 3.602E+02  1.2396 0.98693
  6.000E+02 6.977E+02 1.460E+00 4.050E-04 6.228E-05 0.000E+00 4.673E-04 1.461E+00 3.945E+02  1.3136 0.98873
  7.000E+02 7.987E+02 1.480E+00 4.925E-04 9.816E-05 0.000E+00 5.907E-04 1.481E+00 4.625E+02  1.4513 0.99136
  8.000E+02 8.995E+02 1.499E+00 5.844E-04 1.411E-04 0.000E+00 7.256E-04 1.499E+00 5.297E+02  1.5774 0.99317
  9.000E+02 1.000E+03 1.516E+00 6.803E-04 1.907E-04 0.000E+00 8.710E-04 1.517E+00 5.960E+02  1.6937 0.99447
  1.000E+03 1.101E+03 1.532E+00 7.798E-04 2.465E-04 0.000E+00 1.026E-03 1.533E+00 6.615E+02  1.8019 0.99542
  1.200E+03 1.301E+03 1.560E+00 9.885E-04 3.754E-04 2.249E-05 1.386E-03 1.562E+00 7.908E+02  1.9980 0.99672
  1.400E+03 1.502E+03 1.585E+00 1.209E-03 5.252E-04 6.122E-05 1.795E-03 1.587E+00 9.178E+02  2.1725 0.99753
  1.700E+03 1.803E+03 1.617E+00 1.558E-03 7.849E-04 1.303E-04 2.473E-03 1.619E+00 1.105E+03  2.4034 0.99829
  2.000E+03 2.103E+03 1.643E+00 1.926E-03 1.082E-03 2.110E-04 3.219E-03 1.647E+00 1.289E+03  2.6060 0.99874
  2.500E+03 2.604E+03 1.680E+00 2.577E-03 1.648E-03 3.659E-04 4.590E-03 1.684E+00 1.589E+03  2.8974 0.99918
  3.000E+03 3.104E+03 1.709E+00 3.265E-03 2.291E-03 5.273E-04 6.083E-03 1.716E+00 1.883E+03  3.1464 0.99942
  3.500E+03 3.604E+03 1.734E+00 3.986E-03 2.999E-03 6.972E-04 7.683E-03 1.742E+00 2.172E+03  3.3643 0.99957
  4.000E+03 4.104E+03 1.755E+00 4.736E-03 3.778E-03 8.780E-04 9.391E-03 1.765E+00 2.458E+03  3.5583 0.99967
  4.500E+03 4.604E+03 1.774E+00 5.510E-03 4.613E-03 1.065E-03 1.119E-02 1.785E+00 2.739E+03  3.7334 0.99974
  5.000E+03 5.105E+03 1.790E+00 6.306E-03 5.496E-03 1.245E-03 1.305E-02 1.803E+00 3.018E+03  3.8930 0.99979
  5.500E+03 5.605E+03 1.804E+00 7.123E-03 6.422E-03 1.438E-03 1.498E-02 1.819E+00 3.294E+03  4.0398 0.99982
  6.000E+03 6.105E+03 1.817E+00 7.957E-03 7.387E-03 1.617E-03 1.696E-02 1.834E+00 3.568E+03  4.1757 0.99985
  7.000E+03 7.105E+03 1.840E+00 9.676E-03 9.424E-03 1.997E-03 2.110E-02 1.861E+00 4.109E+03  4.4209 0.99989
  8.000E+03 8.105E+03 1.860E+00 1.145E-02 1.159E-02 2.373E-03 2.541E-02 1.885E+00 4.643E+03  4.6376 0.99992
  9.000E+03 9.105E+03 1.876E+00 1.328E-02 1.386E-02 2.726E-03 2.986E-02 1.906E+00 5.171E+03  4.8320 0.99993
  1.000E+04 1.011E+04 1.891E+00 1.515E-02 1.623E-02 3.090E-03 3.447E-02 1.925E+00 5.692E+03  5.0084 0.99995
  1.200E+04 1.211E+04 1.916E+00 1.902E-02 2.122E-02 3.825E-03 4.406E-02 1.960E+00 6.722E+03  5.3189 0.99996
  1.400E+04 1.411E+04 1.936E+00 2.302E-02 2.650E-02 4.560E-03 5.408E-02 1.990E+00 7.735E+03  5.5864 0.99997
  1.700E+04 1.711E+04 1.961E+00 2.923E-02 3.487E-02 5.647E-03 6.975E-02 2.031E+00 9.227E+03  5.9294 0.99998
  2.000E+04 2.011E+04 1.981E+00 3.565E-02 4.369E-02 6.711E-03 8.605E-02 2.067E+00 1.069E+04  6.2214 0.99999
  2.500E+04 2.511E+04 2.008E+00 4.674E-02 5.919E-02 8.455E-03 1.144E-01 2.123E+00 1.308E+04  6.6290 0.99999
  3.000E+04 3.011E+04 2.029E+00 5.823E-02 7.548E-02 1.016E-02 1.439E-01 2.173E+00 1.541E+04  6.9674 0.99999
  3.500E+04 3.511E+04 2.047E+00 7.004E-02 9.241E-02 1.189E-02 1.743E-01 2.221E+00 1.768E+04  7.2569 1.00000
  4.000E+04 4.011E+04 2.061E+00 8.212E-02 1.099E-01 1.359E-02 2.056E-01 2.267E+00 1.991E+04  7.5100 1.00000
  4.500E+04 4.511E+04 2.074E+00 9.444E-02 1.278E-01 1.527E-02 2.375E-01 2.312E+00 2.210E+04  7.7349 1.00000
  5.000E+04 5.011E+04 2.085E+00 1.070E-01 1.461E-01 1.694E-02 2.700E-01 2.355E+00 2.424E+04  7.9374 1.00000
  5.500E+04 5.511E+04 2.095E+00 1.197E-01 1.647E-01 1.863E-02 3.030E-01 2.398E+00 2.634E+04  8.1215 1.00000
  6.000E+04 6.011E+04 2.104E+00 1.325E-01 1.836E-01 2.030E-02 3.365E-01 2.441E+00 2.841E+04  8.2903 1.00000
  7.000E+04 7.011E+04 2.120E+00 1.587E-01 2.222E-01 2.361E-02 4.046E-01 2.524E+00 3.244E+04  8.5909 1.00000
  8.000E+04 8.011E+04 2.133E+00 1.854E-01 2.617E-01 2.693E-02 4.740E-01 2.607E+00 3.634E+04  8.8528 1.00000
  9.000E+04 9.011E+04 2.145E+00 2.125E-01 3.019E-01 3.024E-02 5.446E-01 2.689E+00 4.011E+04  9.0848 1.00000
  1.000E+05 1.001E+05 2.155E+00 2.400E-01 3.427E-01 3.349E-02 6.161E-01 2.771E+00 4.378E+04  9.2930 1.00000
  1.200E+05 1.201E+05 2.173E+00 2.958E-01 4.258E-01 4.011E-02 7.617E-01 2.934E+00 5.079E+04  9.6547 1.00000
  1.400E+05 1.401E+05 2.187E+00 3.528E-01 5.104E-01 4.672E-02 9.099E-01 3.097E+00 5.743E+04  9.9615 1.00000
  1.700E+05 1.701E+05 2.205E+00 4.398E-01 6.398E-01 5.664E-02 1.136E+00 3.342E+00 6.676E+04 10.3490 1.00000
  2.000E+05 2.001E+05 2.221E+00 5.283E-01 7.713E-01 6.660E-02 1.366E+00 3.587E+00 7.543E+04 10.6738 1.00000
  2.500E+05 2.501E+05 2.242E+00 6.786E-01 9.940E-01 8.325E-02 1.756E+00 3.997E+00 8.866E+04 11.1199 1.00000
  3.000E+05 3.001E+05 2.259E+00 8.314E-01 1.220E+00 1.000E-01 2.151E+00 4.410E+00 1.006E+05 11.4844 1.00000
  3.500E+05 3.501E+05 2.273E+00 9.864E-01 1.448E+00 1.170E-01 2.552E+00 4.825E+00 1.114E+05 11.7926 1.00000
  4.000E+05 4.001E+05 2.285E+00 1.143E+00 1.679E+00 1.340E-01 2.956E+00 5.241E+00 1.214E+05 12.0595 1.00000
  4.500E+05 4.501E+05 2.297E+00 1.301E+00 1.911E+00 1.512E-01 3.363E+00 5.659E+00 1.306E+05 12.2951 1.00000
  5.000E+05 5.001E+05 2.306E+00 1.460E+00 2.144E+00 1.684E-01 3.773E+00 6.079E+00 1.391E+05 12.5057 1.00000
  5.500E+05 5.501E+05 2.315E+00 1.620E+00 2.378E+00 1.856E-01 4.184E+00 6.500E+00 1.471E+05 12.6963 1.00000
  6.000E+05 6.001E+05 2.324E+00 1.782E+00 2.613E+00 2.028E-01 4.598E+00 6.921E+00 1.545E+05 12.8703 1.00000
  7.000E+05 7.001E+05 2.338E+00 2.106E+00 3.086E+00 2.375E-01 5.430E+00 7.768E+00 1.682E+05 13.1786 1.00000
  8.000E+05 8.001E+05 2.351E+00 2.433E+00 3.561E+00 2.727E-01 6.267E+00 8.618E+00 1.804E+05 13.4456 1.00000
  9.000E+05 9.001E+05 2.362E+00 2.763E+00 4.038E+00 3.081E-01 7.109E+00 9.471E+00 1.915E+05 13.6811 1.00000
  1.000E+06 1.000E+06 2.372E+00 3.094E+00 4.517E+00 3.439E-01 7.954E+00 1.033E+01 2.016E+05 13.8918 1.00000
  1.200E+06 1.200E+06 2.389E+00 3.760E+00 5.478E+00 4.163E-01 9.654E+00 1.204E+01 2.196E+05 14.2564 1.00000
  1.400E+06 1.400E+06 2.404E+00 4.431E+00 6.442E+00 4.897E-01 1.136E+01 1.377E+01 2.352E+05 14.5647 1.00000
  1.700E+06 1.700E+06 2.423E+00 5.444E+00 7.895E+00 6.016E-01 1.394E+01 1.636E+01 2.552E+05 14.9530 1.00000
  2.000E+06 2.000E+06 2.439E+00 6.463E+00 9.352E+00 7.152E-01 1.653E+01 1.897E+01 2.723E+05 15.2780 1.00000
  2.500E+06 2.500E+06 2.461E+00 8.172E+00 1.179E+01 9.081E-01 2.087E+01 2.333E+01 2.962E+05 15.7243 1.00000
  3.000E+06 3.000E+06 2.479E+00 9.891E+00 1.423E+01 1.105E+00 2.523E+01 2.771E+01 3.159E+05 16.0889 1.00000
  3.500E+06 3.500E+06 2.494E+00 1.162E+01 1.668E+01 1.304E+00 2.960E+01 3.210E+01 3.328E+05 16.3972 1.00000
  4.000E+06 4.000E+06 2.508E+00 1.335E+01 1.913E+01 1.507E+00 3.399E+01 3.649E+01 3.474E+05 16.6642 1.00000
  4.500E+06 4.500E+06 2.520E+00 1.508E+01 2.159E+01 1.712E+00 3.838E+01 4.090E+01 3.604E+05 16.8998 1.00000
  5.000E+06 5.000E+06 2.530E+00 1.682E+01 2.404E+01 1.919E+00 4.278E+01 4.531E+01 3.720E+05 17.1105 1.00000
  5.500E+06 5.500E+06 2.540E+00 1.856E+01 2.650E+01 2.129E+00 4.719E+01 4.973E+01 3.825E+05 17.3011 1.00000
  6.000E+06 6.000E+06 2.549E+00 2.031E+01 2.896E+01 2.340E+00 5.161E+01 5.416E+01 3.922E+05 17.4752 1.00000
  7.000E+06 7.000E+06 2.565E+00 2.380E+01 3.389E+01 2.769E+00 6.046E+01 6.302E+01 4.093E+05 17.7834 1.00000
  8.000E+06 8.000E+06 2.579E+00 2.730E+01 3.882E+01 3.203E+00 6.932E+01 7.190E+01 4.242E+05 18.0505 1.00000
  9.000E+06 9.000E+06 2.591E+00 3.081E+01 4.375E+01 3.643E+00 7.820E+01 8.079E+01 4.374E+05 18.2861 1.00000
  1.000E+07 1.000E+07 2.602E+00 3.432E+01 4.869E+01 4.089E+00 8.709E+01 8.969E+01 4.491E+05 18.4968 1.00000
  1.200E+07 1.200E+07 2.621E+00 4.135E+01 5.856E+01 4.993E+00 1.049E+02 1.075E+02 4.696E+05 18.8614 1.00000
  1.400E+07 1.400E+07 2.637E+00 4.839E+01 6.844E+01 5.914E+00 1.227E+02 1.254E+02 4.869E+05 19.1697 1.00000
  1.700E+07 1.700E+07 2.658E+00 5.896E+01 8.328E+01 7.321E+00 1.496E+02 1.522E+02 5.087E+05 19.5580 1.00000
  2.000E+07 2.000E+07 2.676E+00 6.955E+01 9.811E+01 8.755E+00 1.764E+02 1.791E+02 5.269E+05 19.8831 1.00000
  2.500E+07 2.500E+07 2.700E+00 8.721E+01 1.229E+02 1.120E+01 2.213E+02 2.240E+02 5.520E+05 20.3294 1.00000
  3.000E+07 3.000E+07 2.720E+00 1.049E+02 1.476E+02 1.369E+01 2.662E+02 2.689E+02 5.725E+05 20.6940 1.00000
  3.500E+07 3.500E+07 2.737E+00 1.226E+02 1.724E+02 1.623E+01 3.112E+02 3.139E+02 5.897E+05 21.0023 1.00000
  4.000E+07 4.000E+07 2.752E+00 1.403E+02 1.971E+02 1.881E+01 3.562E+02 3.590E+02 6.047E+05 21.2694 1.00000
  4.500E+07 4.500E+07 2.765E+00 1.580E+02 2.219E+02 2.143E+01 4.013E+02 4.041E+02 6.178E+05 21.5049 1.00000
  5.000E+07 5.000E+07 2.777E+00 1.757E+02 2.467E+02 2.408E+01 4.465E+02 4.492E+02 6.296E+05 21.7156 1.00000
  5.500E+07 5.500E+07 2.788E+00 1.934E+02 2.714E+02 2.676E+01 4.916E+02 4.944E+02 6.402E+05 21.9063 1.00000
  6.000E+07 6.000E+07 2.798E+00 2.112E+02 2.962E+02 2.947E+01 5.368E+02 5.396E+02 6.499E+05 22.0803 1.00000
  7.000E+07 7.000E+07 2.815E+00 2.466E+02 3.457E+02 3.496E+01 6.273E+02 6.301E+02 6.671E+05 22.3886 1.00000
  8.000E+07 8.000E+07 2.831E+00 2.821E+02 3.953E+02 4.053E+01 7.179E+02 7.207E+02 6.820E+05 22.6557 1.00000
  9.000E+07 9.000E+07 2.844E+00 3.176E+02 4.448E+02 4.619E+01 8.086E+02 8.114E+02 6.951E+05 22.8912 1.00000
  1.000E+08 1.000E+08 2.856E+00 3.530E+02 4.944E+02 5.192E+01 8.994E+02 9.022E+02 7.068E+05 23.1019 1.00000
  1.200E+08 1.200E+08 2.878E+00 4.240E+02 5.935E+02 6.356E+01 1.081E+03 1.084E+03 7.271E+05 23.4666 1.00000
  1.400E+08 1.400E+08 2.896E+00 4.950E+02 6.926E+02 7.543E+01 1.263E+03 1.266E+03 7.442E+05 23.7749 1.00000
  1.700E+08 1.700E+08 2.919E+00 6.015E+02 8.413E+02 9.359E+01 1.536E+03 1.539E+03 7.658E+05 24.1632 1.00000
  2.000E+08 2.000E+08 2.939E+00 7.080E+02 9.900E+02 1.121E+02 1.810E+03 1.813E+03 7.838E+05 24.4882 1.00000
  2.500E+08 2.500E+08 2.966E+00 8.855E+02 1.238E+03 1.437E+02 2.267E+03 2.270E+03 8.086E+05 24.9345 1.00000
  3.000E+08 3.000E+08 2.988E+00 1.063E+03 1.486E+03 1.760E+02 2.725E+03 2.728E+03 8.288E+05 25.2992 1.00000
  3.500E+08 3.500E+08 3.007E+00 1.241E+03 1.734E+03 2.090E+02 3.183E+03 3.186E+03 8.458E+05 25.6075 1.00000
  4.000E+08 4.000E+08 3.024E+00 1.418E+03 1.981E+03 2.425E+02 3.642E+03 3.645E+03 8.605E+05 25.8745 1.00000
  4.500E+08 4.500E+08 3.038E+00 1.596E+03 2.229E+03 2.765E+02 4.102E+03 4.105E+03 8.735E+05 26.1101 1.00000
  5.000E+08 5.000E+08 3.052E+00 1.773E+03 2.477E+03 3.110E+02 4.561E+03 4.564E+03 8.850E+05 26.3208 1.00000
  5.500E+08 5.500E+08 3.064E+00 1.951E+03 2.725E+03 3.459E+02 5.022E+03 5.025E+03 8.955E+05 26.5114 1.00000
  6.000E+08 6.000E+08 3.075E+00 2.129E+03 2.973E+03 3.811E+02 5.482E+03 5.485E+03 9.050E+05 26.6855 1.00000
  7.000E+08 7.000E+08 3.094E+00 2.484E+03 3.468E+03 4.526E+02 6.405E+03 6.408E+03 9.219E+05 26.9938 1.00000
  8.000E+08 8.000E+08 3.111E+00 2.839E+03 3.964E+03 5.253E+02 7.328E+03 7.331E+03 9.365E+05 27.2608 1.00000
  9.000E+08 9.000E+08 3.127E+00 3.194E+03 4.460E+03 5.991E+02 8.253E+03 8.256E+03 9.494E+05 27.4964 1.00000
  1.000E+09 1.000E+09 3.140E+00 3.549E+03 4.955E+03 6.739E+02 9.178E+03 9.182E+03 9.609E+05 27.7071 1.00000
