 Incident particle is a Muon with M = 105.65839 MeV
 Index = 0: CorticalBone
      Absorber with <Z/A> = 0.52127
 Sternheimer coef:  a     k=m_s   x_0    x_1    I[eV]   Cbar  delta0
                 0.0620  3.5919  0.1161  3.0919  106.4  3.6488 0.00

 *** Table generated with PUMAS v1.00 ***

      T         p     Ionization  brems     pair     photonuc  Radloss    dE/dx   CSDA Range  delta   beta
    [MeV]    [MeV/c]  -----------------------[MeV cm^2/g]------------------------  [g/cm^2]
  1.000E+00 1.457E+01 4.446E+01 1.088E-06 0.000E+00 0.000E+00 1.088E-06 4.446E+01 1.125E-02  0.0000 0.13661
  1.200E+00 1.597E+01 3.844E+01 1.249E-06 0.000E+00 0.000E+00 1.249E-06 3.844E+01 1.610E-02  0.0000 0.14944
  1.400E+00 1.726E+01 3.398E+01 1.402E-06 0.000E+00 0.000E+00 1.402E-06 3.398E+01 2.164E-02  0.0000 0.16119
  1.700E+00 1.903E+01 2.907E+01 1.620E-06 0.000E+00 0.000E+00 1.620E-06 2.907E+01 3.122E-02  0.0000 0.17725
  2.000E+00 2.066E+01 2.550E+01 1.827E-06 0.000E+00 0.000E+00 1.827E-06 2.550E+01 4.226E-02  0.0000 0.19186
  2.500E+00 2.312E+01 2.130E+01 2.150E-06 0.000E+00 0.000E+00 2.150E-06 2.130E+01 6.380E-02  0.0000 0.21376
  3.000E+00 2.536E+01 1.839E+01 2.452E-06 0.000E+00 0.000E+00 2.452E-06 1.839E+01 8.913E-02  0.0000 0.23336
  3.500E+00 2.742E+01 1.625E+01 2.736E-06 0.000E+00 0.000E+00 2.736E-06 1.625E+01 1.181E-01  0.0000 0.25120
  4.000E+00 2.935E+01 1.460E+01 3.006E-06 0.000E+00 0.000E+00 3.006E-06 1.460E+01 1.506E-01  0.0000 0.26763
  4.500E+00 3.116E+01 1.329E+01 3.263E-06 0.000E+00 0.000E+00 3.263E-06 1.329E+01 1.866E-01  0.0000 0.28290
  5.000E+00 3.289E+01 1.222E+01 3.509E-06 0.000E+00 0.000E+00 3.509E-06 1.222E+01 2.258E-01  0.0000 0.29720
  5.500E+00 3.453E+01 1.133E+01 3.745E-06 0.000E+00 0.000E+00 3.745E-06 1.133E+01 2.684E-01  0.0000 0.31066
  6.000E+00 3.611E+01 1.058E+01 3.973E-06 0.000E+00 0.000E+00 3.973E-06 1.058E+01 3.141E-01  0.0000 0.32339
  7.000E+00 3.909E+01 9.380E+00 4.405E-06 0.000E+00 0.000E+00 4.405E-06 9.380E+00 4.146E-01  0.0000 0.34700
  8.000E+00 4.189E+01 8.460E+00 4.812E-06 0.000E+00 0.000E+00 4.812E-06 8.460E+00 5.270E-01  0.0000 0.36854
  9.000E+00 4.453E+01 7.732E+00 5.198E-06 0.000E+00 0.000E+00 5.198E-06 7.732E+00 6.508E-01  0.0000 0.38836
  1.000E+01 4.704E+01 7.141E+00 5.565E-06 0.000E+00 0.000E+00 5.565E-06 7.141E+00 7.855E-01  0.0000 0.40675
  1.200E+01 5.177E+01 6.238E+00 6.255E-06 0.000E+00 0.000E+00 6.255E-06 6.238E+00 1.086E+00  0.0000 0.43998
  1.400E+01 5.616E+01 5.580E+00 6.897E-06 0.000E+00 0.000E+00 6.897E-06 5.580E+00 1.425E+00  0.0000 0.46937
  1.700E+01 6.230E+01 4.871E+00 7.790E-06 0.000E+00 0.000E+00 7.790E-06 4.871E+00 2.002E+00  0.0000 0.50792
  2.000E+01 6.802E+01 4.365E+00 8.622E-06 0.000E+00 0.000E+00 8.622E-06 4.365E+00 2.654E+00  0.0000 0.54129
  2.500E+01 7.686E+01 3.784E+00 9.913E-06 0.000E+00 0.000E+00 9.913E-06 3.784E+00 3.887E+00  0.0000 0.58827
  3.000E+01 8.509E+01 3.393E+00 1.112E-05 0.000E+00 0.000E+00 1.112E-05 3.393E+00 5.284E+00  0.0000 0.62720
  3.500E+01 9.285E+01 3.111E+00 1.228E-05 0.000E+00 0.000E+00 1.228E-05 3.111E+00 6.825E+00  0.0000 0.66011
  4.000E+01 1.003E+02 2.900E+00 1.340E-05 0.000E+00 0.000E+00 1.340E-05 2.900E+00 8.490E+00  0.0000 0.68834
  4.500E+01 1.074E+02 2.737E+00 1.450E-05 0.000E+00 0.000E+00 1.450E-05 2.737E+00 1.027E+01  0.0000 0.71286
  5.000E+01 1.143E+02 2.607E+00 1.558E-05 0.000E+00 0.000E+00 1.558E-05 2.607E+00 1.214E+01  0.0000 0.73434
  5.500E+01 1.210E+02 2.501E+00 1.666E-05 0.000E+00 0.000E+00 1.666E-05 2.501E+00 1.410E+01  0.0000 0.75332
  6.000E+01 1.276E+02 2.414E+00 1.773E-05 0.000E+00 0.000E+00 1.773E-05 2.414E+00 1.613E+01  0.0000 0.77019
  7.000E+01 1.403E+02 2.280E+00 1.988E-05 0.000E+00 0.000E+00 1.988E-05 2.280E+00 2.040E+01  0.0075 0.79887
  8.000E+01 1.527E+02 2.178E+00 2.204E-05 0.000E+00 0.000E+00 2.204E-05 2.178E+00 2.489E+01  0.0414 0.82227
  9.000E+01 1.647E+02 2.102E+00 2.423E-05 0.000E+00 0.000E+00 2.423E-05 2.102E+00 2.956E+01  0.0756 0.84166
  1.000E+02 1.764E+02 2.044E+00 2.646E-05 0.000E+00 0.000E+00 2.646E-05 2.044E+00 3.438E+01  0.1097 0.85794
  1.200E+02 1.994E+02 1.960E+00 3.103E-05 0.000E+00 0.000E+00 3.103E-05 1.960E+00 4.438E+01  0.1769 0.88361
  1.400E+02 2.218E+02 1.907E+00 3.577E-05 0.000E+00 0.000E+00 3.577E-05 1.907E+00 5.472E+01  0.2422 0.90278
  1.700E+02 2.546E+02 1.857E+00 4.319E-05 3.079E-14 0.000E+00 4.319E-05 1.857E+00 7.067E+01  0.3363 0.92363
  2.000E+02 2.868E+02 1.830E+00 5.097E-05 6.918E-12 0.000E+00 5.097E-05 1.830E+00 8.694E+01  0.4256 0.93835
  2.500E+02 3.396E+02 1.808E+00 6.473E-05 7.253E-08 0.000E+00 6.481E-05 1.808E+00 1.144E+02  0.5648 0.95485
  3.000E+02 3.917E+02 1.803E+00 7.939E-05 1.056E-06 0.000E+00 8.045E-05 1.803E+00 1.421E+02  0.6933 0.96548
  3.500E+02 4.432E+02 1.805E+00 9.487E-05 2.963E-06 0.000E+00 9.783E-05 1.805E+00 1.698E+02  0.8126 0.97274
  4.000E+02 4.945E+02 1.812E+00 1.111E-04 5.782E-06 0.000E+00 1.169E-04 1.812E+00 1.975E+02  0.9241 0.97793
  4.500E+02 5.455E+02 1.820E+00 1.280E-04 9.479E-06 0.000E+00 1.375E-04 1.820E+00 2.250E+02  1.0286 0.98176
  5.000E+02 5.964E+02 1.830E+00 1.456E-04 1.402E-05 0.000E+00 1.596E-04 1.830E+00 2.524E+02  1.1270 0.98467
  5.500E+02 6.471E+02 1.840E+00 1.638E-04 1.939E-05 0.000E+00 1.831E-04 1.840E+00 2.797E+02  1.2201 0.98693
  6.000E+02 6.977E+02 1.850E+00 1.825E-04 2.554E-05 0.000E+00 2.080E-04 1.850E+00 3.068E+02  1.3085 0.98873
  7.000E+02 7.987E+02 1.869E+00 2.215E-04 4.011E-05 0.000E+00 2.616E-04 1.869E+00 3.605E+02  1.4728 0.99136
  8.000E+02 8.995E+02 1.888E+00 2.624E-04 5.753E-05 0.000E+00 3.199E-04 1.888E+00 4.138E+02  1.6230 0.99317
  9.000E+02 1.000E+03 1.905E+00 3.050E-04 7.762E-05 0.000E+00 3.826E-04 1.906E+00 4.665E+02  1.7615 0.99447
  1.000E+03 1.101E+03 1.922E+00 3.491E-04 1.002E-04 0.000E+00 4.494E-04 1.922E+00 5.187E+02  1.8901 0.99542
  1.200E+03 1.301E+03 1.951E+00 4.416E-04 1.524E-04 2.254E-05 6.166E-04 1.951E+00 6.220E+02  2.1226 0.99672
  1.400E+03 1.502E+03 1.976E+00 5.391E-04 2.130E-04 6.167E-05 8.138E-04 1.977E+00 7.238E+02  2.3289 0.99753
  1.700E+03 1.803E+03 2.009E+00 6.934E-04 3.181E-04 1.321E-04 1.144E-03 2.010E+00 8.743E+02  2.6007 0.99829
  2.000E+03 2.103E+03 2.036E+00 8.560E-04 4.382E-04 2.151E-04 1.509E-03 2.038E+00 1.023E+03  2.8379 0.99874
  2.500E+03 2.604E+03 2.074E+00 1.143E-03 6.672E-04 3.757E-04 2.186E-03 2.076E+00 1.266E+03  3.1772 0.99918
  3.000E+03 3.104E+03 2.104E+00 1.446E-03 9.273E-04 5.445E-04 2.918E-03 2.107E+00 1.505E+03  3.4653 0.99942
  3.500E+03 3.604E+03 2.130E+00 1.764E-03 1.214E-03 7.234E-04 3.701E-03 2.134E+00 1.741E+03  3.7160 0.99957
  4.000E+03 4.104E+03 2.152E+00 2.093E-03 1.539E-03 9.147E-04 4.547E-03 2.156E+00 1.974E+03  3.9380 0.99967
  4.500E+03 4.604E+03 2.171E+00 2.434E-03 1.890E-03 1.114E-03 5.438E-03 2.176E+00 2.204E+03  4.1374 0.99974
  5.000E+03 5.105E+03 2.188E+00 2.784E-03 2.263E-03 1.305E-03 6.353E-03 2.194E+00 2.433E+03  4.3184 0.99979
  5.500E+03 5.605E+03 2.203E+00 3.144E-03 2.654E-03 1.512E-03 7.310E-03 2.210E+00 2.660E+03  4.4842 0.99982
  6.000E+03 6.105E+03 2.216E+00 3.511E-03 3.063E-03 1.704E-03 8.278E-03 2.225E+00 2.886E+03  4.6372 0.99985
  7.000E+03 7.105E+03 2.240E+00 4.268E-03 3.926E-03 2.113E-03 1.031E-02 2.250E+00 3.333E+03  4.9118 0.99989
  8.000E+03 8.105E+03 2.260E+00 5.050E-03 4.844E-03 2.518E-03 1.241E-02 2.272E+00 3.775E+03  5.1531 0.99992
  9.000E+03 9.105E+03 2.277E+00 5.855E-03 5.811E-03 2.900E-03 1.457E-02 2.292E+00 4.213E+03  5.3685 0.99993
  1.000E+04 1.011E+04 2.293E+00 6.680E-03 6.821E-03 3.295E-03 1.679E-02 2.310E+00 4.648E+03  5.5629 0.99995
  1.200E+04 1.211E+04 2.319E+00 8.383E-03 8.953E-03 4.095E-03 2.143E-02 2.340E+00 5.508E+03  5.9032 0.99996
  1.400E+04 1.411E+04 2.340E+00 1.015E-02 1.121E-02 4.899E-03 2.626E-02 2.366E+00 6.358E+03  6.1942 0.99997
  1.700E+04 1.711E+04 2.366E+00 1.289E-02 1.481E-02 6.090E-03 3.379E-02 2.400E+00 7.617E+03  6.5647 0.99998
  2.000E+04 2.011E+04 2.388E+00 1.573E-02 1.860E-02 7.261E-03 4.159E-02 2.429E+00 8.859E+03  6.8777 0.99999
  2.500E+04 2.511E+04 2.416E+00 2.064E-02 2.529E-02 9.186E-03 5.511E-02 2.472E+00 1.090E+04  7.3111 0.99999
  3.000E+04 3.011E+04 2.439E+00 2.573E-02 3.234E-02 1.108E-02 6.914E-02 2.508E+00 1.291E+04  7.6680 0.99999
  3.500E+04 3.511E+04 2.458E+00 3.096E-02 3.969E-02 1.299E-02 8.364E-02 2.542E+00 1.489E+04  7.9713 1.00000
  4.000E+04 4.011E+04 2.474E+00 3.633E-02 4.728E-02 1.489E-02 9.850E-02 2.572E+00 1.684E+04  8.2349 1.00000
  4.500E+04 4.511E+04 2.488E+00 4.180E-02 5.508E-02 1.676E-02 1.136E-01 2.601E+00 1.878E+04  8.4682 1.00000
  5.000E+04 5.011E+04 2.500E+00 4.737E-02 6.307E-02 1.863E-02 1.291E-01 2.629E+00 2.069E+04  8.6772 1.00000
  5.500E+04 5.511E+04 2.511E+00 5.303E-02 7.121E-02 2.052E-02 1.448E-01 2.656E+00 2.258E+04  8.8666 1.00000
  6.000E+04 6.011E+04 2.521E+00 5.876E-02 7.950E-02 2.239E-02 1.607E-01 2.681E+00 2.445E+04  9.0397 1.00000
  7.000E+04 7.011E+04 2.538E+00 7.043E-02 9.644E-02 2.610E-02 1.930E-01 2.731E+00 2.815E+04  9.3469 1.00000
  8.000E+04 8.011E+04 2.553E+00 8.233E-02 1.138E-01 2.982E-02 2.260E-01 2.779E+00 3.178E+04  9.6132 1.00000
  9.000E+04 9.011E+04 2.566E+00 9.444E-02 1.315E-01 3.355E-02 2.595E-01 2.825E+00 3.535E+04  9.8483 1.00000
  1.000E+05 1.001E+05 2.577E+00 1.067E-01 1.495E-01 3.721E-02 2.934E-01 2.871E+00 3.886E+04 10.0588 1.00000
  1.200E+05 1.201E+05 2.597E+00 1.317E-01 1.862E-01 4.467E-02 3.627E-01 2.960E+00 4.572E+04 10.4230 1.00000
  1.400E+05 1.401E+05 2.614E+00 1.573E-01 2.238E-01 5.213E-02 4.332E-01 3.047E+00 5.238E+04 10.7311 1.00000
  1.700E+05 1.701E+05 2.635E+00 1.963E-01 2.813E-01 6.334E-02 5.410E-01 3.176E+00 6.203E+04 11.1191 1.00000
  2.000E+05 2.001E+05 2.652E+00 2.361E-01 3.399E-01 7.461E-02 6.506E-01 3.303E+00 7.129E+04 11.4440 1.00000
  2.500E+05 2.501E+05 2.676E+00 3.038E-01 4.394E-01 9.347E-02 8.367E-01 3.513E+00 8.598E+04 11.8901 1.00000
  3.000E+05 3.001E+05 2.695E+00 3.728E-01 5.406E-01 1.125E-01 1.026E+00 3.721E+00 9.982E+04 12.2546 1.00000
  3.500E+05 3.501E+05 2.712E+00 4.428E-01 6.432E-01 1.317E-01 1.218E+00 3.930E+00 1.129E+05 12.5628 1.00000
  4.000E+05 4.001E+05 2.726E+00 5.136E-01 7.467E-01 1.511E-01 1.411E+00 4.138E+00 1.253E+05 12.8297 1.00000
  4.500E+05 4.501E+05 2.739E+00 5.852E-01 8.511E-01 1.706E-01 1.607E+00 4.346E+00 1.371E+05 13.0653 1.00000
  5.000E+05 5.001E+05 2.750E+00 6.573E-01 9.562E-01 1.902E-01 1.804E+00 4.554E+00 1.483E+05 13.2759 1.00000
  5.500E+05 5.501E+05 2.760E+00 7.300E-01 1.062E+00 2.097E-01 2.002E+00 4.762E+00 1.591E+05 13.4665 1.00000
  6.000E+05 6.001E+05 2.770E+00 8.032E-01 1.168E+00 2.293E-01 2.200E+00 4.970E+00 1.694E+05 13.6405 1.00000
  7.000E+05 7.001E+05 2.786E+00 9.507E-01 1.382E+00 2.688E-01 2.601E+00 5.387E+00 1.887E+05 13.9488 1.00000
  8.000E+05 8.001E+05 2.801E+00 1.100E+00 1.596E+00 3.088E-01 3.005E+00 5.805E+00 2.066E+05 14.2158 1.00000
  9.000E+05 9.001E+05 2.813E+00 1.249E+00 1.812E+00 3.492E-01 3.411E+00 6.225E+00 2.232E+05 14.4513 1.00000
  1.000E+06 1.000E+06 2.825E+00 1.400E+00 2.029E+00 3.899E-01 3.820E+00 6.645E+00 2.388E+05 14.6620 1.00000
  1.200E+06 1.200E+06 2.845E+00 1.704E+00 2.465E+00 4.724E-01 4.642E+00 7.487E+00 2.672E+05 15.0266 1.00000
  1.400E+06 1.400E+06 2.862E+00 2.011E+00 2.903E+00 5.561E-01 5.470E+00 8.332E+00 2.926E+05 15.3349 1.00000
  1.700E+06 1.700E+06 2.883E+00 2.474E+00 3.563E+00 6.836E-01 6.721E+00 9.605E+00 3.262E+05 15.7232 1.00000
  2.000E+06 2.000E+06 2.902E+00 2.941E+00 4.226E+00 8.131E-01 7.980E+00 1.088E+01 3.556E+05 16.0482 1.00000
  2.500E+06 2.500E+06 2.927E+00 3.725E+00 5.335E+00 1.033E+00 1.009E+01 1.302E+01 3.978E+05 16.4945 1.00000
  3.000E+06 3.000E+06 2.947E+00 4.514E+00 6.448E+00 1.257E+00 1.222E+01 1.517E+01 4.334E+05 16.8591 1.00000
  3.500E+06 3.500E+06 2.965E+00 5.306E+00 7.564E+00 1.485E+00 1.436E+01 1.732E+01 4.644E+05 17.1674 1.00000
  4.000E+06 4.000E+06 2.980E+00 6.102E+00 8.682E+00 1.716E+00 1.650E+01 1.948E+01 4.916E+05 17.4344 1.00000
  4.500E+06 4.500E+06 2.994E+00 6.901E+00 9.801E+00 1.950E+00 1.865E+01 2.165E+01 5.160E+05 17.6700 1.00000
  5.000E+06 5.000E+06 3.006E+00 7.701E+00 1.092E+01 2.187E+00 2.081E+01 2.382E+01 5.381E+05 17.8807 1.00000
  5.500E+06 5.500E+06 3.017E+00 8.503E+00 1.204E+01 2.426E+00 2.297E+01 2.599E+01 5.582E+05 18.0713 1.00000
  6.000E+06 6.000E+06 3.027E+00 9.307E+00 1.317E+01 2.667E+00 2.514E+01 2.817E+01 5.767E+05 18.2454 1.00000
  7.000E+06 7.000E+06 3.045E+00 1.092E+01 1.542E+01 3.155E+00 2.949E+01 3.253E+01 6.098E+05 18.5536 1.00000
  8.000E+06 8.000E+06 3.061E+00 1.253E+01 1.767E+01 3.651E+00 3.385E+01 3.691E+01 6.387E+05 18.8207 1.00000
  9.000E+06 9.000E+06 3.075E+00 1.415E+01 1.992E+01 4.153E+00 3.822E+01 4.130E+01 6.644E+05 19.0563 1.00000
  1.000E+07 1.000E+07 3.088E+00 1.577E+01 2.217E+01 4.662E+00 4.260E+01 4.569E+01 6.874E+05 19.2670 1.00000
  1.200E+07 1.200E+07 3.109E+00 1.902E+01 2.668E+01 5.694E+00 5.139E+01 5.450E+01 7.276E+05 19.6316 1.00000
  1.400E+07 1.400E+07 3.128E+00 2.227E+01 3.120E+01 6.745E+00 6.021E+01 6.334E+01 7.618E+05 19.9399 1.00000
  1.700E+07 1.700E+07 3.152E+00 2.716E+01 3.797E+01 8.350E+00 7.348E+01 7.664E+01 8.050E+05 20.3282 1.00000
  2.000E+07 2.000E+07 3.172E+00 3.206E+01 4.475E+01 9.987E+00 8.680E+01 8.997E+01 8.413E+05 20.6533 1.00000
  2.500E+07 2.500E+07 3.200E+00 4.023E+01 5.606E+01 1.277E+01 1.091E+02 1.123E+02 8.913E+05 21.0996 1.00000
  3.000E+07 3.000E+07 3.222E+00 4.842E+01 6.737E+01 1.562E+01 1.314E+02 1.346E+02 9.322E+05 21.4642 1.00000
  3.500E+07 3.500E+07 3.242E+00 5.661E+01 7.869E+01 1.852E+01 1.538E+02 1.571E+02 9.667E+05 21.7725 1.00000
  4.000E+07 4.000E+07 3.259E+00 6.481E+01 9.001E+01 2.147E+01 1.763E+02 1.795E+02 9.965E+05 22.0396 1.00000
  4.500E+07 4.500E+07 3.274E+00 7.301E+01 1.013E+02 2.446E+01 1.988E+02 2.021E+02 1.023E+06 22.2751 1.00000
  5.000E+07 5.000E+07 3.287E+00 8.122E+01 1.126E+02 2.748E+01 2.213E+02 2.246E+02 1.046E+06 22.4858 1.00000
  5.500E+07 5.500E+07 3.300E+00 8.943E+01 1.240E+02 3.054E+01 2.439E+02 2.472E+02 1.068E+06 22.6765 1.00000
  6.000E+07 6.000E+07 3.311E+00 9.764E+01 1.353E+02 3.363E+01 2.666E+02 2.699E+02 1.087E+06 22.8505 1.00000
  7.000E+07 7.000E+07 3.331E+00 1.141E+02 1.580E+02 3.989E+01 3.119E+02 3.152E+02 1.121E+06 23.1588 1.00000
  8.000E+07 8.000E+07 3.349E+00 1.305E+02 1.806E+02 4.626E+01 3.574E+02 3.607E+02 1.151E+06 23.4259 1.00000
  9.000E+07 9.000E+07 3.364E+00 1.469E+02 2.033E+02 5.271E+01 4.029E+02 4.063E+02 1.177E+06 23.6614 1.00000
  1.000E+08 1.000E+08 3.378E+00 1.634E+02 2.259E+02 5.925E+01 4.486E+02 4.519E+02 1.201E+06 23.8721 1.00000
  1.200E+08 1.200E+08 3.403E+00 1.963E+02 2.712E+02 7.254E+01 5.401E+02 5.435E+02 1.241E+06 24.2368 1.00000
  1.400E+08 1.400E+08 3.423E+00 2.292E+02 3.166E+02 8.609E+01 6.319E+02 6.353E+02 1.275E+06 24.5451 1.00000
  1.700E+08 1.700E+08 3.450E+00 2.786E+02 3.846E+02 1.068E+02 7.700E+02 7.734E+02 1.318E+06 24.9334 1.00000
  2.000E+08 2.000E+08 3.472E+00 3.280E+02 4.525E+02 1.280E+02 9.085E+02 9.120E+02 1.354E+06 25.2584 1.00000
  2.500E+08 2.500E+08 3.503E+00 4.103E+02 5.659E+02 1.640E+02 1.140E+03 1.144E+03 1.403E+06 25.7047 1.00000
  3.000E+08 3.000E+08 3.529E+00 4.926E+02 6.792E+02 2.009E+02 1.373E+03 1.376E+03 1.443E+06 26.0694 1.00000
  3.500E+08 3.500E+08 3.550E+00 5.750E+02 7.925E+02 2.386E+02 1.606E+03 1.610E+03 1.477E+06 26.3777 1.00000
  4.000E+08 4.000E+08 3.569E+00 6.573E+02 9.059E+02 2.768E+02 1.840E+03 1.844E+03 1.506E+06 26.6447 1.00000
  4.500E+08 4.500E+08 3.586E+00 7.397E+02 1.019E+03 3.156E+02 2.075E+03 2.078E+03 1.532E+06 26.8803 1.00000
  5.000E+08 5.000E+08 3.601E+00 8.221E+02 1.133E+03 3.550E+02 2.310E+03 2.313E+03 1.555E+06 27.0910 1.00000
  5.500E+08 5.500E+08 3.615E+00 9.044E+02 1.246E+03 3.948E+02 2.545E+03 2.549E+03 1.575E+06 27.2816 1.00000
  6.000E+08 6.000E+08 3.628E+00 9.868E+02 1.359E+03 4.350E+02 2.781E+03 2.785E+03 1.594E+06 27.4557 1.00000
  7.000E+08 7.000E+08 3.650E+00 1.152E+03 1.586E+03 5.166E+02 3.254E+03 3.258E+03 1.627E+06 27.7640 1.00000
  8.000E+08 8.000E+08 3.670E+00 1.316E+03 1.812E+03 5.996E+02 3.728E+03 3.732E+03 1.656E+06 28.0310 1.00000
  9.000E+08 9.000E+08 3.687E+00 1.481E+03 2.039E+03 6.838E+02 4.204E+03 4.208E+03 1.681E+06 28.2666 1.00000
  1.000E+09 1.000E+09 3.703E+00 1.646E+03 2.266E+03 7.691E+02 4.681E+03 4.684E+03 1.704E+06 28.4773 1.00000
