 Incident particle is a Muon with M = 105.65839 MeV
 Index = 0: Curium
      Absorber with <Z/A> = 0.38855
 Sternheimer coef:  a     k=m_s   x_0    x_1    I[eV]   Cbar  delta0
                 0.2026  2.7579  0.2484  3.5160  939.0  6.3097 0.14

 *** Table generated with PUMAS v1.00 ***

      T         p     Ionization  brems     pair     photonuc  Radloss    dE/dx   CSDA Range  delta   beta
    [MeV]    [MeV/c]  -----------------------[MeV cm^2/g]------------------------  [g/cm^2]
  1.000E+00 1.457E+01 1.922E+01 6.309E-06 0.000E+00 0.000E+00 6.309E-06 1.922E+01 2.602E-02  0.0008 0.13661
  1.200E+00 1.597E+01 1.702E+01 7.242E-06 0.000E+00 0.000E+00 7.242E-06 1.702E+01 3.709E-02  0.0010 0.14944
  1.400E+00 1.726E+01 1.532E+01 8.124E-06 0.000E+00 0.000E+00 8.124E-06 1.532E+01 4.950E-02  0.0012 0.16119
  1.700E+00 1.903E+01 1.339E+01 9.370E-06 0.000E+00 0.000E+00 9.370E-06 1.339E+01 7.048E-02  0.0014 0.17725
  2.000E+00 2.066E+01 1.195E+01 1.054E-05 0.000E+00 0.000E+00 1.054E-05 1.195E+01 9.424E-02  0.0017 0.19186
  2.500E+00 2.312E+01 1.019E+01 1.234E-05 0.000E+00 0.000E+00 1.234E-05 1.019E+01 1.397E-01  0.0021 0.21376
  3.000E+00 2.536E+01 8.934E+00 1.401E-05 0.000E+00 0.000E+00 1.401E-05 8.934E+00 1.922E-01  0.0026 0.23336
  3.500E+00 2.742E+01 7.989E+00 1.556E-05 0.000E+00 0.000E+00 1.556E-05 7.989E+00 2.515E-01  0.0030 0.25120
  4.000E+00 2.935E+01 7.250E+00 1.702E-05 0.000E+00 0.000E+00 1.702E-05 7.250E+00 3.173E-01  0.0034 0.26763
  4.500E+00 3.116E+01 6.655E+00 1.839E-05 0.000E+00 0.000E+00 1.839E-05 6.655E+00 3.893E-01  0.0039 0.28290
  5.000E+00 3.289E+01 6.164E+00 1.970E-05 0.000E+00 0.000E+00 1.970E-05 6.164E+00 4.675E-01  0.0043 0.29720
  5.500E+00 3.453E+01 5.751E+00 2.095E-05 0.000E+00 0.000E+00 2.095E-05 5.751E+00 5.515E-01  0.0048 0.31066
  6.000E+00 3.611E+01 5.400E+00 2.214E-05 0.000E+00 0.000E+00 2.214E-05 5.400E+00 6.413E-01  0.0052 0.32339
  7.000E+00 3.909E+01 4.831E+00 2.439E-05 0.000E+00 0.000E+00 2.439E-05 4.831E+00 8.373E-01  0.0061 0.34700
  8.000E+00 4.189E+01 4.390E+00 2.648E-05 0.000E+00 0.000E+00 2.648E-05 4.390E+00 1.055E+00  0.0070 0.36854
  9.000E+00 4.453E+01 4.038E+00 2.845E-05 0.000E+00 0.000E+00 2.845E-05 4.038E+00 1.292E+00  0.0079 0.38836
  1.000E+01 4.704E+01 3.749E+00 3.032E-05 0.000E+00 0.000E+00 3.032E-05 3.749E+00 1.550E+00  0.0088 0.40675
  1.200E+01 5.177E+01 3.304E+00 3.378E-05 0.000E+00 0.000E+00 3.378E-05 3.305E+00 2.119E+00  0.0107 0.43998
  1.400E+01 5.616E+01 2.977E+00 3.698E-05 0.000E+00 0.000E+00 3.698E-05 2.977E+00 2.757E+00  0.0126 0.46937
  1.700E+01 6.230E+01 2.620E+00 4.140E-05 0.000E+00 0.000E+00 4.140E-05 2.620E+00 3.834E+00  0.0155 0.50792
  2.000E+01 6.802E+01 2.363E+00 4.549E-05 0.000E+00 0.000E+00 4.549E-05 2.363E+00 5.041E+00  0.0185 0.54129
  2.500E+01 7.686E+01 2.066E+00 5.182E-05 0.000E+00 0.000E+00 5.182E-05 2.066E+00 7.309E+00  0.0236 0.58827
  3.000E+01 8.509E+01 1.864E+00 5.776E-05 0.000E+00 0.000E+00 5.776E-05 1.864E+00 9.860E+00  0.0289 0.62720
  3.500E+01 9.285E+01 1.718E+00 6.344E-05 0.000E+00 0.000E+00 6.344E-05 1.718E+00 1.266E+01  0.0344 0.66011
  4.000E+01 1.003E+02 1.608E+00 6.897E-05 0.000E+00 0.000E+00 6.897E-05 1.609E+00 1.567E+01  0.0402 0.68834
  4.500E+01 1.074E+02 1.523E+00 7.442E-05 0.000E+00 0.000E+00 7.442E-05 1.523E+00 1.886E+01  0.0461 0.71286
  5.000E+01 1.143E+02 1.455E+00 7.981E-05 0.000E+00 0.000E+00 7.981E-05 1.455E+00 2.222E+01  0.0522 0.73434
  5.500E+01 1.210E+02 1.400E+00 8.518E-05 0.000E+00 0.000E+00 8.518E-05 1.400E+00 2.572E+01  0.0585 0.75332
  6.000E+01 1.276E+02 1.355E+00 9.056E-05 0.000E+00 0.000E+00 9.056E-05 1.355E+00 2.935E+01  0.0650 0.77019
  7.000E+01 1.403E+02 1.285E+00 1.014E-04 0.000E+00 0.000E+00 1.014E-04 1.285E+00 3.693E+01  0.0787 0.79887
  8.000E+01 1.527E+02 1.235E+00 1.123E-04 0.000E+00 0.000E+00 1.123E-04 1.235E+00 4.487E+01  0.0931 0.82227
  9.000E+01 1.647E+02 1.198E+00 1.235E-04 0.000E+00 0.000E+00 1.235E-04 1.198E+00 5.309E+01  0.1083 0.84166
  1.000E+02 1.764E+02 1.169E+00 1.349E-04 0.000E+00 0.000E+00 1.349E-04 1.169E+00 6.154E+01  0.1244 0.85794
  1.200E+02 1.994E+02 1.131E+00 1.584E-04 0.000E+00 0.000E+00 1.584E-04 1.131E+00 7.894E+01  0.1454 0.88361
  1.400E+02 2.218E+02 1.109E+00 1.829E-04 0.000E+00 0.000E+00 1.829E-04 1.109E+00 9.680E+01  0.1568 0.90278
  1.700E+02 2.546E+02 1.091E+00 2.215E-04 0.000E+00 0.000E+00 2.215E-04 1.091E+00 1.241E+02  0.1791 0.92363
  2.000E+02 2.868E+02 1.084E+00 2.622E-04 0.000E+00 0.000E+00 2.622E-04 1.084E+00 1.517E+02  0.2052 0.93835
  2.500E+02 3.396E+02 1.083E+00 3.347E-04 0.000E+00 0.000E+00 3.347E-04 1.084E+00 1.978E+02  0.2526 0.95485
  3.000E+02 3.917E+02 1.090E+00 4.124E-04 0.000E+00 0.000E+00 4.124E-04 1.091E+00 2.438E+02  0.3022 0.96548
  3.500E+02 4.432E+02 1.100E+00 4.948E-04 0.000E+00 0.000E+00 4.948E-04 1.101E+00 2.894E+02  0.3521 0.97274
  4.000E+02 4.945E+02 1.111E+00 5.817E-04 0.000E+00 0.000E+00 5.817E-04 1.112E+00 3.346E+02  0.4016 0.97793
  4.500E+02 5.455E+02 1.123E+00 6.727E-04 0.000E+00 0.000E+00 6.727E-04 1.124E+00 3.793E+02  0.4502 0.98176
  5.000E+02 5.964E+02 1.135E+00 7.675E-04 2.234E-05 0.000E+00 7.898E-04 1.135E+00 4.236E+02  0.4976 0.98467
  5.500E+02 6.471E+02 1.146E+00 8.659E-04 1.210E-04 0.000E+00 9.869E-04 1.147E+00 4.674E+02  0.5438 0.98693
  6.000E+02 6.977E+02 1.157E+00 9.675E-04 1.664E-04 0.000E+00 1.134E-03 1.158E+00 5.108E+02  0.5888 0.98873
  7.000E+02 7.987E+02 1.177E+00 1.180E-03 2.658E-04 0.000E+00 1.446E-03 1.179E+00 5.964E+02  0.6752 0.99136
  8.000E+02 8.995E+02 1.196E+00 1.404E-03 3.842E-04 0.000E+00 1.788E-03 1.198E+00 6.806E+02  0.7570 0.99317
  9.000E+02 1.000E+03 1.213E+00 1.638E-03 5.210E-04 0.000E+00 2.159E-03 1.216E+00 7.634E+02  0.8345 0.99447
  1.000E+03 1.101E+03 1.229E+00 1.882E-03 6.751E-04 0.000E+00 2.557E-03 1.232E+00 8.452E+02  0.9081 0.99542
  1.200E+03 1.301E+03 1.257E+00 2.395E-03 1.031E-03 2.244E-05 3.448E-03 1.261E+00 1.006E+03  1.0451 0.99672
  1.400E+03 1.502E+03 1.281E+00 2.937E-03 1.446E-03 6.077E-05 4.444E-03 1.286E+00 1.163E+03  1.1703 0.99753
  1.700E+03 1.803E+03 1.312E+00 3.800E-03 2.165E-03 1.285E-04 6.094E-03 1.318E+00 1.393E+03  1.3403 0.99829
  2.000E+03 2.103E+03 1.338E+00 4.714E-03 2.988E-03 2.070E-04 7.909E-03 1.346E+00 1.618E+03  1.4929 0.99874
  2.500E+03 2.604E+03 1.373E+00 6.332E-03 4.556E-03 3.564E-04 1.124E-02 1.384E+00 1.985E+03  1.7175 0.99918
  3.000E+03 3.104E+03 1.401E+00 8.052E-03 6.336E-03 5.107E-04 1.490E-02 1.416E+00 2.342E+03  1.9137 0.99942
  3.500E+03 3.604E+03 1.425E+00 9.857E-03 8.298E-03 6.721E-04 1.883E-02 1.444E+00 2.692E+03  2.0883 0.99957
  4.000E+03 4.104E+03 1.445E+00 1.174E-02 1.043E-02 8.430E-04 2.301E-02 1.468E+00 3.035E+03  2.2457 0.99967
  4.500E+03 4.604E+03 1.463E+00 1.368E-02 1.270E-02 1.019E-03 2.740E-02 1.490E+00 3.373E+03  2.3893 0.99974
  5.000E+03 5.105E+03 1.478E+00 1.568E-02 1.510E-02 1.188E-03 3.197E-02 1.510E+00 3.707E+03  2.5214 0.99979
  5.500E+03 5.605E+03 1.492E+00 1.774E-02 1.762E-02 1.368E-03 3.673E-02 1.529E+00 4.036E+03  2.6439 0.99982
  6.000E+03 6.105E+03 1.504E+00 1.984E-02 2.024E-02 1.536E-03 4.162E-02 1.546E+00 4.361E+03  2.7581 0.99985
  7.000E+03 7.105E+03 1.526E+00 2.418E-02 2.576E-02 1.889E-03 5.183E-02 1.578E+00 5.001E+03  2.9659 0.99989
  8.000E+03 8.105E+03 1.544E+00 2.867E-02 3.161E-02 2.238E-03 6.252E-02 1.607E+00 5.630E+03  3.1514 0.99992
  9.000E+03 9.105E+03 1.560E+00 3.329E-02 3.775E-02 2.564E-03 7.361E-02 1.634E+00 6.247E+03  3.3192 0.99993
  1.000E+04 1.011E+04 1.574E+00 3.803E-02 4.415E-02 2.899E-03 8.507E-02 1.659E+00 6.854E+03  3.4725 0.99995
  1.200E+04 1.211E+04 1.597E+00 4.781E-02 5.759E-02 3.575E-03 1.090E-01 1.706E+00 8.043E+03  3.7446 0.99996
  1.400E+04 1.411E+04 1.617E+00 5.796E-02 7.178E-02 4.248E-03 1.340E-01 1.751E+00 9.200E+03  3.9814 0.99997
  1.700E+04 1.711E+04 1.640E+00 7.372E-02 9.421E-02 5.239E-03 1.732E-01 1.813E+00 1.088E+04  4.2879 0.99998
  2.000E+04 2.011E+04 1.659E+00 9.003E-02 1.178E-01 6.206E-03 2.140E-01 1.873E+00 1.251E+04  4.5513 0.99999
  2.500E+04 2.511E+04 1.684E+00 1.182E-01 1.590E-01 7.784E-03 2.850E-01 1.969E+00 1.512E+04  4.9224 0.99999
  3.000E+04 3.011E+04 1.704E+00 1.474E-01 2.023E-01 9.324E-03 3.590E-01 2.063E+00 1.760E+04  5.2335 0.99999
  3.500E+04 3.511E+04 1.720E+00 1.774E-01 2.471E-01 1.087E-02 4.353E-01 2.155E+00 1.997E+04  5.5017 1.00000
  4.000E+04 4.011E+04 1.733E+00 2.081E-01 2.931E-01 1.240E-02 5.137E-01 2.247E+00 2.224E+04  5.7376 1.00000
  4.500E+04 4.511E+04 1.745E+00 2.394E-01 3.403E-01 1.390E-02 5.936E-01 2.338E+00 2.443E+04  5.9484 1.00000
  5.000E+04 5.011E+04 1.755E+00 2.712E-01 3.884E-01 1.540E-02 6.750E-01 2.430E+00 2.652E+04  6.1389 1.00000
  5.500E+04 5.511E+04 1.764E+00 3.035E-01 4.372E-01 1.691E-02 7.576E-01 2.522E+00 2.854E+04  6.3129 1.00000
  6.000E+04 6.011E+04 1.772E+00 3.362E-01 4.868E-01 1.840E-02 8.414E-01 2.614E+00 3.049E+04  6.4730 1.00000
  7.000E+04 7.011E+04 1.786E+00 4.026E-01 5.876E-01 2.134E-02 1.012E+00 2.798E+00 3.419E+04  6.7594 1.00000
  8.000E+04 8.011E+04 1.798E+00 4.703E-01 6.905E-01 2.429E-02 1.185E+00 2.984E+00 3.765E+04  7.0103 1.00000
  9.000E+04 9.011E+04 1.809E+00 5.391E-01 7.950E-01 2.723E-02 1.361E+00 3.170E+00 4.091E+04  7.2336 1.00000
  1.000E+05 1.001E+05 1.818E+00 6.087E-01 9.008E-01 3.011E-02 1.540E+00 3.358E+00 4.397E+04  7.4348 1.00000
  1.200E+05 1.201E+05 1.833E+00 7.503E-01 1.116E+00 3.597E-02 1.902E+00 3.736E+00 4.963E+04  7.7860 1.00000
  1.400E+05 1.401E+05 1.846E+00 8.945E-01 1.335E+00 4.181E-02 2.271E+00 4.117E+00 5.474E+04  8.0856 1.00000
  1.700E+05 1.701E+05 1.862E+00 1.115E+00 1.668E+00 5.056E-02 2.833E+00 4.695E+00 6.157E+04  8.4662 1.00000
  2.000E+05 2.001E+05 1.876E+00 1.338E+00 2.005E+00 5.935E-02 3.403E+00 5.279E+00 6.761E+04  8.7870 1.00000
  2.500E+05 2.501E+05 1.894E+00 1.717E+00 2.576E+00 7.401E-02 4.368E+00 6.261E+00 7.634E+04  9.2301 1.00000
  3.000E+05 3.001E+05 1.908E+00 2.103E+00 3.154E+00 8.875E-02 5.346E+00 7.254E+00 8.378E+04  9.5938 1.00000
  3.500E+05 3.501E+05 1.920E+00 2.493E+00 3.737E+00 1.036E-01 6.334E+00 8.254E+00 9.025E+04  9.9019 1.00000
  4.000E+05 4.001E+05 1.931E+00 2.887E+00 4.324E+00 1.186E-01 7.330E+00 9.261E+00 9.598E+04 10.1688 1.00000
  4.500E+05 4.501E+05 1.940E+00 3.284E+00 4.915E+00 1.336E-01 8.332E+00 1.027E+01 1.011E+05 10.4044 1.00000
  5.000E+05 5.001E+05 1.949E+00 3.684E+00 5.508E+00 1.488E-01 9.340E+00 1.129E+01 1.058E+05 10.6150 1.00000
  5.500E+05 5.501E+05 1.956E+00 4.086E+00 6.103E+00 1.638E-01 1.035E+01 1.231E+01 1.100E+05 10.8056 1.00000
  6.000E+05 6.001E+05 1.963E+00 4.490E+00 6.700E+00 1.789E-01 1.137E+01 1.333E+01 1.139E+05 10.9796 1.00000
  7.000E+05 7.001E+05 1.976E+00 5.304E+00 7.899E+00 2.093E-01 1.341E+01 1.539E+01 1.209E+05 11.2879 1.00000
  8.000E+05 8.001E+05 1.987E+00 6.123E+00 9.103E+00 2.401E-01 1.547E+01 1.745E+01 1.270E+05 11.5549 1.00000
  9.000E+05 9.001E+05 1.996E+00 6.947E+00 1.031E+01 2.711E-01 1.753E+01 1.953E+01 1.325E+05 11.7904 1.00000
  1.000E+06 1.000E+06 2.005E+00 7.775E+00 1.152E+01 3.024E-01 1.960E+01 2.160E+01 1.373E+05 12.0011 1.00000
  1.200E+06 1.200E+06 2.020E+00 9.440E+00 1.395E+01 3.658E-01 2.376E+01 2.578E+01 1.458E+05 12.3657 1.00000
  1.400E+06 1.400E+06 2.032E+00 1.111E+01 1.639E+01 4.300E-01 2.793E+01 2.997E+01 1.531E+05 12.6740 1.00000
  1.700E+06 1.700E+06 2.048E+00 1.364E+01 2.006E+01 5.278E-01 3.423E+01 3.628E+01 1.622E+05 13.0623 1.00000
  2.000E+06 2.000E+06 2.062E+00 1.618E+01 2.374E+01 6.272E-01 4.054E+01 4.261E+01 1.698E+05 13.3873 1.00000
  2.500E+06 2.500E+06 2.080E+00 2.043E+01 2.988E+01 7.957E-01 5.111E+01 5.319E+01 1.804E+05 13.8336 1.00000
  3.000E+06 3.000E+06 2.096E+00 2.470E+01 3.604E+01 9.675E-01 6.171E+01 6.381E+01 1.890E+05 14.1982 1.00000
  3.500E+06 3.500E+06 2.109E+00 2.899E+01 4.221E+01 1.142E+00 7.234E+01 7.445E+01 1.963E+05 14.5065 1.00000
  4.000E+06 4.000E+06 2.120E+00 3.329E+01 4.838E+01 1.319E+00 8.299E+01 8.511E+01 2.026E+05 14.7735 1.00000
  4.500E+06 4.500E+06 2.130E+00 3.759E+01 5.457E+01 1.498E+00 9.366E+01 9.579E+01 2.082E+05 15.0091 1.00000
  5.000E+06 5.000E+06 2.140E+00 4.190E+01 6.075E+01 1.679E+00 1.043E+02 1.065E+02 2.131E+05 15.2198 1.00000
  5.500E+06 5.500E+06 2.148E+00 4.622E+01 6.694E+01 1.862E+00 1.150E+02 1.172E+02 2.176E+05 15.4104 1.00000
  6.000E+06 6.000E+06 2.155E+00 5.055E+01 7.313E+01 2.047E+00 1.257E+02 1.279E+02 2.217E+05 15.5845 1.00000
  7.000E+06 7.000E+06 2.169E+00 5.920E+01 8.553E+01 2.421E+00 1.472E+02 1.493E+02 2.289E+05 15.8927 1.00000
  8.000E+06 8.000E+06 2.181E+00 6.787E+01 9.793E+01 2.801E+00 1.686E+02 1.708E+02 2.352E+05 16.1598 1.00000
  9.000E+06 9.000E+06 2.191E+00 7.656E+01 1.103E+02 3.185E+00 1.901E+02 1.923E+02 2.407E+05 16.3954 1.00000
  1.000E+07 1.000E+07 2.200E+00 8.524E+01 1.227E+02 3.574E+00 2.116E+02 2.138E+02 2.457E+05 16.6061 1.00000
  1.200E+07 1.200E+07 2.217E+00 1.026E+02 1.476E+02 4.364E+00 2.546E+02 2.568E+02 2.543E+05 16.9707 1.00000
  1.400E+07 1.400E+07 2.231E+00 1.201E+02 1.724E+02 5.168E+00 2.977E+02 2.999E+02 2.615E+05 17.2790 1.00000
  1.700E+07 1.700E+07 2.248E+00 1.462E+02 2.097E+02 6.396E+00 3.623E+02 3.646E+02 2.706E+05 17.6673 1.00000
  2.000E+07 2.000E+07 2.263E+00 1.724E+02 2.470E+02 7.648E+00 4.270E+02 4.293E+02 2.782E+05 17.9924 1.00000
  2.500E+07 2.500E+07 2.284E+00 2.160E+02 3.092E+02 9.780E+00 5.350E+02 5.373E+02 2.887E+05 18.4387 1.00000
  3.000E+07 3.000E+07 2.301E+00 2.597E+02 3.714E+02 1.196E+01 6.431E+02 6.454E+02 2.972E+05 18.8033 1.00000
  3.500E+07 3.500E+07 2.315E+00 3.035E+02 4.336E+02 1.418E+01 7.512E+02 7.536E+02 3.044E+05 19.1116 1.00000
  4.000E+07 4.000E+07 2.328E+00 3.472E+02 4.958E+02 1.643E+01 8.595E+02 8.618E+02 3.106E+05 19.3787 1.00000
  4.500E+07 4.500E+07 2.339E+00 3.909E+02 5.581E+02 1.872E+01 9.677E+02 9.701E+02 3.161E+05 19.6142 1.00000
  5.000E+07 5.000E+07 2.349E+00 4.347E+02 6.203E+02 2.103E+01 1.076E+03 1.078E+03 3.210E+05 19.8249 1.00000
  5.500E+07 5.500E+07 2.359E+00 4.784E+02 6.825E+02 2.337E+01 1.184E+03 1.187E+03 3.254E+05 20.0156 1.00000
  6.000E+07 6.000E+07 2.367E+00 5.222E+02 7.448E+02 2.573E+01 1.293E+03 1.295E+03 3.295E+05 20.1896 1.00000
  7.000E+07 7.000E+07 2.382E+00 6.098E+02 8.693E+02 3.052E+01 1.510E+03 1.512E+03 3.366E+05 20.4979 1.00000
  8.000E+07 8.000E+07 2.395E+00 6.973E+02 9.938E+02 3.539E+01 1.726E+03 1.729E+03 3.428E+05 20.7650 1.00000
  9.000E+07 9.000E+07 2.407E+00 7.849E+02 1.118E+03 4.033E+01 1.944E+03 1.946E+03 3.483E+05 21.0005 1.00000
  1.000E+08 1.000E+08 2.417E+00 8.725E+02 1.243E+03 4.533E+01 2.161E+03 2.163E+03 3.532E+05 21.2112 1.00000
  1.200E+08 1.200E+08 2.435E+00 1.048E+03 1.492E+03 5.550E+01 2.595E+03 2.597E+03 3.616E+05 21.5759 1.00000
  1.400E+08 1.400E+08 2.451E+00 1.223E+03 1.741E+03 6.586E+01 3.030E+03 3.032E+03 3.688E+05 21.8842 1.00000
  1.700E+08 1.700E+08 2.470E+00 1.486E+03 2.114E+03 8.172E+01 3.682E+03 3.684E+03 3.778E+05 22.2725 1.00000
  2.000E+08 2.000E+08 2.487E+00 1.749E+03 2.488E+03 9.790E+01 4.335E+03 4.337E+03 3.853E+05 22.5975 1.00000
  2.500E+08 2.500E+08 2.510E+00 2.187E+03 3.111E+03 1.255E+02 5.423E+03 5.425E+03 3.957E+05 23.0438 1.00000
  3.000E+08 3.000E+08 2.529E+00 2.625E+03 3.733E+03 1.537E+02 6.512E+03 6.515E+03 4.042E+05 23.4085 1.00000
  3.500E+08 3.500E+08 2.545E+00 3.063E+03 4.356E+03 1.825E+02 7.602E+03 7.604E+03 4.113E+05 23.7168 1.00000
  4.000E+08 4.000E+08 2.559E+00 3.502E+03 4.978E+03 2.117E+02 8.692E+03 8.694E+03 4.174E+05 23.9838 1.00000
  4.500E+08 4.500E+08 2.572E+00 3.940E+03 5.601E+03 2.414E+02 9.782E+03 9.785E+03 4.229E+05 24.2194 1.00000
  5.000E+08 5.000E+08 2.583E+00 4.378E+03 6.224E+03 2.715E+02 1.087E+04 1.088E+04 4.277E+05 24.4301 1.00000
  5.500E+08 5.500E+08 2.593E+00 4.816E+03 6.846E+03 3.019E+02 1.196E+04 1.197E+04 4.321E+05 24.6207 1.00000
  6.000E+08 6.000E+08 2.603E+00 5.255E+03 7.469E+03 3.327E+02 1.306E+04 1.306E+04 4.361E+05 24.7948 1.00000
  7.000E+08 7.000E+08 2.620E+00 6.131E+03 8.714E+03 3.951E+02 1.524E+04 1.524E+04 4.432E+05 25.1031 1.00000
  8.000E+08 8.000E+08 2.634E+00 7.008E+03 9.959E+03 4.586E+02 1.743E+04 1.743E+04 4.494E+05 25.3701 1.00000
  9.000E+08 9.000E+08 2.647E+00 7.884E+03 1.120E+04 5.230E+02 1.961E+04 1.961E+04 4.548E+05 25.6057 1.00000
  1.000E+09 1.000E+09 2.659E+00 8.761E+03 1.245E+04 5.883E+02 2.180E+04 2.180E+04 4.596E+05 25.8164 1.00000
