 Incident particle is a Muon with M = 105.65839 MeV
 Index = 0: Darmstadtium
      Absorber with <Z/A> = 0.39123
 Sternheimer coef:  a     k=m_s   x_0    x_1    I[eV]   Cbar  delta0
                 0.2807  3.0000  0.6632  3.0000 1129.0  6.6357 0.00

 *** Table generated with PUMAS v1.00 ***

      T         p     Ionization  brems     pair     photonuc  Radloss    dE/dx   CSDA Range  delta   beta
    [MeV]    [MeV/c]  -----------------------[MeV cm^2/g]------------------------  [g/cm^2]
  1.000E+00 1.457E+01 1.817E+01 7.205E-06 0.000E+00 0.000E+00 7.205E-06 1.817E+01 2.752E-02  0.0000 0.13661
  1.200E+00 1.597E+01 1.615E+01 8.268E-06 0.000E+00 0.000E+00 8.268E-06 1.615E+01 3.922E-02  0.0000 0.14944
  1.400E+00 1.726E+01 1.458E+01 9.274E-06 0.000E+00 0.000E+00 9.274E-06 1.458E+01 5.227E-02  0.0000 0.16119
  1.700E+00 1.903E+01 1.278E+01 1.069E-05 0.000E+00 0.000E+00 1.069E-05 1.278E+01 7.429E-02  0.0000 0.17725
  2.000E+00 2.066E+01 1.143E+01 1.202E-05 0.000E+00 0.000E+00 1.202E-05 1.143E+01 9.915E-02  0.0000 0.19186
  2.500E+00 2.312E+01 9.777E+00 1.408E-05 0.000E+00 0.000E+00 1.408E-05 9.777E+00 1.466E-01  0.0000 0.21376
  3.000E+00 2.536E+01 8.592E+00 1.597E-05 0.000E+00 0.000E+00 1.597E-05 8.592E+00 2.013E-01  0.0000 0.23336
  3.500E+00 2.742E+01 7.696E+00 1.773E-05 0.000E+00 0.000E+00 1.773E-05 7.696E+00 2.628E-01  0.0000 0.25120
  4.000E+00 2.935E+01 6.994E+00 1.939E-05 0.000E+00 0.000E+00 1.939E-05 6.994E+00 3.311E-01  0.0000 0.26763
  4.500E+00 3.116E+01 6.427E+00 2.095E-05 0.000E+00 0.000E+00 2.095E-05 6.427E+00 4.057E-01  0.0000 0.28290
  5.000E+00 3.289E+01 5.958E+00 2.243E-05 0.000E+00 0.000E+00 2.243E-05 5.958E+00 4.866E-01  0.0000 0.29720
  5.500E+00 3.453E+01 5.564E+00 2.384E-05 0.000E+00 0.000E+00 2.384E-05 5.564E+00 5.735E-01  0.0000 0.31066
  6.000E+00 3.611E+01 5.228E+00 2.520E-05 0.000E+00 0.000E+00 2.520E-05 5.228E+00 6.662E-01  0.0000 0.32339
  7.000E+00 3.909E+01 4.683E+00 2.774E-05 0.000E+00 0.000E+00 2.774E-05 4.684E+00 8.686E-01  0.0000 0.34700
  8.000E+00 4.189E+01 4.261E+00 3.012E-05 0.000E+00 0.000E+00 3.012E-05 4.261E+00 1.093E+00  0.0000 0.36854
  9.000E+00 4.453E+01 3.922E+00 3.234E-05 0.000E+00 0.000E+00 3.234E-05 3.922E+00 1.338E+00  0.0000 0.38836
  1.000E+01 4.704E+01 3.645E+00 3.445E-05 0.000E+00 0.000E+00 3.445E-05 3.645E+00 1.602E+00  0.0000 0.40675
  1.200E+01 5.177E+01 3.216E+00 3.837E-05 0.000E+00 0.000E+00 3.837E-05 3.216E+00 2.188E+00  0.0000 0.43998
  1.400E+01 5.616E+01 2.900E+00 4.198E-05 0.000E+00 0.000E+00 4.198E-05 2.900E+00 2.843E+00  0.0000 0.46937
  1.700E+01 6.230E+01 2.556E+00 4.698E-05 0.000E+00 0.000E+00 4.698E-05 2.556E+00 3.947E+00  0.0000 0.50792
  2.000E+01 6.802E+01 2.308E+00 5.160E-05 0.000E+00 0.000E+00 5.160E-05 2.308E+00 5.184E+00  0.0000 0.54129
  2.500E+01 7.686E+01 2.020E+00 5.876E-05 0.000E+00 0.000E+00 5.876E-05 2.020E+00 7.505E+00  0.0000 0.58827
  3.000E+01 8.509E+01 1.825E+00 6.546E-05 0.000E+00 0.000E+00 6.546E-05 1.825E+00 1.011E+01  0.0000 0.62720
  3.500E+01 9.285E+01 1.684E+00 7.188E-05 0.000E+00 0.000E+00 7.188E-05 1.684E+00 1.297E+01  0.0000 0.66011
  4.000E+01 1.003E+02 1.578E+00 7.813E-05 0.000E+00 0.000E+00 7.813E-05 1.578E+00 1.604E+01  0.0000 0.68834
  4.500E+01 1.074E+02 1.496E+00 8.429E-05 0.000E+00 0.000E+00 8.429E-05 1.496E+00 1.929E+01  0.0000 0.71286
  5.000E+01 1.143E+02 1.430E+00 9.039E-05 0.000E+00 0.000E+00 9.039E-05 1.430E+00 2.271E+01  0.0000 0.73434
  5.500E+01 1.210E+02 1.377E+00 9.647E-05 0.000E+00 0.000E+00 9.647E-05 1.377E+00 2.627E+01  0.0000 0.75332
  6.000E+01 1.276E+02 1.334E+00 1.025E-04 0.000E+00 0.000E+00 1.025E-04 1.334E+00 2.996E+01  0.0000 0.77019
  7.000E+01 1.403E+02 1.267E+00 1.148E-04 0.000E+00 0.000E+00 1.148E-04 1.267E+00 3.766E+01  0.0000 0.79887
  8.000E+01 1.527E+02 1.219E+00 1.272E-04 0.000E+00 0.000E+00 1.272E-04 1.219E+00 4.571E+01  0.0000 0.82227
  9.000E+01 1.647E+02 1.184E+00 1.399E-04 0.000E+00 0.000E+00 1.399E-04 1.184E+00 5.403E+01  0.0000 0.84166
  1.000E+02 1.764E+02 1.157E+00 1.527E-04 0.000E+00 0.000E+00 1.527E-04 1.157E+00 6.257E+01  0.0000 0.85794
  1.200E+02 1.994E+02 1.122E+00 1.794E-04 0.000E+00 0.000E+00 1.794E-04 1.122E+00 8.013E+01  0.0000 0.88361
  1.400E+02 2.218E+02 1.101E+00 2.071E-04 0.000E+00 0.000E+00 2.071E-04 1.101E+00 9.813E+01  0.0000 0.90278
  1.700E+02 2.546E+02 1.085E+00 2.509E-04 0.000E+00 0.000E+00 2.509E-04 1.085E+00 1.256E+02  0.0000 0.92363
  2.000E+02 2.868E+02 1.080E+00 2.971E-04 0.000E+00 0.000E+00 2.971E-04 1.080E+00 1.533E+02  0.0000 0.93835
  2.500E+02 3.396E+02 1.083E+00 3.793E-04 0.000E+00 0.000E+00 3.793E-04 1.084E+00 1.995E+02  0.0000 0.95485
  3.000E+02 3.917E+02 1.093E+00 4.675E-04 0.000E+00 0.000E+00 4.675E-04 1.094E+00 2.454E+02  0.0000 0.96548
  3.500E+02 4.432E+02 1.107E+00 5.611E-04 0.000E+00 0.000E+00 5.611E-04 1.107E+00 2.909E+02  0.0000 0.97274
  4.000E+02 4.945E+02 1.121E+00 6.598E-04 0.000E+00 0.000E+00 6.598E-04 1.122E+00 3.357E+02  0.0004 0.97793
  4.500E+02 5.455E+02 1.135E+00 7.631E-04 0.000E+00 0.000E+00 7.631E-04 1.136E+00 3.800E+02  0.0055 0.98176
  5.000E+02 5.964E+02 1.149E+00 8.708E-04 0.000E+00 0.000E+00 8.708E-04 1.150E+00 4.237E+02  0.0161 0.98467
  5.500E+02 6.471E+02 1.163E+00 9.826E-04 1.223E-04 0.000E+00 1.105E-03 1.164E+00 4.670E+02  0.0308 0.98693
  6.000E+02 6.977E+02 1.175E+00 1.098E-03 1.883E-04 0.000E+00 1.286E-03 1.177E+00 5.097E+02  0.0485 0.98873
  7.000E+02 7.987E+02 1.199E+00 1.340E-03 3.048E-04 0.000E+00 1.645E-03 1.200E+00 5.938E+02  0.0902 0.99136
  8.000E+02 8.995E+02 1.220E+00 1.595E-03 4.409E-04 0.000E+00 2.036E-03 1.222E+00 6.764E+02  0.1369 0.99317
  9.000E+02 1.000E+03 1.239E+00 1.861E-03 5.983E-04 0.000E+00 2.459E-03 1.241E+00 7.576E+02  0.1865 0.99447
  1.000E+03 1.101E+03 1.256E+00 2.138E-03 7.757E-04 0.000E+00 2.914E-03 1.259E+00 8.376E+02  0.2375 0.99542
  1.200E+03 1.301E+03 1.286E+00 2.722E-03 1.186E-03 2.244E-05 3.930E-03 1.290E+00 9.946E+02  0.3406 0.99672
  1.400E+03 1.502E+03 1.312E+00 3.340E-03 1.663E-03 6.073E-05 5.063E-03 1.317E+00 1.148E+03  0.4423 0.99753
  1.700E+03 1.803E+03 1.344E+00 4.322E-03 2.490E-03 1.283E-04 6.941E-03 1.351E+00 1.373E+03  0.5891 0.99829
  2.000E+03 2.103E+03 1.371E+00 5.363E-03 3.437E-03 2.066E-04 9.007E-03 1.380E+00 1.593E+03  0.7278 0.99874
  2.500E+03 2.604E+03 1.407E+00 7.208E-03 5.242E-03 3.556E-04 1.280E-02 1.420E+00 1.950E+03  0.9409 0.99918
  3.000E+03 3.104E+03 1.436E+00 9.168E-03 7.290E-03 5.092E-04 1.697E-02 1.453E+00 2.298E+03  1.1340 0.99942
  3.500E+03 3.604E+03 1.459E+00 1.123E-02 9.548E-03 6.698E-04 2.144E-02 1.481E+00 2.639E+03  1.3099 0.99957
  4.000E+03 4.104E+03 1.479E+00 1.337E-02 1.200E-02 8.398E-04 2.620E-02 1.506E+00 2.974E+03  1.4714 0.99967
  4.500E+03 4.604E+03 1.497E+00 1.559E-02 1.461E-02 1.015E-03 3.121E-02 1.528E+00 3.304E+03  1.6207 0.99974
  5.000E+03 5.105E+03 1.512E+00 1.787E-02 1.737E-02 1.183E-03 3.643E-02 1.548E+00 3.629E+03  1.7593 0.99979
  5.500E+03 5.605E+03 1.525E+00 2.022E-02 2.026E-02 1.362E-03 4.184E-02 1.567E+00 3.950E+03  1.8889 0.99982
  6.000E+03 6.105E+03 1.537E+00 2.262E-02 2.328E-02 1.528E-03 4.742E-02 1.585E+00 4.267E+03  2.0104 0.99985
  7.000E+03 7.105E+03 1.558E+00 2.757E-02 2.962E-02 1.879E-03 5.907E-02 1.617E+00 4.892E+03  2.2332 0.99989
  8.000E+03 8.105E+03 1.576E+00 3.269E-02 3.635E-02 2.226E-03 7.126E-02 1.647E+00 5.504E+03  2.4336 0.99992
  9.000E+03 9.105E+03 1.591E+00 3.796E-02 4.340E-02 2.549E-03 8.391E-02 1.675E+00 6.106E+03  2.6158 0.99993
  1.000E+04 1.011E+04 1.604E+00 4.338E-02 5.074E-02 2.882E-03 9.700E-02 1.701E+00 6.699E+03  2.7828 0.99995
  1.200E+04 1.211E+04 1.626E+00 5.455E-02 6.618E-02 3.552E-03 1.243E-01 1.750E+00 7.858E+03  3.0805 0.99996
  1.400E+04 1.411E+04 1.644E+00 6.613E-02 8.247E-02 4.220E-03 1.528E-01 1.797E+00 8.986E+03  3.3402 0.99997
  1.700E+04 1.711E+04 1.666E+00 8.413E-02 1.082E-01 5.202E-03 1.975E-01 1.863E+00 1.063E+04  3.6770 0.99998
  2.000E+04 2.011E+04 1.683E+00 1.028E-01 1.352E-01 6.160E-03 2.442E-01 1.927E+00 1.221E+04  3.9664 0.99999
  2.500E+04 2.511E+04 1.706E+00 1.349E-01 1.826E-01 7.724E-03 3.252E-01 2.032E+00 1.474E+04  4.3738 0.99999
  3.000E+04 3.011E+04 1.724E+00 1.683E-01 2.321E-01 9.249E-03 4.096E-01 2.134E+00 1.714E+04  4.7143 0.99999
  3.500E+04 3.511E+04 1.739E+00 2.026E-01 2.835E-01 1.078E-02 4.968E-01 2.236E+00 1.943E+04  5.0069 1.00000
  4.000E+04 4.011E+04 1.751E+00 2.376E-01 3.362E-01 1.230E-02 5.862E-01 2.338E+00 2.162E+04  5.2633 1.00000
  4.500E+04 4.511E+04 1.762E+00 2.734E-01 3.902E-01 1.378E-02 6.774E-01 2.440E+00 2.371E+04  5.4916 1.00000
  5.000E+04 5.011E+04 1.771E+00 3.097E-01 4.453E-01 1.526E-02 7.703E-01 2.542E+00 2.572E+04  5.6972 1.00000
  5.500E+04 5.511E+04 1.780E+00 3.466E-01 5.012E-01 1.675E-02 8.646E-01 2.644E+00 2.765E+04  5.8842 1.00000
  6.000E+04 6.011E+04 1.787E+00 3.839E-01 5.579E-01 1.823E-02 9.601E-01 2.747E+00 2.950E+04  6.0557 1.00000
  7.000E+04 7.011E+04 1.801E+00 4.598E-01 6.734E-01 2.114E-02 1.154E+00 2.955E+00 3.301E+04  6.3610 1.00000
  8.000E+04 8.011E+04 1.812E+00 5.371E-01 7.910E-01 2.405E-02 1.352E+00 3.164E+00 3.629E+04  6.6266 1.00000
  9.000E+04 9.011E+04 1.821E+00 6.156E-01 9.105E-01 2.696E-02 1.553E+00 3.375E+00 3.935E+04  6.8614 1.00000
  1.000E+05 1.001E+05 1.830E+00 6.951E-01 1.032E+00 2.981E-02 1.757E+00 3.587E+00 4.223E+04  7.0718 1.00000
  1.200E+05 1.201E+05 1.845E+00 8.568E-01 1.277E+00 3.560E-02 2.170E+00 4.015E+00 4.750E+04  7.4361 1.00000
  1.400E+05 1.401E+05 1.857E+00 1.021E+00 1.527E+00 4.137E-02 2.590E+00 4.448E+00 5.224E+04  7.7442 1.00000
  1.700E+05 1.701E+05 1.873E+00 1.273E+00 1.908E+00 5.002E-02 3.231E+00 5.104E+00 5.855E+04  8.1322 1.00000
  2.000E+05 2.001E+05 1.886E+00 1.528E+00 2.294E+00 5.871E-02 3.880E+00 5.767E+00 6.409E+04  8.4571 1.00000
  2.500E+05 2.501E+05 1.904E+00 1.961E+00 2.946E+00 7.319E-02 4.980E+00 6.884E+00 7.206E+04  8.9032 1.00000
  3.000E+05 3.001E+05 1.919E+00 2.401E+00 3.605E+00 8.775E-02 6.094E+00 8.012E+00 7.881E+04  9.2677 1.00000
  3.500E+05 3.501E+05 1.931E+00 2.846E+00 4.271E+00 1.025E-01 7.219E+00 9.150E+00 8.467E+04  9.5759 1.00000
  4.000E+05 4.001E+05 1.942E+00 3.295E+00 4.941E+00 1.173E-01 8.354E+00 1.030E+01 8.983E+04  9.8428 1.00000
  4.500E+05 4.501E+05 1.951E+00 3.748E+00 5.615E+00 1.321E-01 9.495E+00 1.145E+01 9.444E+04 10.0784 1.00000
  5.000E+05 5.001E+05 1.960E+00 4.204E+00 6.291E+00 1.471E-01 1.064E+01 1.260E+01 9.861E+04 10.2890 1.00000
  5.500E+05 5.501E+05 1.967E+00 4.663E+00 6.971E+00 1.619E-01 1.180E+01 1.376E+01 1.024E+05 10.4796 1.00000
  6.000E+05 6.001E+05 1.974E+00 5.124E+00 7.652E+00 1.768E-01 1.295E+01 1.493E+01 1.059E+05 10.6536 1.00000
  7.000E+05 7.001E+05 1.987E+00 6.052E+00 9.020E+00 2.069E-01 1.528E+01 1.727E+01 1.121E+05 10.9619 1.00000
  8.000E+05 8.001E+05 1.998E+00 6.986E+00 1.039E+01 2.372E-01 1.762E+01 1.961E+01 1.176E+05 11.2289 1.00000
  9.000E+05 9.001E+05 2.007E+00 7.926E+00 1.177E+01 2.679E-01 1.996E+01 2.197E+01 1.224E+05 11.4644 1.00000
  1.000E+06 1.000E+06 2.016E+00 8.869E+00 1.315E+01 2.988E-01 2.232E+01 2.434E+01 1.267E+05 11.6751 1.00000
  1.200E+06 1.200E+06 2.031E+00 1.077E+01 1.592E+01 3.613E-01 2.705E+01 2.908E+01 1.343E+05 12.0397 1.00000
  1.400E+06 1.400E+06 2.044E+00 1.268E+01 1.871E+01 4.247E-01 3.181E+01 3.385E+01 1.407E+05 12.3480 1.00000
  1.700E+06 1.700E+06 2.060E+00 1.556E+01 2.289E+01 5.213E-01 3.897E+01 4.103E+01 1.488E+05 12.7363 1.00000
  2.000E+06 2.000E+06 2.073E+00 1.845E+01 2.708E+01 6.194E-01 4.615E+01 4.822E+01 1.555E+05 13.0613 1.00000
  2.500E+06 2.500E+06 2.092E+00 2.330E+01 3.409E+01 7.858E-01 5.817E+01 6.026E+01 1.649E+05 13.5076 1.00000
  3.000E+06 3.000E+06 2.108E+00 2.816E+01 4.111E+01 9.554E-01 7.023E+01 7.234E+01 1.725E+05 13.8722 1.00000
  3.500E+06 3.500E+06 2.121E+00 3.305E+01 4.814E+01 1.128E+00 8.232E+01 8.444E+01 1.789E+05 14.1805 1.00000
  4.000E+06 4.000E+06 2.132E+00 3.794E+01 5.518E+01 1.302E+00 9.443E+01 9.656E+01 1.844E+05 14.4475 1.00000
  4.500E+06 4.500E+06 2.143E+00 4.285E+01 6.223E+01 1.479E+00 1.066E+02 1.087E+02 1.893E+05 14.6831 1.00000
  5.000E+06 5.000E+06 2.152E+00 4.776E+01 6.928E+01 1.658E+00 1.187E+02 1.209E+02 1.937E+05 14.8938 1.00000
  5.500E+06 5.500E+06 2.160E+00 5.268E+01 7.634E+01 1.839E+00 1.309E+02 1.330E+02 1.976E+05 15.0844 1.00000
  6.000E+06 6.000E+06 2.168E+00 5.760E+01 8.340E+01 2.021E+00 1.430E+02 1.452E+02 2.012E+05 15.2585 1.00000
  7.000E+06 7.000E+06 2.181E+00 6.747E+01 9.753E+01 2.390E+00 1.674E+02 1.696E+02 2.076E+05 15.5667 1.00000
  8.000E+06 8.000E+06 2.193E+00 7.734E+01 1.117E+02 2.765E+00 1.918E+02 1.940E+02 2.132E+05 15.8338 1.00000
  9.000E+06 9.000E+06 2.204E+00 8.723E+01 1.258E+02 3.144E+00 2.162E+02 2.184E+02 2.180E+05 16.0694 1.00000
  1.000E+07 1.000E+07 2.213E+00 9.713E+01 1.400E+02 3.528E+00 2.406E+02 2.428E+02 2.224E+05 16.2801 1.00000
  1.200E+07 1.200E+07 2.229E+00 1.169E+02 1.683E+02 4.308E+00 2.895E+02 2.917E+02 2.299E+05 16.6447 1.00000
  1.400E+07 1.400E+07 2.243E+00 1.368E+02 1.966E+02 5.102E+00 3.385E+02 3.407E+02 2.363E+05 16.9530 1.00000
  1.700E+07 1.700E+07 2.261E+00 1.666E+02 2.391E+02 6.315E+00 4.120E+02 4.142E+02 2.443E+05 17.3413 1.00000
  2.000E+07 2.000E+07 2.276E+00 1.964E+02 2.816E+02 7.551E+00 4.855E+02 4.878E+02 2.510E+05 17.6664 1.00000
  2.500E+07 2.500E+07 2.297E+00 2.461E+02 3.525E+02 9.655E+00 6.082E+02 6.105E+02 2.602E+05 18.1127 1.00000
  3.000E+07 3.000E+07 2.314E+00 2.959E+02 4.234E+02 1.181E+01 7.310E+02 7.334E+02 2.677E+05 18.4773 1.00000
  3.500E+07 3.500E+07 2.329E+00 3.456E+02 4.943E+02 1.400E+01 8.539E+02 8.563E+02 2.741E+05 18.7856 1.00000
  4.000E+07 4.000E+07 2.342E+00 3.954E+02 5.652E+02 1.622E+01 9.769E+02 9.792E+02 2.795E+05 19.0527 1.00000
  4.500E+07 4.500E+07 2.353E+00 4.452E+02 6.362E+02 1.848E+01 1.100E+03 1.102E+03 2.844E+05 19.2882 1.00000
  5.000E+07 5.000E+07 2.363E+00 4.951E+02 7.071E+02 2.076E+01 1.223E+03 1.225E+03 2.887E+05 19.4989 1.00000
  5.500E+07 5.500E+07 2.372E+00 5.449E+02 7.780E+02 2.307E+01 1.346E+03 1.348E+03 2.926E+05 19.6896 1.00000
  6.000E+07 6.000E+07 2.381E+00 5.947E+02 8.490E+02 2.540E+01 1.469E+03 1.472E+03 2.961E+05 19.8636 1.00000
  7.000E+07 7.000E+07 2.396E+00 6.944E+02 9.909E+02 3.013E+01 1.715E+03 1.718E+03 3.024E+05 20.1719 1.00000
  8.000E+07 8.000E+07 2.409E+00 7.942E+02 1.133E+03 3.494E+01 1.962E+03 1.964E+03 3.079E+05 20.4390 1.00000
  9.000E+07 9.000E+07 2.421E+00 8.939E+02 1.275E+03 3.981E+01 2.208E+03 2.211E+03 3.127E+05 20.6745 1.00000
  1.000E+08 1.000E+08 2.431E+00 9.936E+02 1.417E+03 4.475E+01 2.455E+03 2.457E+03 3.170E+05 20.8852 1.00000
  1.200E+08 1.200E+08 2.449E+00 1.193E+03 1.700E+03 5.479E+01 2.948E+03 2.951E+03 3.244E+05 21.2499 1.00000
  1.400E+08 1.400E+08 2.465E+00 1.393E+03 1.984E+03 6.501E+01 3.442E+03 3.444E+03 3.307E+05 21.5582 1.00000
  1.700E+08 1.700E+08 2.485E+00 1.692E+03 2.410E+03 8.067E+01 4.183E+03 4.185E+03 3.387E+05 21.9465 1.00000
  2.000E+08 2.000E+08 2.502E+00 1.991E+03 2.836E+03 9.664E+01 4.924E+03 4.926E+03 3.453E+05 22.2715 1.00000
  2.500E+08 2.500E+08 2.525E+00 2.490E+03 3.546E+03 1.239E+02 6.160E+03 6.162E+03 3.544E+05 22.7178 1.00000
  3.000E+08 3.000E+08 2.544E+00 2.989E+03 4.255E+03 1.517E+02 7.396E+03 7.399E+03 3.619E+05 23.0825 1.00000
  3.500E+08 3.500E+08 2.560E+00 3.488E+03 4.965E+03 1.801E+02 8.633E+03 8.636E+03 3.681E+05 23.3908 1.00000
  4.000E+08 4.000E+08 2.574E+00 3.987E+03 5.675E+03 2.090E+02 9.871E+03 9.874E+03 3.736E+05 23.6578 1.00000
  4.500E+08 4.500E+08 2.587E+00 4.486E+03 6.384E+03 2.383E+02 1.111E+04 1.111E+04 3.783E+05 23.8934 1.00000
  5.000E+08 5.000E+08 2.598E+00 4.986E+03 7.094E+03 2.680E+02 1.235E+04 1.235E+04 3.826E+05 24.1041 1.00000
  5.500E+08 5.500E+08 2.609E+00 5.485E+03 7.803E+03 2.981E+02 1.359E+04 1.359E+04 3.865E+05 24.2947 1.00000
  6.000E+08 6.000E+08 2.618E+00 5.984E+03 8.513E+03 3.284E+02 1.483E+04 1.483E+04 3.900E+05 24.4688 1.00000
  7.000E+08 7.000E+08 2.635E+00 6.982E+03 9.932E+03 3.900E+02 1.730E+04 1.731E+04 3.963E+05 24.7771 1.00000
  8.000E+08 8.000E+08 2.650E+00 7.980E+03 1.135E+04 4.527E+02 1.978E+04 1.979E+04 4.017E+05 25.0441 1.00000
  9.000E+08 9.000E+08 2.663E+00 8.978E+03 1.277E+04 5.163E+02 2.226E+04 2.227E+04 4.065E+05 25.2797 1.00000
  1.000E+09 1.000E+09 2.675E+00 9.976E+03 1.419E+04 5.807E+02 2.475E+04 2.475E+04 4.107E+05 25.4904 1.00000
