 Incident particle is a Muon with M = 105.65839 MeV
 Index = 0: DiethylEther
      Absorber with <Z/A> = 0.56653
 Sternheimer coef:  a     k=m_s   x_0    x_1    I[eV]   Cbar  delta0
                 0.1055  3.4586  0.2231  2.6745   60.0  3.3721 0.00

 *** Table generated with PUMAS v1.00 ***

      T         p     Ionization  brems     pair     photonuc  Radloss    dE/dx   CSDA Range  delta   beta
    [MeV]    [MeV/c]  -----------------------[MeV cm^2/g]------------------------  [g/cm^2]
  1.000E+00 1.457E+01 5.366E+01 6.526E-07 0.000E+00 0.000E+00 6.526E-07 5.366E+01 9.317E-03  0.0000 0.13661
  1.200E+00 1.597E+01 4.624E+01 7.466E-07 0.000E+00 0.000E+00 7.466E-07 4.624E+01 1.334E-02  0.0000 0.14944
  1.400E+00 1.726E+01 4.076E+01 8.365E-07 0.000E+00 0.000E+00 8.365E-07 4.076E+01 1.796E-02  0.0000 0.16119
  1.700E+00 1.903E+01 3.476E+01 9.649E-07 0.000E+00 0.000E+00 9.649E-07 3.476E+01 2.595E-02  0.0000 0.17725
  2.000E+00 2.066E+01 3.042E+01 1.087E-06 0.000E+00 0.000E+00 1.087E-06 3.042E+01 3.520E-02  0.0000 0.19186
  2.500E+00 2.312E+01 2.533E+01 1.278E-06 0.000E+00 0.000E+00 1.278E-06 2.533E+01 5.329E-02  0.0000 0.21376
  3.000E+00 2.536E+01 2.182E+01 1.457E-06 0.000E+00 0.000E+00 1.457E-06 2.182E+01 7.462E-02  0.0000 0.23336
  3.500E+00 2.742E+01 1.924E+01 1.626E-06 0.000E+00 0.000E+00 1.626E-06 1.924E+01 9.907E-02  0.0000 0.25120
  4.000E+00 2.935E+01 1.726E+01 1.786E-06 0.000E+00 0.000E+00 1.786E-06 1.726E+01 1.266E-01  0.0000 0.26763
  4.500E+00 3.116E+01 1.569E+01 1.940E-06 0.000E+00 0.000E+00 1.940E-06 1.569E+01 1.570E-01  0.0000 0.28290
  5.000E+00 3.289E+01 1.441E+01 2.087E-06 0.000E+00 0.000E+00 2.087E-06 1.441E+01 1.903E-01  0.0000 0.29720
  5.500E+00 3.453E+01 1.335E+01 2.229E-06 0.000E+00 0.000E+00 2.229E-06 1.335E+01 2.264E-01  0.0000 0.31066
  6.000E+00 3.611E+01 1.245E+01 2.366E-06 0.000E+00 0.000E+00 2.366E-06 1.245E+01 2.652E-01  0.0000 0.32339
  7.000E+00 3.909E+01 1.102E+01 2.627E-06 0.000E+00 0.000E+00 2.627E-06 1.102E+01 3.507E-01  0.0000 0.34700
  8.000E+00 4.189E+01 9.929E+00 2.873E-06 0.000E+00 0.000E+00 2.873E-06 9.929E+00 4.464E-01  0.0000 0.36854
  9.000E+00 4.453E+01 9.064E+00 3.106E-06 0.000E+00 0.000E+00 3.106E-06 9.064E+00 5.519E-01  0.0000 0.38836
  1.000E+01 4.704E+01 8.364E+00 3.330E-06 0.000E+00 0.000E+00 3.330E-06 8.364E+00 6.669E-01  0.0000 0.40675
  1.200E+01 5.177E+01 7.295E+00 3.750E-06 0.000E+00 0.000E+00 3.750E-06 7.295E+00 9.235E-01  0.0000 0.43998
  1.400E+01 5.616E+01 6.517E+00 4.141E-06 0.000E+00 0.000E+00 4.141E-06 6.517E+00 1.214E+00  0.0000 0.46937
  1.700E+01 6.230E+01 5.680E+00 4.689E-06 0.000E+00 0.000E+00 4.689E-06 5.680E+00 1.708E+00  0.0000 0.50792
  2.000E+01 6.802E+01 5.085E+00 5.199E-06 0.000E+00 0.000E+00 5.199E-06 5.085E+00 2.267E+00  0.0000 0.54129
  2.500E+01 7.686E+01 4.401E+00 5.992E-06 0.000E+00 0.000E+00 5.992E-06 4.401E+00 3.327E+00  0.0000 0.58827
  3.000E+01 8.509E+01 3.940E+00 6.736E-06 0.000E+00 0.000E+00 6.736E-06 3.940E+00 4.530E+00  0.0000 0.62720
  3.500E+01 9.285E+01 3.610E+00 7.447E-06 0.000E+00 0.000E+00 7.447E-06 3.610E+00 5.857E+00  0.0000 0.66011
  4.000E+01 1.003E+02 3.362E+00 8.136E-06 0.000E+00 0.000E+00 8.136E-06 3.362E+00 7.293E+00  0.0000 0.68834
  4.500E+01 1.074E+02 3.170E+00 8.810E-06 0.000E+00 0.000E+00 8.810E-06 3.170E+00 8.825E+00  0.0000 0.71286
  5.000E+01 1.143E+02 3.018E+00 9.476E-06 0.000E+00 0.000E+00 9.476E-06 3.018E+00 1.044E+01  0.0000 0.73434
  5.500E+01 1.210E+02 2.894E+00 1.014E-05 0.000E+00 0.000E+00 1.014E-05 2.894E+00 1.213E+01  0.0000 0.75332
  6.000E+01 1.276E+02 2.792E+00 1.079E-05 0.000E+00 0.000E+00 1.079E-05 2.792E+00 1.389E+01  0.0000 0.77019
  7.000E+01 1.403E+02 2.635E+00 1.211E-05 0.000E+00 0.000E+00 1.211E-05 2.635E+00 1.758E+01  0.0000 0.79887
  8.000E+01 1.527E+02 2.520E+00 1.343E-05 0.000E+00 0.000E+00 1.343E-05 2.520E+00 2.146E+01  0.0000 0.82227
  9.000E+01 1.647E+02 2.435E+00 1.477E-05 0.000E+00 0.000E+00 1.477E-05 2.435E+00 2.550E+01  0.0000 0.84166
  1.000E+02 1.764E+02 2.369E+00 1.613E-05 0.000E+00 0.000E+00 1.613E-05 2.369E+00 2.966E+01  0.0000 0.85794
  1.200E+02 1.994E+02 2.270E+00 1.891E-05 0.000E+00 0.000E+00 1.891E-05 2.270E+00 3.829E+01  0.0729 0.88361
  1.400E+02 2.218E+02 2.205E+00 2.179E-05 0.000E+00 0.000E+00 2.179E-05 2.205E+00 4.723E+01  0.1442 0.90278
  1.700E+02 2.546E+02 2.145E+00 2.629E-05 3.831E-14 0.000E+00 2.629E-05 2.145E+00 6.103E+01  0.2466 0.92363
  2.000E+02 2.868E+02 2.110E+00 3.101E-05 8.556E-12 0.000E+00 3.101E-05 2.110E+00 7.513E+01  0.3437 0.93835
  2.500E+02 3.396E+02 2.081E+00 3.933E-05 7.048E-08 0.000E+00 3.940E-05 2.081E+00 9.899E+01  0.4947 0.95485
  3.000E+02 3.917E+02 2.072E+00 4.819E-05 6.197E-07 0.000E+00 4.881E-05 2.072E+00 1.231E+02  0.6338 0.96548
  3.500E+02 4.432E+02 2.072E+00 5.752E-05 1.701E-06 0.000E+00 5.922E-05 2.072E+00 1.472E+02  0.7627 0.97274
  4.000E+02 4.945E+02 2.077E+00 6.730E-05 3.289E-06 0.000E+00 7.059E-05 2.077E+00 1.713E+02  0.8829 0.97793
  4.500E+02 5.455E+02 2.085E+00 7.749E-05 5.365E-06 0.000E+00 8.286E-05 2.085E+00 1.953E+02  0.9956 0.98176
  5.000E+02 5.964E+02 2.094E+00 8.806E-05 7.912E-06 0.000E+00 9.597E-05 2.094E+00 2.193E+02  1.1016 0.98467
  5.500E+02 6.471E+02 2.103E+00 9.898E-05 1.091E-05 0.000E+00 1.099E-04 2.103E+00 2.431E+02  1.2017 0.98693
  6.000E+02 6.977E+02 2.113E+00 1.102E-04 1.435E-05 0.000E+00 1.246E-04 2.113E+00 2.668E+02  1.2966 0.98873
  7.000E+02 7.987E+02 2.133E+00 1.337E-04 2.249E-05 0.000E+00 1.562E-04 2.133E+00 3.139E+02  1.4729 0.99136
  8.000E+02 8.995E+02 2.152E+00 1.582E-04 3.222E-05 0.000E+00 1.904E-04 2.152E+00 3.606E+02  1.6339 0.99317
  9.000E+02 1.000E+03 2.170E+00 1.837E-04 4.343E-05 0.000E+00 2.272E-04 2.170E+00 4.069E+02  1.7821 0.99447
  1.000E+03 1.101E+03 2.186E+00 2.102E-04 5.603E-05 0.000E+00 2.663E-04 2.187E+00 4.528E+02  1.9195 0.99542
  1.200E+03 1.301E+03 2.217E+00 2.657E-04 8.512E-05 2.257E-05 3.733E-04 2.217E+00 5.436E+02  2.1676 0.99672
  1.400E+03 1.502E+03 2.243E+00 3.240E-04 1.189E-04 6.190E-05 5.049E-04 2.243E+00 6.333E+02  2.3872 0.99753
  1.700E+03 1.803E+03 2.277E+00 4.164E-04 1.775E-04 1.330E-04 7.269E-04 2.277E+00 7.660E+02  2.6760 0.99829
  2.000E+03 2.103E+03 2.305E+00 5.138E-04 2.444E-04 2.172E-04 9.754E-04 2.306E+00 8.969E+02  2.9276 0.99874
  2.500E+03 2.604E+03 2.344E+00 6.856E-04 3.720E-04 3.809E-04 1.438E-03 2.346E+00 1.112E+03  3.2864 0.99918
  3.000E+03 3.104E+03 2.376E+00 8.674E-04 5.169E-04 5.536E-04 1.938E-03 2.378E+00 1.324E+03  3.5902 0.99942
  3.500E+03 3.604E+03 2.403E+00 1.058E-03 6.767E-04 7.374E-04 2.472E-03 2.405E+00 1.533E+03  3.8539 0.99957
  4.000E+03 4.104E+03 2.425E+00 1.256E-03 8.655E-04 9.344E-04 3.056E-03 2.428E+00 1.740E+03  4.0870 0.99967
  4.500E+03 4.604E+03 2.445E+00 1.460E-03 1.073E-03 1.140E-03 3.673E-03 2.449E+00 1.945E+03  4.2960 0.99974
  5.000E+03 5.105E+03 2.463E+00 1.671E-03 1.293E-03 1.338E-03 4.302E-03 2.467E+00 2.148E+03  4.4853 0.99979
  5.500E+03 5.605E+03 2.478E+00 1.887E-03 1.524E-03 1.552E-03 4.963E-03 2.483E+00 2.350E+03  4.6585 0.99982
  6.000E+03 6.105E+03 2.493E+00 2.108E-03 1.767E-03 1.751E-03 5.626E-03 2.498E+00 2.551E+03  4.8181 0.99985
  7.000E+03 7.105E+03 2.517E+00 2.564E-03 2.279E-03 2.175E-03 7.018E-03 2.524E+00 2.949E+03  5.1039 0.99989
  8.000E+03 8.105E+03 2.538E+00 3.036E-03 2.826E-03 2.597E-03 8.458E-03 2.547E+00 3.343E+03  5.3546 0.99992
  9.000E+03 9.105E+03 2.557E+00 3.522E-03 3.402E-03 2.994E-03 9.918E-03 2.567E+00 3.734E+03  5.5777 0.99993
  1.000E+04 1.011E+04 2.573E+00 4.020E-03 4.005E-03 3.406E-03 1.143E-02 2.584E+00 4.123E+03  5.7789 0.99995
  1.200E+04 1.211E+04 2.600E+00 5.052E-03 5.282E-03 4.242E-03 1.458E-02 2.615E+00 4.892E+03  6.1299 0.99996
  1.400E+04 1.411E+04 2.623E+00 6.121E-03 6.639E-03 5.082E-03 1.784E-02 2.640E+00 5.653E+03  6.4293 0.99997
  1.700E+04 1.711E+04 2.650E+00 7.787E-03 8.801E-03 6.330E-03 2.292E-02 2.673E+00 6.783E+03  6.8093 0.99998
  2.000E+04 2.011E+04 2.673E+00 9.516E-03 1.109E-02 7.559E-03 2.816E-02 2.701E+00 7.899E+03  7.1292 0.99999
  2.500E+04 2.511E+04 2.703E+00 1.251E-02 1.513E-02 9.584E-03 3.723E-02 2.741E+00 9.737E+03  7.5708 0.99999
  3.000E+04 3.011E+04 2.728E+00 1.562E-02 1.941E-02 1.158E-02 4.661E-02 2.774E+00 1.155E+04  7.9330 0.99999
  3.500E+04 3.511E+04 2.748E+00 1.883E-02 2.387E-02 1.360E-02 5.630E-02 2.804E+00 1.334E+04  8.2399 1.00000
  4.000E+04 4.011E+04 2.765E+00 2.212E-02 2.850E-02 1.560E-02 6.622E-02 2.831E+00 1.512E+04  8.5060 1.00000
  4.500E+04 4.511E+04 2.780E+00 2.548E-02 3.326E-02 1.757E-02 7.632E-02 2.856E+00 1.688E+04  8.7410 1.00000
  5.000E+04 5.011E+04 2.793E+00 2.891E-02 3.814E-02 1.955E-02 8.660E-02 2.879E+00 1.862E+04  8.9513 1.00000
  5.500E+04 5.511E+04 2.805E+00 3.239E-02 4.312E-02 2.155E-02 9.706E-02 2.902E+00 2.035E+04  9.1415 1.00000
  6.000E+04 6.011E+04 2.815E+00 3.592E-02 4.820E-02 2.353E-02 1.077E-01 2.923E+00 2.207E+04  9.3152 1.00000
  7.000E+04 7.011E+04 2.834E+00 4.312E-02 5.860E-02 2.746E-02 1.292E-01 2.963E+00 2.546E+04  9.6230 1.00000
  8.000E+04 8.011E+04 2.850E+00 5.048E-02 6.927E-02 3.141E-02 1.512E-01 3.001E+00 2.882E+04  9.8897 1.00000
  9.000E+04 9.011E+04 2.864E+00 5.797E-02 8.017E-02 3.536E-02 1.735E-01 3.038E+00 3.213E+04 10.1250 1.00000
  1.000E+05 1.001E+05 2.877E+00 6.558E-02 9.128E-02 3.925E-02 1.961E-01 3.073E+00 3.540E+04 10.3354 1.00000
  1.200E+05 1.201E+05 2.898E+00 8.109E-02 1.140E-01 4.716E-02 2.422E-01 3.141E+00 4.184E+04 10.6997 1.00000
  1.400E+05 1.401E+05 2.916E+00 9.696E-02 1.372E-01 5.509E-02 2.893E-01 3.206E+00 4.814E+04 11.0078 1.00000
  1.700E+05 1.701E+05 2.939E+00 1.213E-01 1.729E-01 6.701E-02 3.612E-01 3.300E+00 5.737E+04 11.3958 1.00000
  2.000E+05 2.001E+05 2.958E+00 1.461E-01 2.094E-01 7.900E-02 4.345E-01 3.393E+00 6.633E+04 11.7207 1.00000
  2.500E+05 2.501E+05 2.984E+00 1.883E-01 2.715E-01 9.908E-02 5.589E-01 3.543E+00 8.076E+04 12.1668 1.00000
  3.000E+05 3.001E+05 3.005E+00 2.315E-01 3.347E-01 1.193E-01 6.856E-01 3.691E+00 9.459E+04 12.5313 1.00000
  3.500E+05 3.501E+05 3.023E+00 2.754E-01 3.989E-01 1.398E-01 8.141E-01 3.837E+00 1.079E+05 12.8395 1.00000
  4.000E+05 4.001E+05 3.038E+00 3.198E-01 4.639E-01 1.605E-01 9.441E-01 3.983E+00 1.207E+05 13.1064 1.00000
  4.500E+05 4.501E+05 3.052E+00 3.647E-01 5.294E-01 1.812E-01 1.075E+00 4.127E+00 1.330E+05 13.3420 1.00000
  5.000E+05 5.001E+05 3.064E+00 4.101E-01 5.955E-01 2.021E-01 1.208E+00 4.272E+00 1.449E+05 13.5526 1.00000
  5.500E+05 5.501E+05 3.076E+00 4.558E-01 6.619E-01 2.229E-01 1.341E+00 4.416E+00 1.564E+05 13.7432 1.00000
  6.000E+05 6.001E+05 3.086E+00 5.019E-01 7.288E-01 2.438E-01 1.474E+00 4.560E+00 1.676E+05 13.9172 1.00000
  7.000E+05 7.001E+05 3.104E+00 5.949E-01 8.633E-01 2.860E-01 1.744E+00 4.848E+00 1.889E+05 14.2255 1.00000
  8.000E+05 8.001E+05 3.119E+00 6.888E-01 9.989E-01 3.287E-01 2.016E+00 5.136E+00 2.089E+05 14.4925 1.00000
  9.000E+05 9.001E+05 3.133E+00 7.835E-01 1.135E+00 3.718E-01 2.291E+00 5.424E+00 2.279E+05 14.7280 1.00000
  1.000E+06 1.000E+06 3.146E+00 8.789E-01 1.272E+00 4.152E-01 2.566E+00 5.712E+00 2.458E+05 14.9387 1.00000
  1.200E+06 1.200E+06 3.168E+00 1.071E+00 1.548E+00 5.033E-01 3.123E+00 6.290E+00 2.792E+05 15.3033 1.00000
  1.400E+06 1.400E+06 3.186E+00 1.266E+00 1.825E+00 5.926E-01 3.684E+00 6.870E+00 3.097E+05 15.6116 1.00000
  1.700E+06 1.700E+06 3.209E+00 1.559E+00 2.244E+00 7.286E-01 4.532E+00 7.741E+00 3.509E+05 15.9999 1.00000
  2.000E+06 2.000E+06 3.229E+00 1.856E+00 2.664E+00 8.669E-01 5.387E+00 8.616E+00 3.877E+05 16.3249 1.00000
  2.500E+06 2.500E+06 3.256E+00 2.354E+00 3.369E+00 1.102E+00 6.824E+00 1.008E+01 4.415E+05 16.7712 1.00000
  3.000E+06 3.000E+06 3.279E+00 2.856E+00 4.076E+00 1.341E+00 8.273E+00 1.155E+01 4.879E+05 17.1358 1.00000
  3.500E+06 3.500E+06 3.298E+00 3.362E+00 4.785E+00 1.584E+00 9.731E+00 1.303E+01 5.288E+05 17.4441 1.00000
  4.000E+06 4.000E+06 3.314E+00 3.869E+00 5.496E+00 1.831E+00 1.120E+01 1.451E+01 5.652E+05 17.7111 1.00000
  4.500E+06 4.500E+06 3.329E+00 4.379E+00 6.208E+00 2.081E+00 1.267E+01 1.600E+01 5.980E+05 17.9467 1.00000
  5.000E+06 5.000E+06 3.342E+00 4.890E+00 6.921E+00 2.333E+00 1.414E+01 1.749E+01 6.280E+05 18.1574 1.00000
  5.500E+06 5.500E+06 3.355E+00 5.402E+00 7.635E+00 2.589E+00 1.563E+01 1.898E+01 6.554E+05 18.3480 1.00000
  6.000E+06 6.000E+06 3.366E+00 5.915E+00 8.350E+00 2.846E+00 1.711E+01 2.048E+01 6.808E+05 18.5221 1.00000
  7.000E+06 7.000E+06 3.385E+00 6.945E+00 9.781E+00 3.368E+00 2.009E+01 2.348E+01 7.265E+05 18.8303 1.00000
  8.000E+06 8.000E+06 3.402E+00 7.978E+00 1.121E+01 3.898E+00 2.309E+01 2.649E+01 7.667E+05 19.0974 1.00000
  9.000E+06 9.000E+06 3.418E+00 9.014E+00 1.265E+01 4.434E+00 2.610E+01 2.951E+01 8.025E+05 19.3330 1.00000
  1.000E+07 1.000E+07 3.431E+00 1.005E+01 1.408E+01 4.977E+00 2.911E+01 3.254E+01 8.348E+05 19.5437 1.00000
  1.200E+07 1.200E+07 3.455E+00 1.213E+01 1.696E+01 6.079E+00 3.517E+01 3.862E+01 8.914E+05 19.9083 1.00000
  1.400E+07 1.400E+07 3.475E+00 1.422E+01 1.984E+01 7.202E+00 4.125E+01 4.473E+01 9.397E+05 20.2166 1.00000
  1.700E+07 1.700E+07 3.501E+00 1.735E+01 2.415E+01 8.917E+00 5.042E+01 5.392E+01 1.001E+06 20.6049 1.00000
  2.000E+07 2.000E+07 3.523E+00 2.049E+01 2.848E+01 1.067E+01 5.963E+01 6.316E+01 1.053E+06 20.9300 1.00000
  2.500E+07 2.500E+07 3.553E+00 2.574E+01 3.568E+01 1.364E+01 7.506E+01 7.861E+01 1.124E+06 21.3763 1.00000
  3.000E+07 3.000E+07 3.578E+00 3.099E+01 4.290E+01 1.668E+01 9.057E+01 9.415E+01 1.182E+06 21.7409 1.00000
  3.500E+07 3.500E+07 3.599E+00 3.625E+01 5.011E+01 1.978E+01 1.061E+02 1.097E+02 1.232E+06 22.0492 1.00000
  4.000E+07 4.000E+07 3.617E+00 4.152E+01 5.733E+01 2.293E+01 1.218E+02 1.254E+02 1.274E+06 22.3163 1.00000
  4.500E+07 4.500E+07 3.634E+00 4.679E+01 6.455E+01 2.612E+01 1.375E+02 1.411E+02 1.312E+06 22.5518 1.00000
  5.000E+07 5.000E+07 3.648E+00 5.206E+01 7.176E+01 2.935E+01 1.532E+02 1.568E+02 1.346E+06 22.7625 1.00000
  5.500E+07 5.500E+07 3.662E+00 5.733E+01 7.899E+01 3.262E+01 1.689E+02 1.726E+02 1.376E+06 22.9532 1.00000
  6.000E+07 6.000E+07 3.674E+00 6.261E+01 8.621E+01 3.592E+01 1.847E+02 1.884E+02 1.404E+06 23.1272 1.00000
  7.000E+07 7.000E+07 3.696E+00 7.317E+01 1.007E+02 4.261E+01 2.164E+02 2.201E+02 1.453E+06 23.4355 1.00000
  8.000E+07 8.000E+07 3.715E+00 8.373E+01 1.151E+02 4.941E+01 2.482E+02 2.520E+02 1.496E+06 23.7026 1.00000
  9.000E+07 9.000E+07 3.732E+00 9.430E+01 1.295E+02 5.631E+01 2.802E+02 2.839E+02 1.533E+06 23.9381 1.00000
  1.000E+08 1.000E+08 3.747E+00 1.049E+02 1.440E+02 6.329E+01 3.122E+02 3.159E+02 1.567E+06 24.1488 1.00000
  1.200E+08 1.200E+08 3.774E+00 1.260E+02 1.729E+02 7.749E+01 3.764E+02 3.802E+02 1.625E+06 24.5135 1.00000
  1.400E+08 1.400E+08 3.796E+00 1.472E+02 2.018E+02 9.196E+01 4.410E+02 4.448E+02 1.673E+06 24.8218 1.00000
  1.700E+08 1.700E+08 3.825E+00 1.789E+02 2.452E+02 1.141E+02 5.382E+02 5.420E+02 1.735E+06 25.2101 1.00000
  2.000E+08 2.000E+08 3.849E+00 2.107E+02 2.885E+02 1.367E+02 6.359E+02 6.398E+02 1.786E+06 25.5351 1.00000
  2.500E+08 2.500E+08 3.883E+00 2.637E+02 3.608E+02 1.752E+02 7.997E+02 8.036E+02 1.856E+06 25.9814 1.00000
  3.000E+08 3.000E+08 3.911E+00 3.166E+02 4.331E+02 2.146E+02 9.644E+02 9.683E+02 1.913E+06 26.3461 1.00000
  3.500E+08 3.500E+08 3.934E+00 3.696E+02 5.054E+02 2.548E+02 1.130E+03 1.134E+03 1.961E+06 26.6544 1.00000
  4.000E+08 4.000E+08 3.955E+00 4.226E+02 5.777E+02 2.957E+02 1.296E+03 1.300E+03 2.002E+06 26.9214 1.00000
  4.500E+08 4.500E+08 3.973E+00 4.756E+02 6.499E+02 3.372E+02 1.463E+03 1.467E+03 2.038E+06 27.1570 1.00000
  5.000E+08 5.000E+08 3.989E+00 5.285E+02 7.222E+02 3.792E+02 1.630E+03 1.634E+03 2.071E+06 27.3677 1.00000
  5.500E+08 5.500E+08 4.004E+00 5.815E+02 7.945E+02 4.217E+02 1.798E+03 1.802E+03 2.100E+06 27.5583 1.00000
  6.000E+08 6.000E+08 4.018E+00 6.345E+02 8.668E+02 4.646E+02 1.966E+03 1.970E+03 2.127E+06 27.7324 1.00000
  7.000E+08 7.000E+08 4.043E+00 7.405E+02 1.011E+03 5.518E+02 2.304E+03 2.308E+03 2.174E+06 28.0407 1.00000
  8.000E+08 8.000E+08 4.064E+00 8.465E+02 1.156E+03 6.404E+02 2.643E+03 2.647E+03 2.214E+06 28.3077 1.00000
  9.000E+08 9.000E+08 4.083E+00 9.525E+02 1.300E+03 7.304E+02 2.983E+03 2.987E+03 2.250E+06 28.5433 1.00000
  1.000E+09 1.000E+09 4.100E+00 1.059E+03 1.445E+03 8.216E+02 3.325E+03 3.329E+03 2.281E+06 28.7540 1.00000
