 Incident particle is a Muon with M = 105.65839 MeV
 Index = 0: Dubnium
      Absorber with <Z/A> = 0.39161
 Sternheimer coef:  a     k=m_s   x_0    x_1    I[eV]   Cbar  delta0
                 0.2711  3.0000  0.6224  3.0000 1061.0  6.5105 0.00

 *** Table generated with PUMAS v1.00 ***

      T         p     Ionization  brems     pair     photonuc  Radloss    dE/dx   CSDA Range  delta   beta
    [MeV]    [MeV/c]  -----------------------[MeV cm^2/g]------------------------  [g/cm^2]
  1.000E+00 1.457E+01 1.859E+01 6.909E-06 0.000E+00 0.000E+00 6.909E-06 1.859E+01 2.690E-02  0.0000 0.13661
  1.200E+00 1.597E+01 1.650E+01 7.930E-06 0.000E+00 0.000E+00 7.930E-06 1.650E+01 3.834E-02  0.0000 0.14944
  1.400E+00 1.726E+01 1.488E+01 8.895E-06 0.000E+00 0.000E+00 8.895E-06 1.488E+01 5.112E-02  0.0000 0.16119
  1.700E+00 1.903E+01 1.303E+01 1.026E-05 0.000E+00 0.000E+00 1.026E-05 1.303E+01 7.271E-02  0.0000 0.17725
  2.000E+00 2.066E+01 1.164E+01 1.153E-05 0.000E+00 0.000E+00 1.153E-05 1.164E+01 9.710E-02  0.0000 0.19186
  2.500E+00 2.312E+01 9.950E+00 1.351E-05 0.000E+00 0.000E+00 1.351E-05 9.950E+00 1.437E-01  0.0000 0.21376
  3.000E+00 2.536E+01 8.737E+00 1.533E-05 0.000E+00 0.000E+00 1.533E-05 8.737E+00 1.974E-01  0.0000 0.23336
  3.500E+00 2.742E+01 7.822E+00 1.702E-05 0.000E+00 0.000E+00 1.702E-05 7.822E+00 2.580E-01  0.0000 0.25120
  4.000E+00 2.935E+01 7.105E+00 1.861E-05 0.000E+00 0.000E+00 1.861E-05 7.105E+00 3.252E-01  0.0000 0.26763
  4.500E+00 3.116E+01 6.526E+00 2.011E-05 0.000E+00 0.000E+00 2.011E-05 6.526E+00 3.987E-01  0.0000 0.28290
  5.000E+00 3.289E+01 6.049E+00 2.153E-05 0.000E+00 0.000E+00 2.153E-05 6.049E+00 4.783E-01  0.0000 0.29720
  5.500E+00 3.453E+01 5.647E+00 2.289E-05 0.000E+00 0.000E+00 2.289E-05 5.647E+00 5.639E-01  0.0000 0.31066
  6.000E+00 3.611E+01 5.305E+00 2.419E-05 0.000E+00 0.000E+00 2.419E-05 5.305E+00 6.553E-01  0.0000 0.32339
  7.000E+00 3.909E+01 4.750E+00 2.665E-05 0.000E+00 0.000E+00 2.665E-05 4.750E+00 8.548E-01  0.0000 0.34700
  8.000E+00 4.189E+01 4.320E+00 2.893E-05 0.000E+00 0.000E+00 2.893E-05 4.320E+00 1.076E+00  0.0000 0.36854
  9.000E+00 4.453E+01 3.975E+00 3.107E-05 0.000E+00 0.000E+00 3.107E-05 3.975E+00 1.317E+00  0.0000 0.38836
  1.000E+01 4.704E+01 3.693E+00 3.310E-05 0.000E+00 0.000E+00 3.310E-05 3.693E+00 1.578E+00  0.0000 0.40675
  1.200E+01 5.177E+01 3.258E+00 3.687E-05 0.000E+00 0.000E+00 3.687E-05 3.258E+00 2.156E+00  0.0000 0.43998
  1.400E+01 5.616E+01 2.937E+00 4.035E-05 0.000E+00 0.000E+00 4.035E-05 2.937E+00 2.804E+00  0.0000 0.46937
  1.700E+01 6.230E+01 2.587E+00 4.516E-05 0.000E+00 0.000E+00 4.516E-05 2.587E+00 3.894E+00  0.0000 0.50792
  2.000E+01 6.802E+01 2.336E+00 4.961E-05 0.000E+00 0.000E+00 4.961E-05 2.336E+00 5.116E+00  0.0000 0.54129
  2.500E+01 7.686E+01 2.044E+00 5.650E-05 0.000E+00 0.000E+00 5.650E-05 2.044E+00 7.410E+00  0.0000 0.58827
  3.000E+01 8.509E+01 1.846E+00 6.295E-05 0.000E+00 0.000E+00 6.295E-05 1.846E+00 9.987E+00  0.0000 0.62720
  3.500E+01 9.285E+01 1.703E+00 6.914E-05 0.000E+00 0.000E+00 6.914E-05 1.703E+00 1.281E+01  0.0000 0.66011
  4.000E+01 1.003E+02 1.595E+00 7.516E-05 0.000E+00 0.000E+00 7.516E-05 1.595E+00 1.585E+01  0.0000 0.68834
  4.500E+01 1.074E+02 1.512E+00 8.108E-05 0.000E+00 0.000E+00 8.108E-05 1.512E+00 1.907E+01  0.0000 0.71286
  5.000E+01 1.143E+02 1.445E+00 8.695E-05 0.000E+00 0.000E+00 8.695E-05 1.446E+00 2.245E+01  0.0000 0.73434
  5.500E+01 1.210E+02 1.392E+00 9.280E-05 0.000E+00 0.000E+00 9.280E-05 1.392E+00 2.597E+01  0.0000 0.75332
  6.000E+01 1.276E+02 1.348E+00 9.866E-05 0.000E+00 0.000E+00 9.866E-05 1.348E+00 2.963E+01  0.0000 0.77019
  7.000E+01 1.403E+02 1.280E+00 1.104E-04 0.000E+00 0.000E+00 1.104E-04 1.280E+00 3.724E+01  0.0000 0.79887
  8.000E+01 1.527E+02 1.231E+00 1.224E-04 0.000E+00 0.000E+00 1.224E-04 1.231E+00 4.521E+01  0.0000 0.82227
  9.000E+01 1.647E+02 1.195E+00 1.345E-04 0.000E+00 0.000E+00 1.345E-04 1.196E+00 5.345E+01  0.0000 0.84166
  1.000E+02 1.764E+02 1.168E+00 1.470E-04 0.000E+00 0.000E+00 1.470E-04 1.169E+00 6.191E+01  0.0000 0.85794
  1.200E+02 1.994E+02 1.132E+00 1.726E-04 0.000E+00 0.000E+00 1.726E-04 1.132E+00 7.930E+01  0.0000 0.88361
  1.400E+02 2.218E+02 1.111E+00 1.992E-04 0.000E+00 0.000E+00 1.992E-04 1.111E+00 9.713E+01  0.0000 0.90278
  1.700E+02 2.546E+02 1.095E+00 2.413E-04 0.000E+00 0.000E+00 2.413E-04 1.095E+00 1.243E+02  0.0000 0.92363
  2.000E+02 2.868E+02 1.089E+00 2.858E-04 0.000E+00 0.000E+00 2.858E-04 1.090E+00 1.518E+02  0.0000 0.93835
  2.500E+02 3.396E+02 1.092E+00 3.648E-04 0.000E+00 0.000E+00 3.648E-04 1.093E+00 1.976E+02  0.0000 0.95485
  3.000E+02 3.917E+02 1.103E+00 4.495E-04 0.000E+00 0.000E+00 4.495E-04 1.103E+00 2.432E+02  0.0000 0.96548
  3.500E+02 4.432E+02 1.116E+00 5.395E-04 0.000E+00 0.000E+00 5.395E-04 1.116E+00 2.882E+02 -0.0005 0.97274
  4.000E+02 4.945E+02 1.130E+00 6.344E-04 0.000E+00 0.000E+00 6.344E-04 1.130E+00 3.327E+02  0.0042 0.97793
  4.500E+02 5.455E+02 1.144E+00 7.337E-04 0.000E+00 0.000E+00 7.337E-04 1.144E+00 3.767E+02  0.0158 0.98176
  5.000E+02 5.964E+02 1.157E+00 8.372E-04 0.000E+00 0.000E+00 8.372E-04 1.158E+00 4.201E+02  0.0322 0.98467
  5.500E+02 6.471E+02 1.170E+00 9.445E-04 1.254E-04 0.000E+00 1.070E-03 1.171E+00 4.631E+02  0.0520 0.98693
  6.000E+02 6.977E+02 1.183E+00 1.056E-03 1.814E-04 0.000E+00 1.237E-03 1.184E+00 5.055E+02  0.0742 0.98873
  7.000E+02 7.987E+02 1.205E+00 1.288E-03 2.918E-04 0.000E+00 1.580E-03 1.207E+00 5.892E+02  0.1237 0.99136
  8.000E+02 8.995E+02 1.226E+00 1.532E-03 4.221E-04 0.000E+00 1.955E-03 1.228E+00 6.713E+02  0.1770 0.99317
  9.000E+02 1.000E+03 1.245E+00 1.788E-03 5.726E-04 0.000E+00 2.361E-03 1.247E+00 7.521E+02  0.2321 0.99447
  1.000E+03 1.101E+03 1.262E+00 2.055E-03 7.422E-04 0.000E+00 2.797E-03 1.265E+00 8.318E+02  0.2879 0.99542
  1.200E+03 1.301E+03 1.292E+00 2.615E-03 1.134E-03 2.244E-05 3.771E-03 1.295E+00 9.881E+02  0.3989 0.99672
  1.400E+03 1.502E+03 1.317E+00 3.208E-03 1.591E-03 6.074E-05 4.859E-03 1.322E+00 1.141E+03  0.5070 0.99753
  1.700E+03 1.803E+03 1.349E+00 4.152E-03 2.382E-03 1.284E-04 6.662E-03 1.355E+00 1.365E+03  0.6613 0.99829
  2.000E+03 2.103E+03 1.375E+00 5.151E-03 3.287E-03 2.067E-04 8.645E-03 1.384E+00 1.584E+03  0.8057 0.99874
  2.500E+03 2.604E+03 1.411E+00 6.921E-03 5.013E-03 3.559E-04 1.229E-02 1.423E+00 1.941E+03  1.0262 0.99918
  3.000E+03 3.104E+03 1.439E+00 8.802E-03 6.972E-03 5.098E-04 1.628E-02 1.455E+00 2.288E+03  1.2247 0.99942
  3.500E+03 3.604E+03 1.462E+00 1.078E-02 9.131E-03 6.707E-04 2.058E-02 1.483E+00 2.628E+03  1.4048 0.99957
  4.000E+03 4.104E+03 1.482E+00 1.283E-02 1.147E-02 8.410E-04 2.515E-02 1.507E+00 2.963E+03  1.5697 0.99967
  4.500E+03 4.604E+03 1.499E+00 1.496E-02 1.397E-02 1.017E-03 2.995E-02 1.529E+00 3.292E+03  1.7217 0.99974
  5.000E+03 5.105E+03 1.515E+00 1.715E-02 1.662E-02 1.184E-03 3.495E-02 1.549E+00 3.617E+03  1.8627 0.99979
  5.500E+03 5.605E+03 1.528E+00 1.940E-02 1.938E-02 1.364E-03 4.015E-02 1.568E+00 3.938E+03  1.9942 0.99982
  6.000E+03 6.105E+03 1.540E+00 2.170E-02 2.226E-02 1.531E-03 4.550E-02 1.585E+00 4.255E+03  2.1174 0.99985
  7.000E+03 7.105E+03 1.561E+00 2.645E-02 2.834E-02 1.883E-03 5.667E-02 1.617E+00 4.879E+03  2.3430 0.99989
  8.000E+03 8.105E+03 1.578E+00 3.137E-02 3.477E-02 2.230E-03 6.837E-02 1.646E+00 5.492E+03  2.5455 0.99992
  9.000E+03 9.105E+03 1.593E+00 3.643E-02 4.152E-02 2.555E-03 8.050E-02 1.674E+00 6.095E+03  2.7294 0.99993
  1.000E+04 1.011E+04 1.606E+00 4.162E-02 4.854E-02 2.888E-03 9.305E-02 1.699E+00 6.688E+03  2.8978 0.99995
  1.200E+04 1.211E+04 1.628E+00 5.233E-02 6.332E-02 3.561E-03 1.192E-01 1.747E+00 7.848E+03  3.1977 0.99996
  1.400E+04 1.411E+04 1.646E+00 6.344E-02 7.891E-02 4.230E-03 1.466E-01 1.793E+00 8.979E+03  3.4590 0.99997
  1.700E+04 1.711E+04 1.668E+00 8.070E-02 1.035E-01 5.216E-03 1.895E-01 1.857E+00 1.062E+04  3.7974 0.99998
  2.000E+04 2.011E+04 1.685E+00 9.857E-02 1.294E-01 6.177E-03 2.342E-01 1.919E+00 1.221E+04  4.0880 0.99999
  2.500E+04 2.511E+04 1.708E+00 1.294E-01 1.747E-01 7.746E-03 3.119E-01 2.020E+00 1.475E+04  4.4967 0.99999
  3.000E+04 3.011E+04 1.726E+00 1.614E-01 2.222E-01 9.277E-03 3.929E-01 2.119E+00 1.717E+04  4.8379 0.99999
  3.500E+04 3.511E+04 1.741E+00 1.943E-01 2.713E-01 1.082E-02 4.764E-01 2.217E+00 1.948E+04  5.1310 1.00000
  4.000E+04 4.011E+04 1.753E+00 2.279E-01 3.219E-01 1.233E-02 5.621E-01 2.315E+00 2.168E+04  5.3878 1.00000
  4.500E+04 4.511E+04 1.764E+00 2.622E-01 3.736E-01 1.383E-02 6.496E-01 2.413E+00 2.380E+04  5.6163 1.00000
  5.000E+04 5.011E+04 1.773E+00 2.970E-01 4.264E-01 1.531E-02 7.387E-01 2.512E+00 2.583E+04  5.8221 1.00000
  5.500E+04 5.511E+04 1.782E+00 3.324E-01 4.799E-01 1.681E-02 8.291E-01 2.611E+00 2.778E+04  6.0092 1.00000
  6.000E+04 6.011E+04 1.789E+00 3.682E-01 5.343E-01 1.829E-02 9.207E-01 2.710E+00 2.966E+04  6.1808 1.00000
  7.000E+04 7.011E+04 1.802E+00 4.410E-01 6.449E-01 2.121E-02 1.107E+00 2.909E+00 3.323E+04  6.4861 1.00000
  8.000E+04 8.011E+04 1.813E+00 5.151E-01 7.576E-01 2.414E-02 1.297E+00 3.110E+00 3.655E+04  6.7518 1.00000
  9.000E+04 9.011E+04 1.823E+00 5.904E-01 8.721E-01 2.706E-02 1.490E+00 3.313E+00 3.967E+04  6.9866 1.00000
  1.000E+05 1.001E+05 1.832E+00 6.666E-01 9.881E-01 2.992E-02 1.685E+00 3.517E+00 4.260E+04  7.1970 1.00000
  1.200E+05 1.201E+05 1.847E+00 8.217E-01 1.224E+00 3.573E-02 2.081E+00 3.928E+00 4.799E+04  7.5613 1.00000
  1.400E+05 1.401E+05 1.859E+00 9.795E-01 1.463E+00 4.153E-02 2.484E+00 4.344E+00 5.284E+04  7.8694 1.00000
  1.700E+05 1.701E+05 1.875E+00 1.220E+00 1.828E+00 5.022E-02 3.099E+00 4.974E+00 5.931E+04  8.2574 1.00000
  2.000E+05 2.001E+05 1.888E+00 1.465E+00 2.198E+00 5.894E-02 3.722E+00 5.610E+00 6.500E+04  8.5823 1.00000
  2.500E+05 2.501E+05 1.906E+00 1.880E+00 2.823E+00 7.349E-02 4.777E+00 6.683E+00 7.320E+04  9.0284 1.00000
  3.000E+05 3.001E+05 1.920E+00 2.302E+00 3.456E+00 8.812E-02 5.846E+00 7.767E+00 8.016E+04  9.3929 1.00000
  3.500E+05 3.501E+05 1.933E+00 2.729E+00 4.094E+00 1.029E-01 6.926E+00 8.859E+00 8.620E+04  9.7011 1.00000
  4.000E+05 4.001E+05 1.944E+00 3.161E+00 4.737E+00 1.178E-01 8.015E+00 9.958E+00 9.153E+04  9.9680 1.00000
  4.500E+05 4.501E+05 1.953E+00 3.595E+00 5.383E+00 1.327E-01 9.111E+00 1.106E+01 9.630E+04 10.2036 1.00000
  5.000E+05 5.001E+05 1.961E+00 4.033E+00 6.032E+00 1.477E-01 1.021E+01 1.217E+01 1.006E+05 10.4142 1.00000
  5.500E+05 5.501E+05 1.969E+00 4.473E+00 6.683E+00 1.626E-01 1.132E+01 1.329E+01 1.045E+05 10.6048 1.00000
  6.000E+05 6.001E+05 1.976E+00 4.915E+00 7.337E+00 1.776E-01 1.243E+01 1.441E+01 1.082E+05 10.7788 1.00000
  7.000E+05 7.001E+05 1.989E+00 5.805E+00 8.649E+00 2.078E-01 1.466E+01 1.665E+01 1.146E+05 11.0871 1.00000
  8.000E+05 8.001E+05 2.000E+00 6.702E+00 9.966E+00 2.383E-01 1.691E+01 1.891E+01 1.203E+05 11.3541 1.00000
  9.000E+05 9.001E+05 2.009E+00 7.603E+00 1.129E+01 2.691E-01 1.916E+01 2.117E+01 1.253E+05 11.5896 1.00000
  1.000E+06 1.000E+06 2.018E+00 8.508E+00 1.261E+01 3.001E-01 2.142E+01 2.344E+01 1.298E+05 11.8003 1.00000
  1.200E+06 1.200E+06 2.033E+00 1.033E+01 1.527E+01 3.630E-01 2.596E+01 2.800E+01 1.376E+05 12.1649 1.00000
  1.400E+06 1.400E+06 2.046E+00 1.216E+01 1.794E+01 4.267E-01 3.053E+01 3.257E+01 1.443E+05 12.4732 1.00000
  1.700E+06 1.700E+06 2.062E+00 1.492E+01 2.195E+01 5.237E-01 3.740E+01 3.946E+01 1.527E+05 12.8615 1.00000
  2.000E+06 2.000E+06 2.075E+00 1.770E+01 2.597E+01 6.222E-01 4.430E+01 4.637E+01 1.597E+05 13.1865 1.00000
  2.500E+06 2.500E+06 2.094E+00 2.235E+01 3.270E+01 7.894E-01 5.584E+01 5.793E+01 1.694E+05 13.6328 1.00000
  3.000E+06 3.000E+06 2.110E+00 2.702E+01 3.943E+01 9.598E-01 6.742E+01 6.953E+01 1.773E+05 13.9974 1.00000
  3.500E+06 3.500E+06 2.123E+00 3.171E+01 4.618E+01 1.133E+00 7.902E+01 8.114E+01 1.840E+05 14.3057 1.00000
  4.000E+06 4.000E+06 2.134E+00 3.641E+01 5.293E+01 1.308E+00 9.065E+01 9.278E+01 1.898E+05 14.5727 1.00000
  4.500E+06 4.500E+06 2.145E+00 4.112E+01 5.969E+01 1.486E+00 1.023E+02 1.044E+02 1.949E+05 14.8083 1.00000
  5.000E+06 5.000E+06 2.154E+00 4.583E+01 6.646E+01 1.666E+00 1.140E+02 1.161E+02 1.994E+05 15.0190 1.00000
  5.500E+06 5.500E+06 2.162E+00 5.055E+01 7.323E+01 1.847E+00 1.256E+02 1.278E+02 2.035E+05 15.2096 1.00000
  6.000E+06 6.000E+06 2.170E+00 5.528E+01 8.000E+01 2.031E+00 1.373E+02 1.395E+02 2.073E+05 15.3837 1.00000
  7.000E+06 7.000E+06 2.183E+00 6.474E+01 9.356E+01 2.402E+00 1.607E+02 1.629E+02 2.139E+05 15.6919 1.00000
  8.000E+06 8.000E+06 2.195E+00 7.422E+01 1.071E+02 2.778E+00 1.841E+02 1.863E+02 2.197E+05 15.9590 1.00000
  9.000E+06 9.000E+06 2.206E+00 8.371E+01 1.207E+02 3.159E+00 2.076E+02 2.098E+02 2.247E+05 16.1946 1.00000
  1.000E+07 1.000E+07 2.215E+00 9.321E+01 1.343E+02 3.545E+00 2.310E+02 2.332E+02 2.293E+05 16.4053 1.00000
  1.200E+07 1.200E+07 2.232E+00 1.122E+02 1.614E+02 4.328E+00 2.780E+02 2.802E+02 2.371E+05 16.7699 1.00000
  1.400E+07 1.400E+07 2.246E+00 1.313E+02 1.886E+02 5.126E+00 3.250E+02 3.272E+02 2.438E+05 17.0782 1.00000
  1.700E+07 1.700E+07 2.263E+00 1.599E+02 2.294E+02 6.344E+00 3.956E+02 3.978E+02 2.521E+05 17.4665 1.00000
  2.000E+07 2.000E+07 2.278E+00 1.885E+02 2.702E+02 7.586E+00 4.662E+02 4.685E+02 2.591E+05 17.7916 1.00000
  2.500E+07 2.500E+07 2.299E+00 2.362E+02 3.382E+02 9.700E+00 5.841E+02 5.864E+02 2.687E+05 18.2379 1.00000
  3.000E+07 3.000E+07 2.316E+00 2.840E+02 4.062E+02 1.186E+01 7.020E+02 7.043E+02 2.765E+05 18.6025 1.00000
  3.500E+07 3.500E+07 2.331E+00 3.317E+02 4.742E+02 1.406E+01 8.200E+02 8.224E+02 2.831E+05 18.9108 1.00000
  4.000E+07 4.000E+07 2.344E+00 3.795E+02 5.423E+02 1.630E+01 9.381E+02 9.404E+02 2.888E+05 19.1779 1.00000
  4.500E+07 4.500E+07 2.355E+00 4.273E+02 6.103E+02 1.856E+01 1.056E+03 1.059E+03 2.938E+05 19.4134 1.00000
  5.000E+07 5.000E+07 2.365E+00 4.752E+02 6.784E+02 2.086E+01 1.174E+03 1.177E+03 2.983E+05 19.6241 1.00000
  5.500E+07 5.500E+07 2.374E+00 5.230E+02 7.465E+02 2.318E+01 1.293E+03 1.295E+03 3.023E+05 19.8148 1.00000
  6.000E+07 6.000E+07 2.383E+00 5.708E+02 8.145E+02 2.552E+01 1.411E+03 1.413E+03 3.060E+05 19.9888 1.00000
  7.000E+07 7.000E+07 2.398E+00 6.665E+02 9.507E+02 3.028E+01 1.647E+03 1.650E+03 3.126E+05 20.2971 1.00000
  8.000E+07 8.000E+07 2.411E+00 7.623E+02 1.087E+03 3.511E+01 1.884E+03 1.887E+03 3.183E+05 20.5642 1.00000
  9.000E+07 9.000E+07 2.423E+00 8.580E+02 1.223E+03 4.000E+01 2.121E+03 2.123E+03 3.233E+05 20.7997 1.00000
  1.000E+08 1.000E+08 2.433E+00 9.537E+02 1.359E+03 4.496E+01 2.358E+03 2.360E+03 3.278E+05 21.0104 1.00000
  1.200E+08 1.200E+08 2.452E+00 1.145E+03 1.631E+03 5.505E+01 2.832E+03 2.834E+03 3.355E+05 21.3751 1.00000
  1.400E+08 1.400E+08 2.467E+00 1.337E+03 1.904E+03 6.532E+01 3.306E+03 3.308E+03 3.421E+05 21.6834 1.00000
  1.700E+08 1.700E+08 2.487E+00 1.624E+03 2.312E+03 8.105E+01 4.017E+03 4.020E+03 3.504E+05 22.0717 1.00000
  2.000E+08 2.000E+08 2.504E+00 1.911E+03 2.721E+03 9.710E+01 4.729E+03 4.732E+03 3.573E+05 22.3967 1.00000
  2.500E+08 2.500E+08 2.527E+00 2.390E+03 3.402E+03 1.245E+02 5.917E+03 5.919E+03 3.668E+05 22.8430 1.00000
  3.000E+08 3.000E+08 2.546E+00 2.869E+03 4.083E+03 1.525E+02 7.104E+03 7.107E+03 3.745E+05 23.2077 1.00000
  3.500E+08 3.500E+08 2.563E+00 3.348E+03 4.763E+03 1.810E+02 8.293E+03 8.295E+03 3.810E+05 23.5160 1.00000
  4.000E+08 4.000E+08 2.577E+00 3.827E+03 5.444E+03 2.100E+02 9.482E+03 9.484E+03 3.867E+05 23.7830 1.00000
  4.500E+08 4.500E+08 2.590E+00 4.306E+03 6.125E+03 2.395E+02 1.067E+04 1.067E+04 3.917E+05 24.0186 1.00000
  5.000E+08 5.000E+08 2.601E+00 4.785E+03 6.806E+03 2.693E+02 1.186E+04 1.186E+04 3.961E+05 24.2293 1.00000
  5.500E+08 5.500E+08 2.611E+00 5.264E+03 7.487E+03 2.995E+02 1.305E+04 1.305E+04 4.001E+05 24.4199 1.00000
  6.000E+08 6.000E+08 2.621E+00 5.743E+03 8.168E+03 3.300E+02 1.424E+04 1.424E+04 4.038E+05 24.5940 1.00000
  7.000E+08 7.000E+08 2.638E+00 6.701E+03 9.529E+03 3.919E+02 1.662E+04 1.663E+04 4.103E+05 24.9023 1.00000
  8.000E+08 8.000E+08 2.652E+00 7.660E+03 1.089E+04 4.549E+02 1.901E+04 1.901E+04 4.160E+05 25.1693 1.00000
  9.000E+08 9.000E+08 2.665E+00 8.618E+03 1.225E+04 5.188E+02 2.139E+04 2.139E+04 4.209E+05 25.4049 1.00000
  1.000E+09 1.000E+09 2.677E+00 9.576E+03 1.361E+04 5.835E+02 2.377E+04 2.378E+04 4.254E+05 25.6156 1.00000
