 Incident particle is a Muon with M = 105.65839 MeV
 Index = 0: Erbium
      Absorber with <Z/A> = 0.40656
 Sternheimer coef:  a     k=m_s   x_0    x_1    I[eV]   Cbar  delta0
                 0.2482  2.5573  0.0658  3.4932  658.0  5.9565 0.14

 *** Table generated with PUMAS v1.00 ***

      T         p     Ionization  brems     pair     photonuc  Radloss    dE/dx   CSDA Range  delta   beta
    [MeV]    [MeV/c]  -----------------------[MeV cm^2/g]------------------------  [g/cm^2]
  1.000E+00 1.457E+01 2.248E+01 4.817E-06 0.000E+00 0.000E+00 4.817E-06 2.248E+01 2.224E-02  0.0020 0.13661
  1.200E+00 1.597E+01 1.979E+01 5.533E-06 0.000E+00 0.000E+00 5.533E-06 1.979E+01 3.174E-02  0.0024 0.14944
  1.400E+00 1.726E+01 1.774E+01 6.211E-06 0.000E+00 0.000E+00 6.211E-06 1.774E+01 4.243E-02  0.0028 0.16119
  1.700E+00 1.903E+01 1.542E+01 7.169E-06 0.000E+00 0.000E+00 7.169E-06 1.542E+01 6.061E-02  0.0034 0.17725
  2.000E+00 2.066E+01 1.370E+01 8.069E-06 0.000E+00 0.000E+00 8.069E-06 1.370E+01 8.128E-02  0.0040 0.19186
  2.500E+00 2.312E+01 1.163E+01 9.464E-06 0.000E+00 0.000E+00 9.464E-06 1.163E+01 1.210E-01  0.0050 0.21376
  3.000E+00 2.536E+01 1.016E+01 1.075E-05 0.000E+00 0.000E+00 1.075E-05 1.016E+01 1.671E-01  0.0060 0.23336
  3.500E+00 2.742E+01 9.059E+00 1.196E-05 0.000E+00 0.000E+00 1.196E-05 9.059E+00 2.193E-01  0.0070 0.25120
  4.000E+00 2.935E+01 8.202E+00 1.309E-05 0.000E+00 0.000E+00 1.309E-05 8.202E+00 2.774E-01  0.0080 0.26763
  4.500E+00 3.116E+01 7.514E+00 1.416E-05 0.000E+00 0.000E+00 1.416E-05 7.514E+00 3.412E-01  0.0090 0.28290
  5.000E+00 3.289E+01 6.948E+00 1.518E-05 0.000E+00 0.000E+00 1.518E-05 6.948E+00 4.104E-01  0.0100 0.29720
  5.500E+00 3.453E+01 6.474E+00 1.615E-05 0.000E+00 0.000E+00 1.615E-05 6.474E+00 4.850E-01  0.0110 0.31066
  6.000E+00 3.611E+01 6.070E+00 1.708E-05 0.000E+00 0.000E+00 1.708E-05 6.070E+00 5.648E-01  0.0121 0.32339
  7.000E+00 3.909E+01 5.419E+00 1.884E-05 0.000E+00 0.000E+00 1.884E-05 5.419E+00 7.395E-01  0.0142 0.34700
  8.000E+00 4.189E+01 4.916E+00 2.049E-05 0.000E+00 0.000E+00 2.049E-05 4.916E+00 9.334E-01  0.0163 0.36854
  9.000E+00 4.453E+01 4.515E+00 2.203E-05 0.000E+00 0.000E+00 2.203E-05 4.515E+00 1.146E+00  0.0184 0.38836
  1.000E+01 4.704E+01 4.187E+00 2.349E-05 0.000E+00 0.000E+00 2.349E-05 4.187E+00 1.376E+00  0.0205 0.40675
  1.200E+01 5.177E+01 3.682E+00 2.622E-05 0.000E+00 0.000E+00 2.622E-05 3.682E+00 1.886E+00  0.0248 0.43998
  1.400E+01 5.616E+01 3.312E+00 2.874E-05 0.000E+00 0.000E+00 2.874E-05 3.312E+00 2.460E+00  0.0292 0.46937
  1.700E+01 6.230E+01 2.908E+00 3.223E-05 0.000E+00 0.000E+00 3.223E-05 2.908E+00 3.429E+00  0.0360 0.50792
  2.000E+01 6.802E+01 2.619E+00 3.546E-05 0.000E+00 0.000E+00 3.546E-05 2.619E+00 4.517E+00  0.0429 0.54129
  2.500E+01 7.686E+01 2.284E+00 4.045E-05 0.000E+00 0.000E+00 4.045E-05 2.284E+00 6.566E+00  0.0547 0.58827
  3.000E+01 8.509E+01 2.057E+00 4.513E-05 0.000E+00 0.000E+00 4.513E-05 2.057E+00 8.876E+00  0.0671 0.62720
  3.500E+01 9.285E+01 1.893E+00 4.961E-05 0.000E+00 0.000E+00 4.961E-05 1.893E+00 1.141E+01  0.0799 0.66011
  4.000E+01 1.003E+02 1.770E+00 5.397E-05 0.000E+00 0.000E+00 5.397E-05 1.770E+00 1.414E+01  0.0931 0.68834
  4.500E+01 1.074E+02 1.674E+00 5.826E-05 0.000E+00 0.000E+00 5.826E-05 1.674E+00 1.705E+01  0.1068 0.71286
  5.000E+01 1.143E+02 1.597E+00 6.250E-05 0.000E+00 0.000E+00 6.250E-05 1.597E+00 2.011E+01  0.1210 0.73434
  5.500E+01 1.210E+02 1.535E+00 6.672E-05 0.000E+00 0.000E+00 6.672E-05 1.535E+00 2.330E+01  0.1357 0.75332
  6.000E+01 1.276E+02 1.484E+00 7.095E-05 0.000E+00 0.000E+00 7.095E-05 1.484E+00 2.662E+01  0.1439 0.77019
  7.000E+01 1.403E+02 1.407E+00 7.944E-05 0.000E+00 0.000E+00 7.944E-05 1.407E+00 3.354E+01  0.1585 0.79887
  8.000E+01 1.527E+02 1.350E+00 8.804E-05 0.000E+00 0.000E+00 8.804E-05 1.350E+00 4.080E+01  0.1743 0.82227
  9.000E+01 1.647E+02 1.308E+00 9.678E-05 0.000E+00 0.000E+00 9.678E-05 1.309E+00 4.832E+01  0.1907 0.84166
  1.000E+02 1.764E+02 1.276E+00 1.057E-04 0.000E+00 0.000E+00 1.057E-04 1.277E+00 5.606E+01  0.2074 0.85794
  1.200E+02 1.994E+02 1.233E+00 1.241E-04 0.000E+00 0.000E+00 1.241E-04 1.233E+00 7.200E+01  0.2413 0.88361
  1.400E+02 2.218E+02 1.205E+00 1.432E-04 0.000E+00 0.000E+00 1.432E-04 1.206E+00 8.841E+01  0.2751 0.90278
  1.700E+02 2.546E+02 1.183E+00 1.733E-04 0.000E+00 0.000E+00 1.733E-04 1.183E+00 1.135E+02  0.3250 0.92363
  2.000E+02 2.868E+02 1.172E+00 2.051E-04 0.000E+00 0.000E+00 2.051E-04 1.172E+00 1.390E+02  0.3734 0.93835
  2.500E+02 3.396E+02 1.169E+00 2.616E-04 0.000E+00 0.000E+00 2.616E-04 1.169E+00 1.817E+02  0.4505 0.95485
  3.000E+02 3.917E+02 1.174E+00 3.220E-04 0.000E+00 0.000E+00 3.220E-04 1.174E+00 2.244E+02  0.5233 0.96548
  3.500E+02 4.432E+02 1.182E+00 3.861E-04 0.000E+00 0.000E+00 3.861E-04 1.183E+00 2.668E+02  0.5919 0.97274
  4.000E+02 4.945E+02 1.193E+00 4.536E-04 0.000E+00 0.000E+00 4.536E-04 1.193E+00 3.089E+02  0.6570 0.97793
  4.500E+02 5.455E+02 1.204E+00 5.242E-04 3.588E-05 0.000E+00 5.601E-04 1.204E+00 3.506E+02  0.7187 0.98176
  5.000E+02 5.964E+02 1.215E+00 5.978E-04 6.705E-05 0.000E+00 6.648E-04 1.216E+00 3.920E+02  0.7775 0.98467
  5.500E+02 6.471E+02 1.226E+00 6.740E-04 9.485E-05 0.000E+00 7.688E-04 1.227E+00 4.329E+02  0.8336 0.98693
  6.000E+02 6.977E+02 1.237E+00 7.528E-04 1.260E-04 0.000E+00 8.787E-04 1.238E+00 4.735E+02  0.8873 0.98873
  7.000E+02 7.987E+02 1.257E+00 9.174E-04 1.997E-04 0.000E+00 1.117E-03 1.258E+00 5.536E+02  0.9883 0.99136
  8.000E+02 8.995E+02 1.276E+00 1.091E-03 2.881E-04 0.000E+00 1.379E-03 1.277E+00 6.325E+02  1.0818 0.99317
  9.000E+02 1.000E+03 1.293E+00 1.272E-03 3.902E-04 0.000E+00 1.662E-03 1.295E+00 7.103E+02  1.1691 0.99447
  1.000E+03 1.101E+03 1.309E+00 1.460E-03 5.052E-04 0.000E+00 1.965E-03 1.311E+00 7.870E+02  1.2509 0.99542
  1.200E+03 1.301E+03 1.338E+00 1.855E-03 7.709E-04 2.246E-05 2.649E-03 1.341E+00 9.378E+02  1.4009 0.99672
  1.400E+03 1.502E+03 1.362E+00 2.274E-03 1.080E-03 6.090E-05 3.415E-03 1.366E+00 1.086E+03  1.5359 0.99753
  1.700E+03 1.803E+03 1.394E+00 2.938E-03 1.616E-03 1.290E-04 4.684E-03 1.399E+00 1.303E+03  1.7167 0.99829
  2.000E+03 2.103E+03 1.420E+00 3.641E-03 2.229E-03 2.081E-04 6.079E-03 1.426E+00 1.515E+03  1.8771 0.99874
  2.500E+03 2.604E+03 1.456E+00 4.885E-03 3.398E-03 3.591E-04 8.642E-03 1.465E+00 1.861E+03  2.1105 0.99918
  3.000E+03 3.104E+03 1.486E+00 6.205E-03 4.726E-03 5.153E-04 1.145E-02 1.497E+00 2.199E+03  2.3123 0.99942
  3.500E+03 3.604E+03 1.510E+00 7.589E-03 6.188E-03 6.791E-04 1.446E-02 1.525E+00 2.530E+03  2.4906 0.99957
  4.000E+03 4.104E+03 1.531E+00 9.030E-03 7.779E-03 8.527E-04 1.766E-02 1.549E+00 2.855E+03  2.6507 0.99967
  4.500E+03 4.604E+03 1.549E+00 1.052E-02 9.480E-03 1.032E-03 2.103E-02 1.570E+00 3.176E+03  2.7960 0.99974
  5.000E+03 5.105E+03 1.565E+00 1.205E-02 1.128E-02 1.204E-03 2.453E-02 1.590E+00 3.492E+03  2.9293 0.99979
  5.500E+03 5.605E+03 1.580E+00 1.363E-02 1.316E-02 1.388E-03 2.817E-02 1.608E+00 3.805E+03  3.0525 0.99982
  6.000E+03 6.105E+03 1.593E+00 1.524E-02 1.512E-02 1.558E-03 3.192E-02 1.625E+00 4.114E+03  3.1671 0.99985
  7.000E+03 7.105E+03 1.615E+00 1.855E-02 1.926E-02 1.919E-03 3.973E-02 1.655E+00 4.724E+03  3.3751 0.99989
  8.000E+03 8.105E+03 1.635E+00 2.199E-02 2.364E-02 2.276E-03 4.790E-02 1.683E+00 5.323E+03  3.5603 0.99992
  9.000E+03 9.105E+03 1.651E+00 2.552E-02 2.824E-02 2.609E-03 5.637E-02 1.708E+00 5.913E+03  3.7274 0.99993
  1.000E+04 1.011E+04 1.666E+00 2.914E-02 3.303E-02 2.952E-03 6.513E-02 1.731E+00 6.495E+03  3.8798 0.99995
  1.200E+04 1.211E+04 1.690E+00 3.662E-02 4.312E-02 3.644E-03 8.338E-02 1.774E+00 7.636E+03  4.1499 0.99996
  1.400E+04 1.411E+04 1.711E+00 4.436E-02 5.377E-02 4.334E-03 1.025E-01 1.813E+00 8.752E+03  4.3845 0.99997
  1.700E+04 1.711E+04 1.735E+00 5.640E-02 7.062E-02 5.351E-03 1.324E-01 1.868E+00 1.038E+04  4.6877 0.99998
  2.000E+04 2.011E+04 1.755E+00 6.885E-02 8.834E-02 6.345E-03 1.635E-01 1.919E+00 1.197E+04  4.9479 0.99999
  2.500E+04 2.511E+04 1.782E+00 9.035E-02 1.194E-01 7.969E-03 2.177E-01 2.000E+00 1.452E+04  5.3144 0.99999
  3.000E+04 3.011E+04 1.803E+00 1.126E-01 1.520E-01 9.555E-03 2.741E-01 2.077E+00 1.697E+04  5.6213 0.99999
  3.500E+04 3.511E+04 1.820E+00 1.355E-01 1.857E-01 1.115E-02 3.324E-01 2.152E+00 1.934E+04  5.8860 1.00000
  4.000E+04 4.011E+04 1.834E+00 1.589E-01 2.205E-01 1.273E-02 3.922E-01 2.226E+00 2.162E+04  6.1188 1.00000
  4.500E+04 4.511E+04 1.846E+00 1.828E-01 2.561E-01 1.428E-02 4.532E-01 2.300E+00 2.383E+04  6.3268 1.00000
  5.000E+04 5.011E+04 1.857E+00 2.071E-01 2.924E-01 1.583E-02 5.153E-01 2.373E+00 2.597E+04  6.5150 1.00000
  5.500E+04 5.511E+04 1.867E+00 2.317E-01 3.293E-01 1.738E-02 5.784E-01 2.445E+00 2.805E+04  6.6868 1.00000
  6.000E+04 6.011E+04 1.876E+00 2.566E-01 3.668E-01 1.892E-02 6.424E-01 2.518E+00 3.007E+04  6.8450 1.00000
  7.000E+04 7.011E+04 1.891E+00 3.073E-01 4.431E-01 2.196E-02 7.725E-01 2.663E+00 3.393E+04  7.1282 1.00000
  8.000E+04 8.011E+04 1.903E+00 3.590E-01 5.210E-01 2.501E-02 9.050E-01 2.808E+00 3.759E+04  7.3764 1.00000
  9.000E+04 9.011E+04 1.914E+00 4.114E-01 6.002E-01 2.806E-02 1.040E+00 2.954E+00 4.106E+04  7.5975 1.00000
  1.000E+05 1.001E+05 1.924E+00 4.646E-01 6.804E-01 3.104E-02 1.176E+00 3.100E+00 4.437E+04  7.7969 1.00000
  1.200E+05 1.201E+05 1.940E+00 5.727E-01 8.436E-01 3.710E-02 1.453E+00 3.394E+00 5.054E+04  8.1453 1.00000
  1.400E+05 1.401E+05 1.954E+00 6.827E-01 1.010E+00 4.316E-02 1.735E+00 3.689E+00 5.620E+04  8.4430 1.00000
  1.700E+05 1.701E+05 1.971E+00 8.507E-01 1.263E+00 5.223E-02 2.166E+00 4.136E+00 6.389E+04  8.8216 1.00000
  2.000E+05 2.001E+05 1.985E+00 1.022E+00 1.519E+00 6.134E-02 2.602E+00 4.587E+00 7.078E+04  9.1412 1.00000
  2.500E+05 2.501E+05 2.004E+00 1.311E+00 1.954E+00 7.654E-02 3.341E+00 5.345E+00 8.091E+04  9.5834 1.00000
  3.000E+05 3.001E+05 2.019E+00 1.606E+00 2.393E+00 9.184E-02 4.091E+00 6.110E+00 8.968E+04  9.9469 1.00000
  3.500E+05 3.501E+05 2.032E+00 1.904E+00 2.837E+00 1.073E-01 4.849E+00 6.880E+00 9.741E+04 10.2551 1.00000
  4.000E+05 4.001E+05 2.043E+00 2.205E+00 3.285E+00 1.228E-01 5.613E+00 7.656E+00 1.043E+05 10.5220 1.00000
  4.500E+05 4.501E+05 2.053E+00 2.509E+00 3.734E+00 1.384E-01 6.382E+00 8.435E+00 1.105E+05 10.7576 1.00000
  5.000E+05 5.001E+05 2.061E+00 2.815E+00 4.187E+00 1.542E-01 7.156E+00 9.217E+00 1.162E+05 10.9682 1.00000
  5.500E+05 5.501E+05 2.069E+00 3.123E+00 4.640E+00 1.698E-01 7.933E+00 1.000E+01 1.214E+05 11.1588 1.00000
  6.000E+05 6.001E+05 2.077E+00 3.432E+00 5.096E+00 1.854E-01 8.713E+00 1.079E+01 1.262E+05 11.3328 1.00000
  7.000E+05 7.001E+05 2.090E+00 4.055E+00 6.010E+00 2.171E-01 1.028E+01 1.237E+01 1.349E+05 11.6411 1.00000
  8.000E+05 8.001E+05 2.101E+00 4.682E+00 6.929E+00 2.490E-01 1.186E+01 1.396E+01 1.425E+05 11.9081 1.00000
  9.000E+05 9.001E+05 2.111E+00 5.313E+00 7.850E+00 2.813E-01 1.344E+01 1.556E+01 1.493E+05 12.1436 1.00000
  1.000E+06 1.000E+06 2.120E+00 5.947E+00 8.775E+00 3.138E-01 1.504E+01 1.716E+01 1.555E+05 12.3543 1.00000
  1.200E+06 1.200E+06 2.135E+00 7.222E+00 1.063E+01 3.796E-01 1.823E+01 2.037E+01 1.662E+05 12.7189 1.00000
  1.400E+06 1.400E+06 2.149E+00 8.505E+00 1.249E+01 4.464E-01 2.144E+01 2.359E+01 1.753E+05 13.0272 1.00000
  1.700E+06 1.700E+06 2.165E+00 1.044E+01 1.529E+01 5.480E-01 2.628E+01 2.845E+01 1.870E+05 13.4155 1.00000
  2.000E+06 2.000E+06 2.180E+00 1.239E+01 1.810E+01 6.513E-01 3.114E+01 3.332E+01 1.968E+05 13.7405 1.00000
  2.500E+06 2.500E+06 2.199E+00 1.565E+01 2.280E+01 8.265E-01 3.927E+01 4.147E+01 2.103E+05 14.1868 1.00000
  3.000E+06 3.000E+06 2.215E+00 1.893E+01 2.750E+01 1.005E+00 4.743E+01 4.965E+01 2.214E+05 14.5514 1.00000
  3.500E+06 3.500E+06 2.229E+00 2.221E+01 3.221E+01 1.186E+00 5.561E+01 5.784E+01 2.307E+05 14.8597 1.00000
  4.000E+06 4.000E+06 2.241E+00 2.551E+01 3.693E+01 1.370E+00 6.381E+01 6.605E+01 2.388E+05 15.1267 1.00000
  4.500E+06 4.500E+06 2.251E+00 2.881E+01 4.166E+01 1.557E+00 7.203E+01 7.428E+01 2.460E+05 15.3623 1.00000
  5.000E+06 5.000E+06 2.261E+00 3.212E+01 4.638E+01 1.745E+00 8.025E+01 8.251E+01 2.524E+05 15.5730 1.00000
  5.500E+06 5.500E+06 2.270E+00 3.544E+01 5.111E+01 1.935E+00 8.849E+01 9.076E+01 2.581E+05 15.7636 1.00000
  6.000E+06 6.000E+06 2.278E+00 3.876E+01 5.585E+01 2.127E+00 9.673E+01 9.901E+01 2.634E+05 15.9377 1.00000
  7.000E+06 7.000E+06 2.292E+00 4.540E+01 6.532E+01 2.516E+00 1.132E+02 1.155E+02 2.728E+05 16.2459 1.00000
  8.000E+06 8.000E+06 2.304E+00 5.206E+01 7.480E+01 2.911E+00 1.298E+02 1.321E+02 2.809E+05 16.5130 1.00000
  9.000E+06 9.000E+06 2.315E+00 5.872E+01 8.428E+01 3.310E+00 1.463E+02 1.486E+02 2.881E+05 16.7486 1.00000
  1.000E+07 1.000E+07 2.325E+00 6.539E+01 9.377E+01 3.715E+00 1.629E+02 1.652E+02 2.945E+05 16.9593 1.00000
  1.200E+07 1.200E+07 2.342E+00 7.875E+01 1.128E+02 4.536E+00 1.960E+02 1.984E+02 3.056E+05 17.3239 1.00000
  1.400E+07 1.400E+07 2.356E+00 9.213E+01 1.318E+02 5.372E+00 2.293E+02 2.316E+02 3.149E+05 17.6322 1.00000
  1.700E+07 1.700E+07 2.375E+00 1.122E+02 1.603E+02 6.649E+00 2.791E+02 2.815E+02 3.267E+05 18.0205 1.00000
  2.000E+07 2.000E+07 2.390E+00 1.323E+02 1.888E+02 7.951E+00 3.290E+02 3.314E+02 3.366E+05 18.3456 1.00000
  2.500E+07 2.500E+07 2.412E+00 1.659E+02 2.363E+02 1.017E+01 4.123E+02 4.147E+02 3.501E+05 18.7919 1.00000
  3.000E+07 3.000E+07 2.430E+00 1.994E+02 2.839E+02 1.243E+01 4.957E+02 4.982E+02 3.612E+05 19.1565 1.00000
  3.500E+07 3.500E+07 2.445E+00 2.330E+02 3.314E+02 1.474E+01 5.792E+02 5.816E+02 3.705E+05 19.4648 1.00000
  4.000E+07 4.000E+07 2.458E+00 2.666E+02 3.790E+02 1.708E+01 6.627E+02 6.651E+02 3.786E+05 19.7319 1.00000
  4.500E+07 4.500E+07 2.470E+00 3.002E+02 4.266E+02 1.946E+01 7.463E+02 7.487E+02 3.857E+05 19.9674 1.00000
  5.000E+07 5.000E+07 2.481E+00 3.338E+02 4.742E+02 2.186E+01 8.299E+02 8.323E+02 3.920E+05 20.1781 1.00000
  5.500E+07 5.500E+07 2.490E+00 3.674E+02 5.218E+02 2.430E+01 9.135E+02 9.160E+02 3.977E+05 20.3688 1.00000
  6.000E+07 6.000E+07 2.499E+00 4.011E+02 5.694E+02 2.675E+01 9.972E+02 9.997E+02 4.030E+05 20.5428 1.00000
  7.000E+07 7.000E+07 2.515E+00 4.683E+02 6.646E+02 3.174E+01 1.165E+03 1.167E+03 4.122E+05 20.8511 1.00000
  8.000E+07 8.000E+07 2.528E+00 5.356E+02 7.597E+02 3.680E+01 1.332E+03 1.335E+03 4.203E+05 21.1182 1.00000
  9.000E+07 9.000E+07 2.541E+00 6.029E+02 8.549E+02 4.193E+01 1.500E+03 1.502E+03 4.274E+05 21.3537 1.00000
  1.000E+08 1.000E+08 2.551E+00 6.702E+02 9.502E+02 4.713E+01 1.667E+03 1.670E+03 4.337E+05 21.5644 1.00000
  1.200E+08 1.200E+08 2.570E+00 8.048E+02 1.141E+03 5.770E+01 2.003E+03 2.006E+03 4.447E+05 21.9291 1.00000
  1.400E+08 1.400E+08 2.587E+00 9.394E+02 1.331E+03 6.848E+01 2.339E+03 2.341E+03 4.539E+05 22.2374 1.00000
  1.700E+08 1.700E+08 2.607E+00 1.141E+03 1.617E+03 8.497E+01 2.843E+03 2.846E+03 4.656E+05 22.6257 1.00000
  2.000E+08 2.000E+08 2.625E+00 1.343E+03 1.902E+03 1.018E+02 3.347E+03 3.350E+03 4.753E+05 22.9507 1.00000
  2.500E+08 2.500E+08 2.649E+00 1.680E+03 2.378E+03 1.305E+02 4.189E+03 4.192E+03 4.888E+05 23.3970 1.00000
  3.000E+08 3.000E+08 2.669E+00 2.017E+03 2.854E+03 1.598E+02 5.031E+03 5.034E+03 4.997E+05 23.7617 1.00000
  3.500E+08 3.500E+08 2.686E+00 2.354E+03 3.331E+03 1.897E+02 5.874E+03 5.877E+03 5.089E+05 24.0700 1.00000
  4.000E+08 4.000E+08 2.700E+00 2.690E+03 3.807E+03 2.202E+02 6.717E+03 6.720E+03 5.169E+05 24.3370 1.00000
  4.500E+08 4.500E+08 2.713E+00 3.027E+03 4.283E+03 2.510E+02 7.561E+03 7.563E+03 5.239E+05 24.5726 1.00000
  5.000E+08 5.000E+08 2.725E+00 3.364E+03 4.759E+03 2.823E+02 8.405E+03 8.408E+03 5.302E+05 24.7833 1.00000
  5.500E+08 5.500E+08 2.736E+00 3.701E+03 5.235E+03 3.140E+02 9.249E+03 9.252E+03 5.359E+05 24.9739 1.00000
  6.000E+08 6.000E+08 2.746E+00 4.037E+03 5.711E+03 3.459E+02 1.009E+04 1.010E+04 5.410E+05 25.1480 1.00000
  7.000E+08 7.000E+08 2.763E+00 4.711E+03 6.663E+03 4.108E+02 1.178E+04 1.179E+04 5.502E+05 25.4563 1.00000
  8.000E+08 8.000E+08 2.779E+00 5.384E+03 7.615E+03 4.768E+02 1.348E+04 1.348E+04 5.582E+05 25.7233 1.00000
  9.000E+08 9.000E+08 2.792E+00 6.058E+03 8.567E+03 5.438E+02 1.517E+04 1.517E+04 5.652E+05 25.9589 1.00000
  1.000E+09 1.000E+09 2.804E+00 6.732E+03 9.519E+03 6.117E+02 1.686E+04 1.687E+04 5.715E+05 26.1696 1.00000
