 Incident particle is a Muon with M = 105.65839 MeV
 Index = 0: Ethylene
      Absorber with <Z/A> = 0.57023
 Sternheimer coef:  a     k=m_s   x_0    x_1    I[eV]   Cbar  delta0
                 0.1064  3.5387  1.5528  3.9327   50.7  9.4380 0.00

 *** Table generated with PUMAS v1.00 ***

      T         p     Ionization  brems     pair     photonuc  Radloss    dE/dx   CSDA Range  delta   beta
    [MeV]    [MeV/c]  -----------------------[MeV cm^2/g]------------------------  [g/cm^2]
  1.000E+00 1.457E+01 5.559E+01 6.086E-07 0.000E+00 0.000E+00 6.086E-07 5.559E+01 8.994E-03  0.0000 0.13661
  1.200E+00 1.597E+01 4.787E+01 6.959E-07 0.000E+00 0.000E+00 6.959E-07 4.787E+01 1.288E-02  0.0000 0.14944
  1.400E+00 1.726E+01 4.216E+01 7.793E-07 0.000E+00 0.000E+00 7.793E-07 4.216E+01 1.734E-02  0.0000 0.16119
  1.700E+00 1.903E+01 3.593E+01 8.985E-07 0.000E+00 0.000E+00 8.985E-07 3.593E+01 2.507E-02  0.0000 0.17725
  2.000E+00 2.066E+01 3.142E+01 1.012E-06 0.000E+00 0.000E+00 1.012E-06 3.142E+01 3.402E-02  0.0000 0.19186
  2.500E+00 2.312E+01 2.614E+01 1.189E-06 0.000E+00 0.000E+00 1.189E-06 2.614E+01 5.154E-02  0.0000 0.21376
  3.000E+00 2.536E+01 2.250E+01 1.355E-06 0.000E+00 0.000E+00 1.355E-06 2.250E+01 7.222E-02  0.0000 0.23336
  3.500E+00 2.742E+01 1.983E+01 1.513E-06 0.000E+00 0.000E+00 1.513E-06 1.983E+01 9.594E-02  0.0000 0.25120
  4.000E+00 2.935E+01 1.778E+01 1.662E-06 0.000E+00 0.000E+00 1.662E-06 1.778E+01 1.226E-01  0.0000 0.26763
  4.500E+00 3.116E+01 1.616E+01 1.805E-06 0.000E+00 0.000E+00 1.805E-06 1.616E+01 1.521E-01  0.0000 0.28290
  5.000E+00 3.289E+01 1.484E+01 1.942E-06 0.000E+00 0.000E+00 1.942E-06 1.484E+01 1.845E-01  0.0000 0.29720
  5.500E+00 3.453E+01 1.374E+01 2.074E-06 0.000E+00 0.000E+00 2.074E-06 1.374E+01 2.195E-01  0.0000 0.31066
  6.000E+00 3.611E+01 1.282E+01 2.202E-06 0.000E+00 0.000E+00 2.202E-06 1.282E+01 2.572E-01  0.0000 0.32339
  7.000E+00 3.909E+01 1.134E+01 2.445E-06 0.000E+00 0.000E+00 2.445E-06 1.134E+01 3.403E-01  0.0000 0.34700
  8.000E+00 4.189E+01 1.021E+01 2.674E-06 0.000E+00 0.000E+00 2.674E-06 1.021E+01 4.334E-01  0.0000 0.36854
  9.000E+00 4.453E+01 9.319E+00 2.892E-06 0.000E+00 0.000E+00 2.892E-06 9.319E+00 5.360E-01  0.0000 0.38836
  1.000E+01 4.704E+01 8.596E+00 3.100E-06 0.000E+00 0.000E+00 3.100E-06 8.596E+00 6.478E-01  0.0000 0.40675
  1.200E+01 5.177E+01 7.495E+00 3.492E-06 0.000E+00 0.000E+00 3.492E-06 7.495E+00 8.976E-01  0.0000 0.43998
  1.400E+01 5.616E+01 6.694E+00 3.858E-06 0.000E+00 0.000E+00 3.858E-06 6.694E+00 1.180E+00  0.0000 0.46937
  1.700E+01 6.230E+01 5.831E+00 4.369E-06 0.000E+00 0.000E+00 4.369E-06 5.831E+00 1.662E+00  0.0000 0.50792
  2.000E+01 6.802E+01 5.218E+00 4.845E-06 0.000E+00 0.000E+00 4.845E-06 5.218E+00 2.206E+00  0.0000 0.54129
  2.500E+01 7.686E+01 4.515E+00 5.586E-06 0.000E+00 0.000E+00 5.586E-06 4.515E+00 3.239E+00  0.0000 0.58827
  3.000E+01 8.509E+01 4.041E+00 6.281E-06 0.000E+00 0.000E+00 6.281E-06 4.041E+00 4.412E+00  0.0000 0.62720
  3.500E+01 9.285E+01 3.701E+00 6.945E-06 0.000E+00 0.000E+00 6.945E-06 3.701E+00 5.706E+00  0.0000 0.66011
  4.000E+01 1.003E+02 3.447E+00 7.589E-06 0.000E+00 0.000E+00 7.589E-06 3.447E+00 7.106E+00  0.0000 0.68834
  4.500E+01 1.074E+02 3.249E+00 8.220E-06 0.000E+00 0.000E+00 8.220E-06 3.249E+00 8.601E+00  0.0000 0.71286
  5.000E+01 1.143E+02 3.092E+00 8.841E-06 0.000E+00 0.000E+00 8.841E-06 3.092E+00 1.018E+01  0.0000 0.73434
  5.500E+01 1.210E+02 2.965E+00 9.458E-06 0.000E+00 0.000E+00 9.458E-06 2.965E+00 1.183E+01  0.0000 0.75332
  6.000E+01 1.276E+02 2.860E+00 1.007E-05 0.000E+00 0.000E+00 1.007E-05 2.860E+00 1.355E+01  0.0000 0.77019
  7.000E+01 1.403E+02 2.698E+00 1.130E-05 0.000E+00 0.000E+00 1.130E-05 2.698E+00 1.715E+01  0.0000 0.79887
  8.000E+01 1.527E+02 2.580E+00 1.254E-05 0.000E+00 0.000E+00 1.254E-05 2.580E+00 2.094E+01  0.0000 0.82227
  9.000E+01 1.647E+02 2.492E+00 1.379E-05 0.000E+00 0.000E+00 1.379E-05 2.492E+00 2.488E+01  0.0000 0.84166
  1.000E+02 1.764E+02 2.425E+00 1.505E-05 0.000E+00 0.000E+00 1.505E-05 2.425E+00 2.895E+01  0.0000 0.85794
  1.200E+02 1.994E+02 2.331E+00 1.765E-05 0.000E+00 0.000E+00 1.765E-05 2.331E+00 3.737E+01  0.0000 0.88361
  1.400E+02 2.218E+02 2.271E+00 2.033E-05 0.000E+00 0.000E+00 2.033E-05 2.271E+00 4.606E+01  0.0000 0.90278
  1.700E+02 2.546E+02 2.218E+00 2.453E-05 3.564E-14 0.000E+00 2.453E-05 2.218E+00 5.943E+01  0.0000 0.92363
  2.000E+02 2.868E+02 2.191E+00 2.894E-05 7.958E-12 0.000E+00 2.894E-05 2.191E+00 7.303E+01  0.0000 0.93835
  2.500E+02 3.396E+02 2.175E+00 3.670E-05 6.566E-08 0.000E+00 3.676E-05 2.175E+00 9.594E+01  0.0000 0.95485
  3.000E+02 3.917E+02 2.177E+00 4.495E-05 5.738E-07 0.000E+00 4.553E-05 2.177E+00 1.189E+02  0.0000 0.96548
  3.500E+02 4.432E+02 2.187E+00 5.366E-05 1.572E-06 0.000E+00 5.523E-05 2.187E+00 1.418E+02  0.0000 0.97274
  4.000E+02 4.945E+02 2.202E+00 6.277E-05 3.038E-06 0.000E+00 6.581E-05 2.202E+00 1.646E+02  0.0000 0.97793
  4.500E+02 5.455E+02 2.219E+00 7.227E-05 4.954E-06 0.000E+00 7.722E-05 2.219E+00 1.872E+02  0.0000 0.98176
  5.000E+02 5.964E+02 2.237E+00 8.211E-05 7.303E-06 0.000E+00 8.942E-05 2.237E+00 2.097E+02  0.0000 0.98467
  5.500E+02 6.471E+02 2.255E+00 9.229E-05 1.007E-05 0.000E+00 1.024E-04 2.255E+00 2.319E+02  0.0000 0.98693
  6.000E+02 6.977E+02 2.273E+00 1.028E-04 1.324E-05 0.000E+00 1.160E-04 2.273E+00 2.540E+02  0.0000 0.98873
  7.000E+02 7.987E+02 2.308E+00 1.246E-04 2.075E-05 0.000E+00 1.454E-04 2.308E+00 2.977E+02  0.0000 0.99136
  8.000E+02 8.995E+02 2.341E+00 1.475E-04 2.971E-05 0.000E+00 1.772E-04 2.341E+00 3.407E+02  0.0000 0.99317
  9.000E+02 1.000E+03 2.372E+00 1.713E-04 4.005E-05 0.000E+00 2.113E-04 2.372E+00 3.831E+02  0.0000 0.99447
  1.000E+03 1.101E+03 2.400E+00 1.959E-04 5.167E-05 0.000E+00 2.476E-04 2.400E+00 4.250E+02  0.0000 0.99542
  1.200E+03 1.301E+03 2.452E+00 2.476E-04 7.848E-05 2.257E-05 3.486E-04 2.452E+00 5.075E+02  0.0000 0.99672
  1.400E+03 1.502E+03 2.497E+00 3.020E-04 1.096E-04 6.193E-05 4.735E-04 2.498E+00 5.883E+02  0.0000 0.99753
  1.700E+03 1.803E+03 2.556E+00 3.880E-04 1.636E-04 1.332E-04 6.848E-04 2.557E+00 7.070E+02  0.0000 0.99829
  2.000E+03 2.103E+03 2.607E+00 4.788E-04 2.253E-04 2.175E-04 9.216E-04 2.608E+00 8.232E+02  0.0000 0.99874
  2.500E+03 2.604E+03 2.677E+00 6.388E-04 3.429E-04 3.815E-04 1.363E-03 2.679E+00 1.012E+03  0.0000 0.99918
  3.000E+03 3.104E+03 2.736E+00 8.083E-04 4.765E-04 5.547E-04 1.839E-03 2.738E+00 1.197E+03  0.0000 0.99942
  3.500E+03 3.604E+03 2.786E+00 9.858E-04 6.238E-04 7.391E-04 2.349E-03 2.788E+00 1.378E+03  0.0000 0.99957
  4.000E+03 4.104E+03 2.825E+00 1.170E-03 7.992E-04 9.368E-04 2.906E-03 2.828E+00 1.556E+03  0.0473 0.99967
  4.500E+03 4.604E+03 2.857E+00 1.361E-03 9.924E-04 1.143E-03 3.497E-03 2.860E+00 1.732E+03  0.1183 0.99974
  5.000E+03 5.105E+03 2.885E+00 1.558E-03 1.197E-03 1.342E-03 4.097E-03 2.889E+00 1.906E+03  0.1893 0.99979
  5.500E+03 5.605E+03 2.909E+00 1.759E-03 1.413E-03 1.557E-03 4.729E-03 2.914E+00 2.078E+03  0.2593 0.99982
  6.000E+03 6.105E+03 2.932E+00 1.965E-03 1.639E-03 1.757E-03 5.361E-03 2.937E+00 2.249E+03  0.3281 0.99985
  7.000E+03 7.105E+03 2.970E+00 2.391E-03 2.117E-03 2.182E-03 6.690E-03 2.977E+00 2.587E+03  0.4607 0.99989
  8.000E+03 8.105E+03 3.002E+00 2.831E-03 2.627E-03 2.606E-03 8.064E-03 3.010E+00 2.921E+03  0.5865 0.99992
  9.000E+03 9.105E+03 3.030E+00 3.285E-03 3.164E-03 3.006E-03 9.455E-03 3.039E+00 3.252E+03  0.7054 0.99993
  1.000E+04 1.011E+04 3.053E+00 3.751E-03 3.727E-03 3.419E-03 1.090E-02 3.064E+00 3.580E+03  0.8180 0.99995
  1.200E+04 1.211E+04 3.093E+00 4.714E-03 4.919E-03 4.260E-03 1.389E-02 3.107E+00 4.228E+03  1.0259 0.99996
  1.400E+04 1.411E+04 3.126E+00 5.713E-03 6.187E-03 5.105E-03 1.701E-02 3.143E+00 4.868E+03  1.2140 0.99997
  1.700E+04 1.711E+04 3.165E+00 7.271E-03 8.206E-03 6.361E-03 2.184E-02 3.187E+00 5.816E+03  1.4662 0.99998
  2.000E+04 2.011E+04 3.196E+00 8.887E-03 1.035E-02 7.597E-03 2.683E-02 3.223E+00 6.752E+03  1.6895 0.99999
  2.500E+04 2.511E+04 3.237E+00 1.169E-02 1.413E-02 9.633E-03 3.545E-02 3.273E+00 8.292E+03  2.0129 0.99999
  3.000E+04 3.011E+04 3.269E+00 1.460E-02 1.813E-02 1.164E-02 4.437E-02 3.313E+00 9.810E+03  2.2905 0.99999
  3.500E+04 3.511E+04 3.295E+00 1.760E-02 2.231E-02 1.367E-02 5.358E-02 3.348E+00 1.131E+04  2.5338 1.00000
  4.000E+04 4.011E+04 3.316E+00 2.068E-02 2.664E-02 1.569E-02 6.301E-02 3.379E+00 1.280E+04  2.7506 1.00000
  4.500E+04 4.511E+04 3.335E+00 2.383E-02 3.109E-02 1.768E-02 7.260E-02 3.407E+00 1.427E+04  2.9461 1.00000
  5.000E+04 5.011E+04 3.351E+00 2.704E-02 3.566E-02 1.967E-02 8.238E-02 3.433E+00 1.573E+04  3.1242 1.00000
  5.500E+04 5.511E+04 3.365E+00 3.031E-02 4.033E-02 2.168E-02 9.232E-02 3.457E+00 1.718E+04  3.2878 1.00000
  6.000E+04 6.011E+04 3.378E+00 3.362E-02 4.509E-02 2.367E-02 1.024E-01 3.480E+00 1.863E+04  3.4391 1.00000
  7.000E+04 7.011E+04 3.400E+00 4.036E-02 5.483E-02 2.763E-02 1.228E-01 3.522E+00 2.148E+04  3.7114 1.00000
  8.000E+04 8.011E+04 3.418E+00 4.726E-02 6.483E-02 3.161E-02 1.437E-01 3.562E+00 2.431E+04  3.9515 1.00000
  9.000E+04 9.011E+04 3.434E+00 5.428E-02 7.506E-02 3.559E-02 1.649E-01 3.599E+00 2.710E+04  4.1662 1.00000
  1.000E+05 1.001E+05 3.448E+00 6.142E-02 8.547E-02 3.950E-02 1.864E-01 3.635E+00 2.986E+04  4.3603 1.00000
  1.200E+05 1.201E+05 3.472E+00 7.598E-02 1.068E-01 4.748E-02 2.302E-01 3.702E+00 3.532E+04  4.7007 1.00000
  1.400E+05 1.401E+05 3.492E+00 9.087E-02 1.286E-01 5.546E-02 2.749E-01 3.767E+00 4.067E+04  4.9924 1.00000
  1.700E+05 1.701E+05 3.516E+00 1.137E-01 1.621E-01 6.747E-02 3.433E-01 3.859E+00 4.854E+04  5.3642 1.00000
  2.000E+05 2.001E+05 3.536E+00 1.370E-01 1.963E-01 7.955E-02 4.129E-01 3.949E+00 5.623E+04  5.6786 1.00000
  2.500E+05 2.501E+05 3.563E+00 1.767E-01 2.546E-01 9.978E-02 5.311E-01 4.094E+00 6.866E+04  6.1144 1.00000
  3.000E+05 3.001E+05 3.585E+00 2.172E-01 3.141E-01 1.202E-01 6.515E-01 4.236E+00 8.067E+04  6.4732 1.00000
  3.500E+05 3.501E+05 3.603E+00 2.585E-01 3.744E-01 1.408E-01 7.737E-01 4.377E+00 9.229E+04  6.7782 1.00000
  4.000E+05 4.001E+05 3.619E+00 3.002E-01 4.355E-01 1.616E-01 8.973E-01 4.516E+00 1.035E+05  7.0433 1.00000
  4.500E+05 4.501E+05 3.633E+00 3.424E-01 4.971E-01 1.825E-01 1.022E+00 4.655E+00 1.144E+05  7.2776 1.00000
  5.000E+05 5.001E+05 3.645E+00 3.851E-01 5.592E-01 2.036E-01 1.148E+00 4.793E+00 1.250E+05  7.4876 1.00000
  5.500E+05 5.501E+05 3.656E+00 4.281E-01 6.217E-01 2.246E-01 1.274E+00 4.931E+00 1.353E+05  7.6778 1.00000
  6.000E+05 6.001E+05 3.666E+00 4.715E-01 6.846E-01 2.456E-01 1.402E+00 5.068E+00 1.453E+05  7.8515 1.00000
  7.000E+05 7.001E+05 3.685E+00 5.589E-01 8.112E-01 2.882E-01 1.658E+00 5.343E+00 1.645E+05  8.1596 1.00000
  8.000E+05 8.001E+05 3.700E+00 6.473E-01 9.388E-01 3.312E-01 1.917E+00 5.618E+00 1.828E+05  8.4266 1.00000
  9.000E+05 9.001E+05 3.714E+00 7.364E-01 1.067E+00 3.746E-01 2.178E+00 5.893E+00 2.002E+05  8.6621 1.00000
  1.000E+06 1.000E+06 3.727E+00 8.261E-01 1.196E+00 4.184E-01 2.441E+00 6.168E+00 2.168E+05  8.8728 1.00000
  1.200E+06 1.200E+06 3.749E+00 1.007E+00 1.456E+00 5.071E-01 2.970E+00 6.719E+00 2.479E+05  9.2374 1.00000
  1.400E+06 1.400E+06 3.767E+00 1.190E+00 1.717E+00 5.971E-01 3.504E+00 7.272E+00 2.765E+05  9.5457 1.00000
  1.700E+06 1.700E+06 3.791E+00 1.467E+00 2.111E+00 7.343E-01 4.312E+00 8.103E+00 3.157E+05  9.9340 1.00000
  2.000E+06 2.000E+06 3.811E+00 1.746E+00 2.507E+00 8.737E-01 5.127E+00 8.937E+00 3.509E+05 10.2590 1.00000
  2.500E+06 2.500E+06 3.838E+00 2.215E+00 3.170E+00 1.110E+00 6.496E+00 1.033E+01 4.031E+05 10.7053 1.00000
  3.000E+06 3.000E+06 3.861E+00 2.688E+00 3.836E+00 1.352E+00 7.876E+00 1.174E+01 4.486E+05 11.0699 1.00000
  3.500E+06 3.500E+06 3.880E+00 3.164E+00 4.505E+00 1.597E+00 9.266E+00 1.315E+01 4.889E+05 11.3782 1.00000
  4.000E+06 4.000E+06 3.897E+00 3.643E+00 5.175E+00 1.845E+00 1.066E+01 1.456E+01 5.251E+05 11.6452 1.00000
  4.500E+06 4.500E+06 3.912E+00 4.123E+00 5.846E+00 2.097E+00 1.207E+01 1.598E+01 5.579E+05 11.8808 1.00000
  5.000E+06 5.000E+06 3.925E+00 4.605E+00 6.518E+00 2.352E+00 1.347E+01 1.740E+01 5.879E+05 12.0915 1.00000
  5.500E+06 5.500E+06 3.937E+00 5.087E+00 7.191E+00 2.609E+00 1.489E+01 1.882E+01 6.156E+05 12.2821 1.00000
  6.000E+06 6.000E+06 3.948E+00 5.571E+00 7.864E+00 2.869E+00 1.630E+01 2.025E+01 6.412E+05 12.4562 1.00000
  7.000E+06 7.000E+06 3.968E+00 6.542E+00 9.213E+00 3.395E+00 1.915E+01 2.312E+01 6.875E+05 12.7644 1.00000
  8.000E+06 8.000E+06 3.985E+00 7.516E+00 1.056E+01 3.929E+00 2.201E+01 2.599E+01 7.284E+05 13.0315 1.00000
  9.000E+06 9.000E+06 4.000E+00 8.493E+00 1.192E+01 4.469E+00 2.488E+01 2.888E+01 7.649E+05 13.2671 1.00000
  1.000E+07 1.000E+07 4.014E+00 9.471E+00 1.327E+01 5.017E+00 2.776E+01 3.177E+01 7.980E+05 13.4778 1.00000
  1.200E+07 1.200E+07 4.038E+00 1.143E+01 1.598E+01 6.128E+00 3.354E+01 3.758E+01 8.561E+05 13.8424 1.00000
  1.400E+07 1.400E+07 4.059E+00 1.340E+01 1.869E+01 7.259E+00 3.935E+01 4.341E+01 9.057E+05 14.1507 1.00000
  1.700E+07 1.700E+07 4.085E+00 1.636E+01 2.276E+01 8.988E+00 4.810E+01 5.219E+01 9.690E+05 14.5390 1.00000
  2.000E+07 2.000E+07 4.106E+00 1.932E+01 2.683E+01 1.075E+01 5.690E+01 6.101E+01 1.022E+06 14.8641 1.00000
  2.500E+07 2.500E+07 4.137E+00 2.427E+01 3.363E+01 1.375E+01 7.164E+01 7.578E+01 1.096E+06 15.3104 1.00000
  3.000E+07 3.000E+07 4.162E+00 2.922E+01 4.043E+01 1.682E+01 8.646E+01 9.062E+01 1.157E+06 15.6750 1.00000
  3.500E+07 3.500E+07 4.183E+00 3.418E+01 4.723E+01 1.994E+01 1.013E+02 1.055E+02 1.208E+06 15.9833 1.00000
  4.000E+07 4.000E+07 4.202E+00 3.915E+01 5.403E+01 2.311E+01 1.163E+02 1.205E+02 1.253E+06 16.2504 1.00000
  4.500E+07 4.500E+07 4.218E+00 4.412E+01 6.083E+01 2.633E+01 1.313E+02 1.355E+02 1.292E+06 16.4859 1.00000
  5.000E+07 5.000E+07 4.233E+00 4.910E+01 6.764E+01 2.959E+01 1.463E+02 1.506E+02 1.327E+06 16.6966 1.00000
  5.500E+07 5.500E+07 4.246E+00 5.408E+01 7.445E+01 3.288E+01 1.614E+02 1.656E+02 1.359E+06 16.8873 1.00000
  6.000E+07 6.000E+07 4.259E+00 5.905E+01 8.125E+01 3.621E+01 1.765E+02 1.808E+02 1.387E+06 17.0613 1.00000
  7.000E+07 7.000E+07 4.281E+00 6.902E+01 9.487E+01 4.295E+01 2.068E+02 2.111E+02 1.439E+06 17.3696 1.00000
  8.000E+07 8.000E+07 4.300E+00 7.899E+01 1.085E+02 4.981E+01 2.373E+02 2.416E+02 1.483E+06 17.6367 1.00000
  9.000E+07 9.000E+07 4.317E+00 8.896E+01 1.221E+02 5.676E+01 2.678E+02 2.721E+02 1.522E+06 17.8722 1.00000
  1.000E+08 1.000E+08 4.332E+00 9.894E+01 1.357E+02 6.380E+01 2.985E+02 3.028E+02 1.557E+06 18.0829 1.00000
  1.200E+08 1.200E+08 4.359E+00 1.189E+02 1.630E+02 7.811E+01 3.600E+02 3.643E+02 1.618E+06 18.4476 1.00000
  1.400E+08 1.400E+08 4.382E+00 1.389E+02 1.902E+02 9.269E+01 4.218E+02 4.262E+02 1.669E+06 18.7559 1.00000
  1.700E+08 1.700E+08 4.411E+00 1.688E+02 2.311E+02 1.150E+02 5.149E+02 5.194E+02 1.733E+06 19.1442 1.00000
  2.000E+08 2.000E+08 4.435E+00 1.988E+02 2.720E+02 1.378E+02 6.086E+02 6.130E+02 1.786E+06 19.4692 1.00000
  2.500E+08 2.500E+08 4.469E+00 2.488E+02 3.401E+02 1.766E+02 7.655E+02 7.700E+02 1.859E+06 19.9155 1.00000
  3.000E+08 3.000E+08 4.497E+00 2.988E+02 4.083E+02 2.164E+02 9.234E+02 9.279E+02 1.919E+06 20.2802 1.00000
  3.500E+08 3.500E+08 4.520E+00 3.487E+02 4.764E+02 2.569E+02 1.082E+03 1.087E+03 1.969E+06 20.5885 1.00000
  4.000E+08 4.000E+08 4.541E+00 3.987E+02 5.445E+02 2.981E+02 1.241E+03 1.246E+03 2.012E+06 20.8555 1.00000
  4.500E+08 4.500E+08 4.560E+00 4.487E+02 6.127E+02 3.399E+02 1.401E+03 1.406E+03 2.050E+06 21.0911 1.00000
  5.000E+08 5.000E+08 4.576E+00 4.987E+02 6.808E+02 3.822E+02 1.562E+03 1.566E+03 2.083E+06 21.3018 1.00000
  5.500E+08 5.500E+08 4.591E+00 5.487E+02 7.490E+02 4.250E+02 1.723E+03 1.727E+03 2.114E+06 21.4924 1.00000
  6.000E+08 6.000E+08 4.605E+00 5.988E+02 8.171E+02 4.684E+02 1.884E+03 1.889E+03 2.141E+06 21.6665 1.00000
  7.000E+08 7.000E+08 4.629E+00 6.988E+02 9.534E+02 5.562E+02 2.208E+03 2.213E+03 2.190E+06 21.9748 1.00000
  8.000E+08 8.000E+08 4.651E+00 7.988E+02 1.090E+03 6.456E+02 2.534E+03 2.539E+03 2.233E+06 22.2418 1.00000
  9.000E+08 9.000E+08 4.670E+00 8.988E+02 1.226E+03 7.363E+02 2.861E+03 2.866E+03 2.270E+06 22.4774 1.00000
  1.000E+09 1.000E+09 4.687E+00 9.989E+02 1.362E+03 8.282E+02 3.189E+03 3.194E+03 2.303E+06 22.6881 1.00000
