 Incident particle is a Muon with M = 105.65839 MeV
 Index = 0: Europium
      Absorber with <Z/A> = 0.41457
 Sternheimer coef:  a     k=m_s   x_0    x_1    I[eV]   Cbar  delta0
                 0.2445  2.6245  0.1888  3.4633  580.0  6.2276 0.14

 *** Table generated with PUMAS v1.00 ***

      T         p     Ionization  brems     pair     photonuc  Radloss    dE/dx   CSDA Range  delta   beta
    [MeV]    [MeV/c]  -----------------------[MeV cm^2/g]------------------------  [g/cm^2]
  1.000E+00 1.457E+01 2.379E+01 4.584E-06 0.000E+00 0.000E+00 4.584E-06 2.379E+01 2.102E-02  0.0011 0.13661
  1.200E+00 1.597E+01 2.090E+01 5.266E-06 0.000E+00 0.000E+00 5.266E-06 2.090E+01 3.000E-02  0.0013 0.14944
  1.400E+00 1.726E+01 1.871E+01 5.912E-06 0.000E+00 0.000E+00 5.912E-06 1.871E+01 4.013E-02  0.0016 0.16119
  1.700E+00 1.903E+01 1.624E+01 6.826E-06 0.000E+00 0.000E+00 6.826E-06 1.624E+01 5.738E-02  0.0019 0.17725
  2.000E+00 2.066E+01 1.441E+01 7.684E-06 0.000E+00 0.000E+00 7.684E-06 1.441E+01 7.703E-02  0.0022 0.19186
  2.500E+00 2.312E+01 1.221E+01 9.015E-06 0.000E+00 0.000E+00 9.015E-06 1.221E+01 1.148E-01  0.0028 0.21376
  3.000E+00 2.536E+01 1.066E+01 1.025E-05 0.000E+00 0.000E+00 1.025E-05 1.066E+01 1.588E-01  0.0034 0.23336
  3.500E+00 2.742E+01 9.495E+00 1.139E-05 0.000E+00 0.000E+00 1.139E-05 9.495E+00 2.086E-01  0.0040 0.25120
  4.000E+00 2.935E+01 8.591E+00 1.248E-05 0.000E+00 0.000E+00 1.248E-05 8.591E+00 2.640E-01  0.0045 0.26763
  4.500E+00 3.116E+01 7.866E+00 1.350E-05 0.000E+00 0.000E+00 1.350E-05 7.866E+00 3.249E-01  0.0051 0.28290
  5.000E+00 3.289E+01 7.270E+00 1.447E-05 0.000E+00 0.000E+00 1.447E-05 7.270E+00 3.910E-01  0.0057 0.29720
  5.500E+00 3.453E+01 6.771E+00 1.540E-05 0.000E+00 0.000E+00 1.540E-05 6.771E+00 4.624E-01  0.0063 0.31066
  6.000E+00 3.611E+01 6.347E+00 1.630E-05 0.000E+00 0.000E+00 1.630E-05 6.347E+00 5.387E-01  0.0069 0.32339
  7.000E+00 3.909E+01 5.663E+00 1.798E-05 0.000E+00 0.000E+00 1.798E-05 5.663E+00 7.058E-01  0.0080 0.34700
  8.000E+00 4.189E+01 5.135E+00 1.955E-05 0.000E+00 0.000E+00 1.955E-05 5.135E+00 8.914E-01  0.0092 0.36854
  9.000E+00 4.453E+01 4.714E+00 2.103E-05 0.000E+00 0.000E+00 2.103E-05 4.714E+00 1.095E+00  0.0104 0.38836
  1.000E+01 4.704E+01 4.370E+00 2.244E-05 0.000E+00 0.000E+00 2.244E-05 4.370E+00 1.315E+00  0.0116 0.40675
  1.200E+01 5.177E+01 3.841E+00 2.505E-05 0.000E+00 0.000E+00 2.505E-05 3.842E+00 1.804E+00  0.0141 0.43998
  1.400E+01 5.616E+01 3.453E+00 2.746E-05 0.000E+00 0.000E+00 2.746E-05 3.453E+00 2.354E+00  0.0166 0.46937
  1.700E+01 6.230E+01 3.032E+00 3.081E-05 0.000E+00 0.000E+00 3.081E-05 3.032E+00 3.283E+00  0.0204 0.50792
  2.000E+01 6.802E+01 2.730E+00 3.391E-05 0.000E+00 0.000E+00 3.391E-05 2.730E+00 4.328E+00  0.0243 0.54129
  2.500E+01 7.686E+01 2.380E+00 3.870E-05 0.000E+00 0.000E+00 3.870E-05 2.380E+00 6.294E+00  0.0311 0.58827
  3.000E+01 8.509E+01 2.143E+00 4.319E-05 0.000E+00 0.000E+00 4.319E-05 2.143E+00 8.511E+00  0.0381 0.62720
  3.500E+01 9.285E+01 1.972E+00 4.749E-05 0.000E+00 0.000E+00 4.749E-05 1.972E+00 1.094E+01  0.0453 0.66011
  4.000E+01 1.003E+02 1.844E+00 5.167E-05 0.000E+00 0.000E+00 5.167E-05 1.844E+00 1.357E+01  0.0528 0.68834
  4.500E+01 1.074E+02 1.744E+00 5.577E-05 0.000E+00 0.000E+00 5.577E-05 1.744E+00 1.636E+01  0.0606 0.71286
  5.000E+01 1.143E+02 1.665E+00 5.984E-05 0.000E+00 0.000E+00 5.984E-05 1.665E+00 1.929E+01  0.0687 0.73434
  5.500E+01 1.210E+02 1.600E+00 6.389E-05 0.000E+00 0.000E+00 6.389E-05 1.600E+00 2.236E+01  0.0770 0.75332
  6.000E+01 1.276E+02 1.547E+00 6.793E-05 0.000E+00 0.000E+00 6.793E-05 1.547E+00 2.553E+01  0.0856 0.77019
  7.000E+01 1.403E+02 1.465E+00 7.607E-05 0.000E+00 0.000E+00 7.607E-05 1.465E+00 3.218E+01  0.1035 0.79887
  8.000E+01 1.527E+02 1.406E+00 8.431E-05 0.000E+00 0.000E+00 8.431E-05 1.406E+00 3.915E+01  0.1225 0.82227
  9.000E+01 1.647E+02 1.361E+00 9.268E-05 0.000E+00 0.000E+00 9.268E-05 1.361E+00 4.638E+01  0.1416 0.84166
  1.000E+02 1.764E+02 1.329E+00 1.012E-04 0.000E+00 0.000E+00 1.012E-04 1.329E+00 5.381E+01  0.1487 0.85794
  1.200E+02 1.994E+02 1.284E+00 1.188E-04 0.000E+00 0.000E+00 1.188E-04 1.284E+00 6.913E+01  0.1662 0.88361
  1.400E+02 2.218E+02 1.256E+00 1.371E-04 0.000E+00 0.000E+00 1.371E-04 1.256E+00 8.488E+01  0.1864 0.90278
  1.700E+02 2.546E+02 1.233E+00 1.659E-04 0.000E+00 0.000E+00 1.659E-04 1.233E+00 1.090E+02  0.2193 0.92363
  2.000E+02 2.868E+02 1.222E+00 1.963E-04 0.000E+00 0.000E+00 1.963E-04 1.222E+00 1.334E+02  0.2538 0.93835
  2.500E+02 3.396E+02 1.219E+00 2.503E-04 0.000E+00 0.000E+00 2.503E-04 1.219E+00 1.744E+02  0.3122 0.95485
  3.000E+02 3.917E+02 1.224E+00 3.081E-04 0.000E+00 0.000E+00 3.081E-04 1.225E+00 2.153E+02  0.3701 0.96548
  3.500E+02 4.432E+02 1.234E+00 3.694E-04 0.000E+00 0.000E+00 3.694E-04 1.234E+00 2.560E+02  0.4267 0.97274
  4.000E+02 4.945E+02 1.245E+00 4.339E-04 0.000E+00 0.000E+00 4.339E-04 1.245E+00 2.963E+02  0.4816 0.97793
  4.500E+02 5.455E+02 1.256E+00 5.013E-04 3.930E-05 0.000E+00 5.406E-04 1.257E+00 3.363E+02  0.5346 0.98176
  5.000E+02 5.964E+02 1.268E+00 5.716E-04 6.408E-05 0.000E+00 6.356E-04 1.269E+00 3.759E+02  0.5858 0.98467
  5.500E+02 6.471E+02 1.280E+00 6.444E-04 9.001E-05 0.000E+00 7.344E-04 1.280E+00 4.151E+02  0.6353 0.98693
  6.000E+02 6.977E+02 1.291E+00 7.196E-04 1.194E-04 0.000E+00 8.390E-04 1.292E+00 4.540E+02  0.6830 0.98873
  7.000E+02 7.987E+02 1.312E+00 8.767E-04 1.892E-04 0.000E+00 1.066E-03 1.313E+00 5.308E+02  0.7739 0.99136
  8.000E+02 8.995E+02 1.332E+00 1.042E-03 2.728E-04 0.000E+00 1.315E-03 1.333E+00 6.063E+02  0.8592 0.99317
  9.000E+02 1.000E+03 1.350E+00 1.215E-03 3.694E-04 0.000E+00 1.584E-03 1.352E+00 6.808E+02  0.9395 0.99447
  1.000E+03 1.101E+03 1.367E+00 1.394E-03 4.782E-04 0.000E+00 1.873E-03 1.368E+00 7.544E+02  1.0153 0.99542
  1.200E+03 1.301E+03 1.396E+00 1.772E-03 7.296E-04 2.246E-05 2.524E-03 1.399E+00 8.989E+02  1.1556 0.99672
  1.400E+03 1.502E+03 1.422E+00 2.171E-03 1.022E-03 6.093E-05 3.254E-03 1.425E+00 1.041E+03  1.2832 0.99753
  1.700E+03 1.803E+03 1.454E+00 2.804E-03 1.529E-03 1.291E-04 4.463E-03 1.459E+00 1.249E+03  1.4554 0.99829
  2.000E+03 2.103E+03 1.481E+00 3.474E-03 2.109E-03 2.084E-04 5.792E-03 1.487E+00 1.452E+03  1.6093 0.99874
  2.500E+03 2.604E+03 1.519E+00 4.660E-03 3.215E-03 3.598E-04 8.234E-03 1.527E+00 1.784E+03  1.8349 0.99918
  3.000E+03 3.104E+03 1.549E+00 5.917E-03 4.470E-03 5.165E-04 1.090E-02 1.560E+00 2.108E+03  2.0313 0.99942
  3.500E+03 3.604E+03 1.574E+00 7.236E-03 5.854E-03 6.808E-04 1.377E-02 1.588E+00 2.426E+03  2.2056 0.99957
  4.000E+03 4.104E+03 1.596E+00 8.608E-03 7.359E-03 8.552E-04 1.682E-02 1.613E+00 2.738E+03  2.3625 0.99967
  4.500E+03 4.604E+03 1.614E+00 1.003E-02 8.970E-03 1.035E-03 2.003E-02 1.634E+00 3.046E+03  2.5055 0.99974
  5.000E+03 5.105E+03 1.631E+00 1.149E-02 1.067E-02 1.208E-03 2.337E-02 1.654E+00 3.350E+03  2.6370 0.99979
  5.500E+03 5.605E+03 1.646E+00 1.299E-02 1.245E-02 1.393E-03 2.683E-02 1.673E+00 3.651E+03  2.7587 0.99982
  6.000E+03 6.105E+03 1.659E+00 1.452E-02 1.431E-02 1.564E-03 3.039E-02 1.689E+00 3.949E+03  2.8722 0.99985
  7.000E+03 7.105E+03 1.682E+00 1.768E-02 1.823E-02 1.927E-03 3.783E-02 1.720E+00 4.535E+03  3.0785 0.99989
  8.000E+03 8.105E+03 1.702E+00 2.094E-02 2.238E-02 2.285E-03 4.561E-02 1.747E+00 5.112E+03  3.2625 0.99992
  9.000E+03 9.105E+03 1.719E+00 2.431E-02 2.674E-02 2.620E-03 5.366E-02 1.773E+00 5.680E+03  3.4289 0.99993
  1.000E+04 1.011E+04 1.734E+00 2.775E-02 3.128E-02 2.965E-03 6.199E-02 1.796E+00 6.241E+03  3.5809 0.99995
  1.200E+04 1.211E+04 1.759E+00 3.487E-02 4.083E-02 3.661E-03 7.936E-02 1.838E+00 7.342E+03  3.8507 0.99996
  1.400E+04 1.411E+04 1.780E+00 4.224E-02 5.092E-02 4.356E-03 9.752E-02 1.877E+00 8.418E+03  4.0854 0.99997
  1.700E+04 1.711E+04 1.805E+00 5.369E-02 6.689E-02 5.380E-03 1.260E-01 1.931E+00 9.994E+03  4.3892 0.99998
  2.000E+04 2.011E+04 1.825E+00 6.553E-02 8.368E-02 6.380E-03 1.556E-01 1.981E+00 1.153E+04  4.6503 0.99999
  2.500E+04 2.511E+04 1.852E+00 8.599E-02 1.131E-01 8.015E-03 2.071E-01 2.059E+00 1.401E+04  5.0183 0.99999
  3.000E+04 3.011E+04 1.873E+00 1.072E-01 1.440E-01 9.613E-03 2.608E-01 2.134E+00 1.639E+04  5.3269 0.99999
  3.500E+04 3.511E+04 1.890E+00 1.290E-01 1.760E-01 1.122E-02 3.162E-01 2.206E+00 1.870E+04  5.5931 1.00000
  4.000E+04 4.011E+04 1.905E+00 1.512E-01 2.090E-01 1.281E-02 3.731E-01 2.278E+00 2.093E+04  5.8274 1.00000
  4.500E+04 4.511E+04 1.917E+00 1.740E-01 2.428E-01 1.437E-02 4.311E-01 2.348E+00 2.309E+04  6.0368 1.00000
  5.000E+04 5.011E+04 1.928E+00 1.970E-01 2.772E-01 1.593E-02 4.902E-01 2.419E+00 2.519E+04  6.2263 1.00000
  5.500E+04 5.511E+04 1.938E+00 2.205E-01 3.123E-01 1.750E-02 5.502E-01 2.488E+00 2.722E+04  6.3993 1.00000
  6.000E+04 6.011E+04 1.947E+00 2.442E-01 3.478E-01 1.905E-02 6.111E-01 2.558E+00 2.921E+04  6.5586 1.00000
  7.000E+04 7.011E+04 1.962E+00 2.924E-01 4.203E-01 2.212E-02 7.348E-01 2.697E+00 3.302E+04  6.8437 1.00000
  8.000E+04 8.011E+04 1.975E+00 3.415E-01 4.942E-01 2.519E-02 8.610E-01 2.836E+00 3.663E+04  7.0937 1.00000
  9.000E+04 9.011E+04 1.986E+00 3.914E-01 5.694E-01 2.827E-02 9.891E-01 2.975E+00 4.008E+04  7.3162 1.00000
  1.000E+05 1.001E+05 1.996E+00 4.420E-01 6.456E-01 3.127E-02 1.119E+00 3.115E+00 4.336E+04  7.5169 1.00000
  1.200E+05 1.201E+05 2.012E+00 5.448E-01 8.005E-01 3.739E-02 1.383E+00 3.395E+00 4.952E+04  7.8674 1.00000
  1.400E+05 1.401E+05 2.026E+00 6.495E-01 9.582E-01 4.350E-02 1.651E+00 3.677E+00 5.518E+04  8.1668 1.00000
  1.700E+05 1.701E+05 2.043E+00 8.094E-01 1.199E+00 5.265E-02 2.061E+00 4.104E+00 6.292E+04  8.5472 1.00000
  2.000E+05 2.001E+05 2.057E+00 9.720E-01 1.443E+00 6.184E-02 2.476E+00 4.534E+00 6.988E+04  8.8681 1.00000
  2.500E+05 2.501E+05 2.076E+00 1.248E+00 1.855E+00 7.718E-02 3.180E+00 5.256E+00 8.015E+04  9.3117 1.00000
  3.000E+05 3.001E+05 2.092E+00 1.528E+00 2.273E+00 9.262E-02 3.894E+00 5.986E+00 8.908E+04  9.6758 1.00000
  3.500E+05 3.501E+05 2.105E+00 1.812E+00 2.695E+00 1.082E-01 4.615E+00 6.720E+00 9.698E+04  9.9840 1.00000
  4.000E+05 4.001E+05 2.116E+00 2.099E+00 3.120E+00 1.239E-01 5.343E+00 7.459E+00 1.041E+05 10.2509 1.00000
  4.500E+05 4.501E+05 2.126E+00 2.388E+00 3.548E+00 1.397E-01 6.075E+00 8.202E+00 1.105E+05 10.4865 1.00000
  5.000E+05 5.001E+05 2.135E+00 2.679E+00 3.978E+00 1.555E-01 6.812E+00 8.947E+00 1.163E+05 10.6971 1.00000
  5.500E+05 5.501E+05 2.144E+00 2.972E+00 4.409E+00 1.713E-01 7.552E+00 9.696E+00 1.217E+05 10.8877 1.00000
  6.000E+05 6.001E+05 2.151E+00 3.266E+00 4.842E+00 1.871E-01 8.295E+00 1.045E+01 1.266E+05 11.0617 1.00000
  7.000E+05 7.001E+05 2.164E+00 3.859E+00 5.712E+00 2.190E-01 9.789E+00 1.195E+01 1.356E+05 11.3700 1.00000
  8.000E+05 8.001E+05 2.176E+00 4.456E+00 6.585E+00 2.513E-01 1.129E+01 1.347E+01 1.435E+05 11.6370 1.00000
  9.000E+05 9.001E+05 2.186E+00 5.056E+00 7.462E+00 2.838E-01 1.280E+01 1.499E+01 1.506E+05 11.8725 1.00000
  1.000E+06 1.000E+06 2.195E+00 5.660E+00 8.341E+00 3.167E-01 1.432E+01 1.651E+01 1.569E+05 12.0832 1.00000
  1.200E+06 1.200E+06 2.211E+00 6.874E+00 1.010E+01 3.831E-01 1.736E+01 1.957E+01 1.681E+05 12.4478 1.00000
  1.400E+06 1.400E+06 2.224E+00 8.096E+00 1.188E+01 4.505E-01 2.042E+01 2.265E+01 1.776E+05 12.7561 1.00000
  1.700E+06 1.700E+06 2.241E+00 9.940E+00 1.454E+01 5.531E-01 2.503E+01 2.727E+01 1.897E+05 13.1444 1.00000
  2.000E+06 2.000E+06 2.256E+00 1.179E+01 1.721E+01 6.574E-01 2.966E+01 3.192E+01 1.999E+05 13.4694 1.00000
  2.500E+06 2.500E+06 2.276E+00 1.490E+01 2.168E+01 8.342E-01 3.741E+01 3.969E+01 2.141E+05 13.9157 1.00000
  3.000E+06 3.000E+06 2.292E+00 1.802E+01 2.615E+01 1.014E+00 4.519E+01 4.748E+01 2.256E+05 14.2803 1.00000
  3.500E+06 3.500E+06 2.306E+00 2.115E+01 3.064E+01 1.198E+00 5.298E+01 5.529E+01 2.354E+05 14.5886 1.00000
  4.000E+06 4.000E+06 2.318E+00 2.429E+01 3.512E+01 1.383E+00 6.080E+01 6.312E+01 2.439E+05 14.8556 1.00000
  4.500E+06 4.500E+06 2.329E+00 2.744E+01 3.962E+01 1.571E+00 6.863E+01 7.096E+01 2.514E+05 15.0912 1.00000
  5.000E+06 5.000E+06 2.339E+00 3.059E+01 4.411E+01 1.762E+00 7.647E+01 7.881E+01 2.581E+05 15.3019 1.00000
  5.500E+06 5.500E+06 2.348E+00 3.375E+01 4.861E+01 1.954E+00 8.432E+01 8.666E+01 2.641E+05 15.4925 1.00000
  6.000E+06 6.000E+06 2.356E+00 3.691E+01 5.312E+01 2.148E+00 9.217E+01 9.453E+01 2.697E+05 15.6666 1.00000
  7.000E+06 7.000E+06 2.370E+00 4.324E+01 6.213E+01 2.540E+00 1.079E+02 1.103E+02 2.795E+05 15.9748 1.00000
  8.000E+06 8.000E+06 2.383E+00 4.958E+01 7.115E+01 2.938E+00 1.237E+02 1.260E+02 2.880E+05 16.2419 1.00000
  9.000E+06 9.000E+06 2.394E+00 5.593E+01 8.017E+01 3.342E+00 1.394E+02 1.418E+02 2.955E+05 16.4775 1.00000
  1.000E+07 1.000E+07 2.404E+00 6.228E+01 8.919E+01 3.750E+00 1.552E+02 1.576E+02 3.022E+05 16.6882 1.00000
  1.200E+07 1.200E+07 2.421E+00 7.501E+01 1.073E+02 4.579E+00 1.868E+02 1.893E+02 3.138E+05 17.0528 1.00000
  1.400E+07 1.400E+07 2.436E+00 8.775E+01 1.253E+02 5.423E+00 2.185E+02 2.209E+02 3.236E+05 17.3611 1.00000
  1.700E+07 1.700E+07 2.455E+00 1.069E+02 1.524E+02 6.713E+00 2.660E+02 2.685E+02 3.360E+05 17.7494 1.00000
  2.000E+07 2.000E+07 2.471E+00 1.260E+02 1.796E+02 8.027E+00 3.136E+02 3.161E+02 3.463E+05 18.0745 1.00000
  2.500E+07 2.500E+07 2.493E+00 1.580E+02 2.248E+02 1.026E+01 3.931E+02 3.956E+02 3.605E+05 18.5208 1.00000
  3.000E+07 3.000E+07 2.511E+00 1.900E+02 2.701E+02 1.255E+01 4.726E+02 4.751E+02 3.721E+05 18.8854 1.00000
  3.500E+07 3.500E+07 2.527E+00 2.220E+02 3.153E+02 1.488E+01 5.521E+02 5.547E+02 3.819E+05 19.1937 1.00000
  4.000E+07 4.000E+07 2.540E+00 2.540E+02 3.606E+02 1.725E+01 6.318E+02 6.343E+02 3.903E+05 19.4608 1.00000
  4.500E+07 4.500E+07 2.552E+00 2.860E+02 4.058E+02 1.965E+01 7.115E+02 7.140E+02 3.978E+05 19.6963 1.00000
  5.000E+07 5.000E+07 2.563E+00 3.180E+02 4.511E+02 2.207E+01 7.912E+02 7.938E+02 4.044E+05 19.9070 1.00000
  5.500E+07 5.500E+07 2.573E+00 3.500E+02 4.964E+02 2.453E+01 8.710E+02 8.735E+02 4.105E+05 20.0977 1.00000
  6.000E+07 6.000E+07 2.582E+00 3.821E+02 5.417E+02 2.701E+01 9.508E+02 9.533E+02 4.159E+05 20.2717 1.00000
  7.000E+07 7.000E+07 2.598E+00 4.462E+02 6.322E+02 3.204E+01 1.110E+03 1.113E+03 4.257E+05 20.5800 1.00000
  8.000E+07 8.000E+07 2.612E+00 5.103E+02 7.228E+02 3.715E+01 1.270E+03 1.273E+03 4.341E+05 20.8471 1.00000
  9.000E+07 9.000E+07 2.624E+00 5.744E+02 8.134E+02 4.234E+01 1.430E+03 1.433E+03 4.415E+05 21.0826 1.00000
  1.000E+08 1.000E+08 2.635E+00 6.385E+02 9.040E+02 4.759E+01 1.590E+03 1.593E+03 4.481E+05 21.2933 1.00000
  1.200E+08 1.200E+08 2.654E+00 7.667E+02 1.085E+03 5.826E+01 1.910E+03 1.913E+03 4.597E+05 21.6580 1.00000
  1.400E+08 1.400E+08 2.671E+00 8.950E+02 1.266E+03 6.914E+01 2.230E+03 2.233E+03 4.694E+05 21.9663 1.00000
  1.700E+08 1.700E+08 2.692E+00 1.087E+03 1.538E+03 8.578E+01 2.711E+03 2.714E+03 4.816E+05 22.3546 1.00000
  2.000E+08 2.000E+08 2.710E+00 1.280E+03 1.810E+03 1.028E+02 3.193E+03 3.195E+03 4.918E+05 22.6796 1.00000
  2.500E+08 2.500E+08 2.734E+00 1.601E+03 2.263E+03 1.317E+02 3.995E+03 3.998E+03 5.059E+05 23.1259 1.00000
  3.000E+08 3.000E+08 2.755E+00 1.922E+03 2.716E+03 1.614E+02 4.799E+03 4.801E+03 5.174E+05 23.4906 1.00000
  3.500E+08 3.500E+08 2.772E+00 2.242E+03 3.169E+03 1.916E+02 5.603E+03 5.605E+03 5.270E+05 23.7989 1.00000
  4.000E+08 4.000E+08 2.787E+00 2.563E+03 3.622E+03 2.223E+02 6.407E+03 6.410E+03 5.354E+05 24.0659 1.00000
  4.500E+08 4.500E+08 2.800E+00 2.884E+03 4.075E+03 2.535E+02 7.212E+03 7.215E+03 5.428E+05 24.3015 1.00000
  5.000E+08 5.000E+08 2.812E+00 3.205E+03 4.528E+03 2.850E+02 8.017E+03 8.020E+03 5.493E+05 24.5122 1.00000
  5.500E+08 5.500E+08 2.823E+00 3.526E+03 4.980E+03 3.170E+02 8.823E+03 8.826E+03 5.553E+05 24.7028 1.00000
  6.000E+08 6.000E+08 2.833E+00 3.847E+03 5.433E+03 3.493E+02 9.629E+03 9.632E+03 5.607E+05 24.8769 1.00000
  7.000E+08 7.000E+08 2.851E+00 4.488E+03 6.339E+03 4.148E+02 1.124E+04 1.125E+04 5.703E+05 25.1852 1.00000
  8.000E+08 8.000E+08 2.867E+00 5.130E+03 7.245E+03 4.814E+02 1.286E+04 1.286E+04 5.787E+05 25.4522 1.00000
  9.000E+08 9.000E+08 2.881E+00 5.772E+03 8.151E+03 5.491E+02 1.447E+04 1.447E+04 5.860E+05 25.6878 1.00000
  1.000E+09 1.000E+09 2.893E+00 6.414E+03 9.057E+03 6.176E+02 1.609E+04 1.609E+04 5.926E+05 25.8985 1.00000
