 Incident particle is a Muon with M = 105.65839 MeV
 Index = 0: EyeLens
      Absorber with <Z/A> = 0.54869
 Sternheimer coef:  a     k=m_s   x_0    x_1    I[eV]   Cbar  delta0
                 0.0969  3.4550  0.2070  2.7446   73.3  3.3720 0.00

 *** Table generated with PUMAS v1.00 ***

      T         p     Ionization  brems     pair     photonuc  Radloss    dE/dx   CSDA Range  delta   beta
    [MeV]    [MeV/c]  -----------------------[MeV cm^2/g]------------------------  [g/cm^2]
  1.000E+00 1.457E+01 5.017E+01 7.540E-07 0.000E+00 0.000E+00 7.540E-07 5.017E+01 9.967E-03  0.0000 0.13661
  1.200E+00 1.597E+01 4.328E+01 8.639E-07 0.000E+00 0.000E+00 8.639E-07 4.328E+01 1.427E-02  0.0000 0.14944
  1.400E+00 1.726E+01 3.818E+01 9.688E-07 0.000E+00 0.000E+00 9.688E-07 3.818E+01 1.920E-02  0.0000 0.16119
  1.700E+00 1.903E+01 3.259E+01 1.118E-06 0.000E+00 0.000E+00 1.118E-06 3.259E+01 2.773E-02  0.0000 0.17725
  2.000E+00 2.066E+01 2.855E+01 1.260E-06 0.000E+00 0.000E+00 1.260E-06 2.855E+01 3.759E-02  0.0000 0.19186
  2.500E+00 2.312E+01 2.379E+01 1.483E-06 0.000E+00 0.000E+00 1.483E-06 2.379E+01 5.685E-02  0.0000 0.21376
  3.000E+00 2.536E+01 2.051E+01 1.691E-06 0.000E+00 0.000E+00 1.691E-06 2.051E+01 7.955E-02  0.0000 0.23336
  3.500E+00 2.742E+01 1.810E+01 1.888E-06 0.000E+00 0.000E+00 1.888E-06 1.810E+01 1.056E-01  0.0000 0.25120
  4.000E+00 2.935E+01 1.624E+01 2.074E-06 0.000E+00 0.000E+00 2.074E-06 1.624E+01 1.348E-01  0.0000 0.26763
  4.500E+00 3.116E+01 1.477E+01 2.253E-06 0.000E+00 0.000E+00 2.253E-06 1.477E+01 1.671E-01  0.0000 0.28290
  5.000E+00 3.289E+01 1.357E+01 2.424E-06 0.000E+00 0.000E+00 2.424E-06 1.357E+01 2.024E-01  0.0000 0.29720
  5.500E+00 3.453E+01 1.258E+01 2.588E-06 0.000E+00 0.000E+00 2.588E-06 1.258E+01 2.407E-01  0.0000 0.31066
  6.000E+00 3.611E+01 1.174E+01 2.747E-06 0.000E+00 0.000E+00 2.747E-06 1.174E+01 2.819E-01  0.0000 0.32339
  7.000E+00 3.909E+01 1.039E+01 3.049E-06 0.000E+00 0.000E+00 3.049E-06 1.039E+01 3.726E-01  0.0000 0.34700
  8.000E+00 4.189E+01 9.368E+00 3.334E-06 0.000E+00 0.000E+00 3.334E-06 9.368E+00 4.741E-01  0.0000 0.36854
  9.000E+00 4.453E+01 8.555E+00 3.604E-06 0.000E+00 0.000E+00 3.604E-06 8.555E+00 5.859E-01  0.0000 0.38836
  1.000E+01 4.704E+01 7.896E+00 3.862E-06 0.000E+00 0.000E+00 3.862E-06 7.896E+00 7.076E-01  0.0000 0.40675
  1.200E+01 5.177E+01 6.891E+00 4.348E-06 0.000E+00 0.000E+00 4.348E-06 6.891E+00 9.794E-01  0.0000 0.43998
  1.400E+01 5.616E+01 6.159E+00 4.800E-06 0.000E+00 0.000E+00 4.800E-06 6.159E+00 1.287E+00  0.0000 0.46937
  1.700E+01 6.230E+01 5.370E+00 5.431E-06 0.000E+00 0.000E+00 5.431E-06 5.370E+00 1.810E+00  0.0000 0.50792
  2.000E+01 6.802E+01 4.809E+00 6.020E-06 0.000E+00 0.000E+00 6.020E-06 4.809E+00 2.401E+00  0.0000 0.54129
  2.500E+01 7.686E+01 4.165E+00 6.934E-06 0.000E+00 0.000E+00 6.934E-06 4.165E+00 3.521E+00  0.0000 0.58827
  3.000E+01 8.509E+01 3.731E+00 7.791E-06 0.000E+00 0.000E+00 7.791E-06 3.731E+00 4.791E+00  0.0000 0.62720
  3.500E+01 9.285E+01 3.419E+00 8.610E-06 0.000E+00 0.000E+00 8.610E-06 3.419E+00 6.193E+00  0.0000 0.66011
  4.000E+01 1.003E+02 3.185E+00 9.403E-06 0.000E+00 0.000E+00 9.403E-06 3.185E+00 7.709E+00  0.0000 0.68834
  4.500E+01 1.074E+02 3.004E+00 1.018E-05 0.000E+00 0.000E+00 1.018E-05 3.004E+00 9.326E+00  0.0000 0.71286
  5.000E+01 1.143E+02 2.860E+00 1.095E-05 0.000E+00 0.000E+00 1.095E-05 2.860E+00 1.103E+01  0.0000 0.73434
  5.500E+01 1.210E+02 2.743E+00 1.171E-05 0.000E+00 0.000E+00 1.171E-05 2.743E+00 1.282E+01  0.0000 0.75332
  6.000E+01 1.276E+02 2.647E+00 1.247E-05 0.000E+00 0.000E+00 1.247E-05 2.647E+00 1.467E+01  0.0000 0.77019
  7.000E+01 1.403E+02 2.499E+00 1.398E-05 0.000E+00 0.000E+00 1.398E-05 2.499E+00 1.856E+01  0.0000 0.79887
  8.000E+01 1.527E+02 2.391E+00 1.551E-05 0.000E+00 0.000E+00 1.551E-05 2.391E+00 2.265E+01  0.0000 0.82227
  9.000E+01 1.647E+02 2.311E+00 1.705E-05 0.000E+00 0.000E+00 1.705E-05 2.311E+00 2.691E+01  0.0000 0.84166
  1.000E+02 1.764E+02 2.246E+00 1.862E-05 0.000E+00 0.000E+00 1.862E-05 2.246E+00 3.130E+01  0.0211 0.85794
  1.200E+02 1.994E+02 2.153E+00 2.183E-05 0.000E+00 0.000E+00 2.183E-05 2.153E+00 4.040E+01  0.0978 0.88361
  1.400E+02 2.218E+02 2.091E+00 2.516E-05 0.000E+00 0.000E+00 2.516E-05 2.091E+00 4.982E+01  0.1716 0.90278
  1.700E+02 2.546E+02 2.034E+00 3.036E-05 4.452E-14 0.000E+00 3.036E-05 2.034E+00 6.437E+01  0.2768 0.92363
  2.000E+02 2.868E+02 2.002E+00 3.582E-05 9.951E-12 0.000E+00 3.582E-05 2.002E+00 7.923E+01  0.3759 0.93835
  2.500E+02 3.396E+02 1.976E+00 4.545E-05 8.175E-08 0.000E+00 4.553E-05 1.976E+00 1.044E+02  0.5291 0.95485
  3.000E+02 3.917E+02 1.967E+00 5.569E-05 7.266E-07 0.000E+00 5.642E-05 1.967E+00 1.297E+02  0.6696 0.96548
  3.500E+02 4.432E+02 1.968E+00 6.649E-05 1.999E-06 0.000E+00 6.849E-05 1.968E+00 1.551E+02  0.7994 0.97274
  4.000E+02 4.945E+02 1.973E+00 7.781E-05 3.872E-06 0.000E+00 8.169E-05 1.973E+00 1.805E+02  0.9201 0.97793
  4.500E+02 5.455E+02 1.981E+00 8.961E-05 6.321E-06 0.000E+00 9.593E-05 1.981E+00 2.058E+02  1.0330 0.98176
  5.000E+02 5.964E+02 1.990E+00 1.018E-04 9.328E-06 0.000E+00 1.112E-04 1.990E+00 2.310E+02  1.1391 0.98467
  5.500E+02 6.471E+02 1.999E+00 1.145E-04 1.287E-05 0.000E+00 1.274E-04 1.999E+00 2.561E+02  1.2392 0.98693
  6.000E+02 6.977E+02 2.009E+00 1.275E-04 1.694E-05 0.000E+00 1.445E-04 2.009E+00 2.810E+02  1.3341 0.98873
  7.000E+02 7.987E+02 2.028E+00 1.547E-04 2.655E-05 0.000E+00 1.812E-04 2.028E+00 3.306E+02  1.5100 0.99136
  8.000E+02 8.995E+02 2.047E+00 1.831E-04 3.804E-05 0.000E+00 2.211E-04 2.047E+00 3.796E+02  1.6704 0.99317
  9.000E+02 1.000E+03 2.064E+00 2.127E-04 5.129E-05 0.000E+00 2.640E-04 2.065E+00 4.283E+02  1.8179 0.99447
  1.000E+03 1.101E+03 2.081E+00 2.433E-04 6.619E-05 0.000E+00 3.095E-04 2.081E+00 4.765E+02  1.9546 0.99542
  1.200E+03 1.301E+03 2.110E+00 3.076E-04 1.006E-04 2.256E-05 4.307E-04 2.110E+00 5.720E+02  2.2013 0.99672
  1.400E+03 1.502E+03 2.136E+00 3.752E-04 1.405E-04 6.182E-05 5.775E-04 2.136E+00 6.662E+02  2.4196 0.99753
  1.700E+03 1.803E+03 2.169E+00 4.822E-04 2.097E-04 1.327E-04 8.246E-04 2.169E+00 8.055E+02  2.7063 0.99829
  2.000E+03 2.103E+03 2.196E+00 5.950E-04 2.888E-04 2.165E-04 1.100E-03 2.197E+00 9.429E+02  2.9560 0.99874
  2.500E+03 2.604E+03 2.235E+00 7.938E-04 4.396E-04 3.790E-04 1.612E-03 2.236E+00 1.168E+03  3.3122 0.99918
  3.000E+03 3.104E+03 2.266E+00 1.004E-03 6.109E-04 5.504E-04 2.165E-03 2.268E+00 1.391E+03  3.6137 0.99942
  3.500E+03 3.604E+03 2.291E+00 1.224E-03 7.998E-04 7.324E-04 2.757E-03 2.294E+00 1.610E+03  3.8754 0.99957
  4.000E+03 4.104E+03 2.314E+00 1.453E-03 1.019E-03 9.274E-04 3.400E-03 2.317E+00 1.827E+03  4.1067 0.99967
  4.500E+03 4.604E+03 2.333E+00 1.690E-03 1.260E-03 1.131E-03 4.080E-03 2.337E+00 2.041E+03  4.3141 0.99974
  5.000E+03 5.105E+03 2.350E+00 1.933E-03 1.514E-03 1.326E-03 4.774E-03 2.355E+00 2.255E+03  4.5021 0.99979
  5.500E+03 5.605E+03 2.365E+00 2.183E-03 1.782E-03 1.538E-03 5.502E-03 2.371E+00 2.466E+03  4.6740 0.99982
  6.000E+03 6.105E+03 2.379E+00 2.438E-03 2.062E-03 1.735E-03 6.234E-03 2.385E+00 2.676E+03  4.8325 0.99985
  7.000E+03 7.105E+03 2.403E+00 2.964E-03 2.654E-03 2.153E-03 7.771E-03 2.411E+00 3.093E+03  5.1165 0.99989
  8.000E+03 8.105E+03 2.424E+00 3.508E-03 3.285E-03 2.569E-03 9.362E-03 2.433E+00 3.506E+03  5.3655 0.99992
  9.000E+03 9.105E+03 2.442E+00 4.068E-03 3.950E-03 2.961E-03 1.098E-02 2.453E+00 3.916E+03  5.5874 0.99993
  1.000E+04 1.011E+04 2.457E+00 4.643E-03 4.645E-03 3.366E-03 1.265E-02 2.470E+00 4.322E+03  5.7874 0.99995
  1.200E+04 1.211E+04 2.484E+00 5.831E-03 6.116E-03 4.190E-03 1.614E-02 2.500E+00 5.127E+03  6.1366 0.99996
  1.400E+04 1.411E+04 2.506E+00 7.062E-03 7.678E-03 5.017E-03 1.976E-02 2.526E+00 5.923E+03  6.4347 0.99997
  1.700E+04 1.711E+04 2.533E+00 8.978E-03 1.017E-02 6.245E-03 2.539E-02 2.558E+00 7.103E+03  6.8131 0.99998
  2.000E+04 2.011E+04 2.555E+00 1.096E-02 1.280E-02 7.453E-03 3.121E-02 2.586E+00 8.269E+03  7.1319 0.99999
  2.500E+04 2.511E+04 2.584E+00 1.440E-02 1.744E-02 9.442E-03 4.128E-02 2.626E+00 1.019E+04  7.5723 0.99999
  3.000E+04 3.011E+04 2.608E+00 1.797E-02 2.235E-02 1.140E-02 5.172E-02 2.660E+00 1.208E+04  7.9338 0.99999
  3.500E+04 3.511E+04 2.627E+00 2.165E-02 2.747E-02 1.338E-02 6.250E-02 2.690E+00 1.395E+04  8.2403 1.00000
  4.000E+04 4.011E+04 2.644E+00 2.542E-02 3.277E-02 1.534E-02 7.353E-02 2.717E+00 1.580E+04  8.5063 1.00000
  4.500E+04 4.511E+04 2.658E+00 2.927E-02 3.822E-02 1.728E-02 8.478E-02 2.743E+00 1.763E+04  8.7412 1.00000
  5.000E+04 5.011E+04 2.671E+00 3.319E-02 4.381E-02 1.923E-02 9.623E-02 2.767E+00 1.945E+04  8.9514 1.00000
  5.500E+04 5.511E+04 2.683E+00 3.718E-02 4.952E-02 2.118E-02 1.079E-01 2.790E+00 2.124E+04  9.1416 1.00000
  6.000E+04 6.011E+04 2.693E+00 4.122E-02 5.532E-02 2.312E-02 1.197E-01 2.813E+00 2.303E+04  9.3153 1.00000
  7.000E+04 7.011E+04 2.711E+00 4.945E-02 6.721E-02 2.698E-02 1.436E-01 2.855E+00 2.656E+04  9.6231 1.00000
  8.000E+04 8.011E+04 2.727E+00 5.786E-02 7.941E-02 3.084E-02 1.681E-01 2.895E+00 3.004E+04  9.8898 1.00000
  9.000E+04 9.011E+04 2.740E+00 6.641E-02 9.187E-02 3.472E-02 1.930E-01 2.933E+00 3.347E+04 10.1251 1.00000
  1.000E+05 1.001E+05 2.753E+00 7.510E-02 1.045E-01 3.852E-02 2.182E-01 2.971E+00 3.686E+04 10.3355 1.00000
  1.200E+05 1.201E+05 2.773E+00 9.281E-02 1.305E-01 4.628E-02 2.695E-01 3.043E+00 4.351E+04 10.6998 1.00000
  1.400E+05 1.401E+05 2.791E+00 1.109E-01 1.570E-01 5.404E-02 3.219E-01 3.113E+00 5.001E+04 11.0079 1.00000
  1.700E+05 1.701E+05 2.813E+00 1.386E-01 1.977E-01 6.570E-02 4.020E-01 3.215E+00 5.949E+04 11.3959 1.00000
  2.000E+05 2.001E+05 2.831E+00 1.669E-01 2.392E-01 7.744E-02 4.835E-01 3.315E+00 6.868E+04 11.7208 1.00000
  2.500E+05 2.501E+05 2.856E+00 2.150E-01 3.098E-01 9.708E-02 6.219E-01 3.478E+00 8.341E+04 12.1669 1.00000
  3.000E+05 3.001E+05 2.877E+00 2.641E-01 3.818E-01 1.169E-01 7.628E-01 3.640E+00 9.747E+04 12.5314 1.00000
  3.500E+05 3.501E+05 2.894E+00 3.140E-01 4.548E-01 1.369E-01 9.058E-01 3.800E+00 1.109E+05 12.8396 1.00000
  4.000E+05 4.001E+05 2.909E+00 3.645E-01 5.286E-01 1.571E-01 1.050E+00 3.959E+00 1.238E+05 13.1065 1.00000
  4.500E+05 4.501E+05 2.922E+00 4.156E-01 6.031E-01 1.774E-01 1.196E+00 4.118E+00 1.362E+05 13.3421 1.00000
  5.000E+05 5.001E+05 2.934E+00 4.671E-01 6.781E-01 1.979E-01 1.343E+00 4.277E+00 1.481E+05 13.5527 1.00000
  5.500E+05 5.501E+05 2.945E+00 5.191E-01 7.535E-01 2.182E-01 1.491E+00 4.436E+00 1.596E+05 13.7433 1.00000
  6.000E+05 6.001E+05 2.955E+00 5.714E-01 8.294E-01 2.386E-01 1.639E+00 4.594E+00 1.707E+05 13.9173 1.00000
  7.000E+05 7.001E+05 2.972E+00 6.770E-01 9.821E-01 2.799E-01 1.939E+00 4.911E+00 1.917E+05 14.2256 1.00000
  8.000E+05 8.001E+05 2.988E+00 7.835E-01 1.136E+00 3.216E-01 2.241E+00 5.229E+00 2.115E+05 14.4926 1.00000
  9.000E+05 9.001E+05 3.001E+00 8.910E-01 1.291E+00 3.637E-01 2.545E+00 5.546E+00 2.301E+05 14.7281 1.00000
  1.000E+06 1.000E+06 3.013E+00 9.992E-01 1.446E+00 4.062E-01 2.851E+00 5.864E+00 2.476E+05 14.9388 1.00000
  1.200E+06 1.200E+06 3.034E+00 1.217E+00 1.758E+00 4.923E-01 3.468E+00 6.502E+00 2.800E+05 15.3034 1.00000
  1.400E+06 1.400E+06 3.052E+00 1.437E+00 2.073E+00 5.796E-01 4.090E+00 7.142E+00 3.094E+05 15.6117 1.00000
  1.700E+06 1.700E+06 3.075E+00 1.770E+00 2.546E+00 7.126E-01 5.030E+00 8.104E+00 3.489E+05 16.0000 1.00000
  2.000E+06 2.000E+06 3.094E+00 2.106E+00 3.023E+00 8.477E-01 5.976E+00 9.070E+00 3.840E+05 16.3250 1.00000
  2.500E+06 2.500E+06 3.120E+00 2.670E+00 3.820E+00 1.077E+00 7.567E+00 1.069E+01 4.349E+05 16.7713 1.00000
  3.000E+06 3.000E+06 3.142E+00 3.239E+00 4.620E+00 1.311E+00 9.169E+00 1.231E+01 4.786E+05 17.1359 1.00000
  3.500E+06 3.500E+06 3.160E+00 3.810E+00 5.422E+00 1.549E+00 1.078E+01 1.394E+01 5.169E+05 17.4442 1.00000
  4.000E+06 4.000E+06 3.176E+00 4.384E+00 6.227E+00 1.790E+00 1.240E+01 1.558E+01 5.508E+05 17.7112 1.00000
  4.500E+06 4.500E+06 3.191E+00 4.960E+00 7.032E+00 2.034E+00 1.403E+01 1.722E+01 5.814E+05 17.9468 1.00000
  5.000E+06 5.000E+06 3.203E+00 5.538E+00 7.839E+00 2.281E+00 1.566E+01 1.886E+01 6.092E+05 18.1575 1.00000
  5.500E+06 5.500E+06 3.215E+00 6.117E+00 8.646E+00 2.530E+00 1.729E+01 2.051E+01 6.346E+05 18.3481 1.00000
  6.000E+06 6.000E+06 3.226E+00 6.698E+00 9.455E+00 2.782E+00 1.893E+01 2.216E+01 6.581E+05 18.5222 1.00000
  7.000E+06 7.000E+06 3.245E+00 7.862E+00 1.107E+01 3.292E+00 2.223E+01 2.547E+01 7.003E+05 18.8304 1.00000
  8.000E+06 8.000E+06 3.262E+00 9.029E+00 1.269E+01 3.810E+00 2.553E+01 2.879E+01 7.373E+05 19.0975 1.00000
  9.000E+06 9.000E+06 3.276E+00 1.020E+01 1.432E+01 4.334E+00 2.885E+01 3.212E+01 7.702E+05 19.3331 1.00000
  1.000E+07 1.000E+07 3.289E+00 1.137E+01 1.594E+01 4.864E+00 3.217E+01 3.546E+01 7.999E+05 19.5438 1.00000
  1.200E+07 1.200E+07 3.313E+00 1.372E+01 1.919E+01 5.942E+00 3.885E+01 4.216E+01 8.518E+05 19.9084 1.00000
  1.400E+07 1.400E+07 3.332E+00 1.607E+01 2.244E+01 7.039E+00 4.555E+01 4.889E+01 8.960E+05 20.2167 1.00000
  1.700E+07 1.700E+07 3.357E+00 1.961E+01 2.732E+01 8.715E+00 5.565E+01 5.901E+01 9.521E+05 20.6050 1.00000
  2.000E+07 2.000E+07 3.378E+00 2.316E+01 3.221E+01 1.042E+01 6.579E+01 6.917E+01 9.992E+05 20.9301 1.00000
  2.500E+07 2.500E+07 3.407E+00 2.908E+01 4.036E+01 1.333E+01 8.277E+01 8.617E+01 1.064E+06 21.3764 1.00000
  3.000E+07 3.000E+07 3.431E+00 3.501E+01 4.851E+01 1.630E+01 9.982E+01 1.033E+02 1.118E+06 21.7410 1.00000
  3.500E+07 3.500E+07 3.452E+00 4.095E+01 5.666E+01 1.933E+01 1.169E+02 1.204E+02 1.163E+06 22.0493 1.00000
  4.000E+07 4.000E+07 3.470E+00 4.689E+01 6.482E+01 2.241E+01 1.341E+02 1.376E+02 1.201E+06 22.3164 1.00000
  4.500E+07 4.500E+07 3.486E+00 5.283E+01 7.298E+01 2.553E+01 1.513E+02 1.548E+02 1.236E+06 22.5519 1.00000
  5.000E+07 5.000E+07 3.500E+00 5.878E+01 8.114E+01 2.868E+01 1.686E+02 1.721E+02 1.266E+06 22.7626 1.00000
  5.500E+07 5.500E+07 3.513E+00 6.473E+01 8.930E+01 3.188E+01 1.859E+02 1.894E+02 1.294E+06 22.9533 1.00000
  6.000E+07 6.000E+07 3.525E+00 7.069E+01 9.746E+01 3.510E+01 2.033E+02 2.068E+02 1.319E+06 23.1273 1.00000
  7.000E+07 7.000E+07 3.546E+00 8.260E+01 1.138E+02 4.164E+01 2.380E+02 2.416E+02 1.364E+06 23.4356 1.00000
  8.000E+07 8.000E+07 3.564E+00 9.452E+01 1.301E+02 4.829E+01 2.729E+02 2.765E+02 1.403E+06 23.7027 1.00000
  9.000E+07 9.000E+07 3.581E+00 1.064E+02 1.464E+02 5.502E+01 3.079E+02 3.115E+02 1.437E+06 23.9382 1.00000
  1.000E+08 1.000E+08 3.595E+00 1.184E+02 1.628E+02 6.185E+01 3.430E+02 3.466E+02 1.468E+06 24.1489 1.00000
  1.200E+08 1.200E+08 3.621E+00 1.422E+02 1.954E+02 7.572E+01 4.134E+02 4.170E+02 1.521E+06 24.5136 1.00000
  1.400E+08 1.400E+08 3.643E+00 1.661E+02 2.281E+02 8.986E+01 4.841E+02 4.877E+02 1.565E+06 24.8219 1.00000
  1.700E+08 1.700E+08 3.671E+00 2.019E+02 2.771E+02 1.115E+02 5.905E+02 5.942E+02 1.621E+06 25.2102 1.00000
  2.000E+08 2.000E+08 3.694E+00 2.377E+02 3.261E+02 1.336E+02 6.975E+02 7.012E+02 1.668E+06 25.5352 1.00000
  2.500E+08 2.500E+08 3.727E+00 2.975E+02 4.078E+02 1.712E+02 8.765E+02 8.802E+02 1.732E+06 25.9815 1.00000
  3.000E+08 3.000E+08 3.754E+00 3.572E+02 4.895E+02 2.097E+02 1.056E+03 1.060E+03 1.784E+06 26.3462 1.00000
  3.500E+08 3.500E+08 3.777E+00 4.170E+02 5.712E+02 2.490E+02 1.237E+03 1.241E+03 1.827E+06 26.6545 1.00000
  4.000E+08 4.000E+08 3.796E+00 4.767E+02 6.529E+02 2.890E+02 1.419E+03 1.422E+03 1.865E+06 26.9215 1.00000
  4.500E+08 4.500E+08 3.814E+00 5.365E+02 7.346E+02 3.295E+02 1.601E+03 1.604E+03 1.898E+06 27.1571 1.00000
  5.000E+08 5.000E+08 3.830E+00 5.962E+02 8.163E+02 3.705E+02 1.783E+03 1.787E+03 1.928E+06 27.3678 1.00000
  5.500E+08 5.500E+08 3.845E+00 6.560E+02 8.980E+02 4.121E+02 1.966E+03 1.970E+03 1.955E+06 27.5584 1.00000
  6.000E+08 6.000E+08 3.858E+00 7.157E+02 9.797E+02 4.540E+02 2.149E+03 2.153E+03 1.979E+06 27.7325 1.00000
  7.000E+08 7.000E+08 3.881E+00 8.353E+02 1.143E+03 5.392E+02 2.518E+03 2.521E+03 2.022E+06 28.0408 1.00000
  8.000E+08 8.000E+08 3.902E+00 9.548E+02 1.306E+03 6.258E+02 2.887E+03 2.891E+03 2.059E+06 28.3078 1.00000
  9.000E+08 9.000E+08 3.920E+00 1.074E+03 1.470E+03 7.138E+02 3.258E+03 3.262E+03 2.092E+06 28.5434 1.00000
  1.000E+09 1.000E+09 3.937E+00 1.194E+03 1.633E+03 8.029E+02 3.630E+03 3.634E+03 2.121E+06 28.7541 1.00000
