 Incident particle is a Muon with M = 105.65839 MeV
 Index = 0: Ferroboride
      Absorber with <Z/A> = 0.46503
 Sternheimer coef:  a     k=m_s   x_0    x_1    I[eV]   Cbar  delta0
                 0.1291  3.0240  0.0988  3.1749  261.0  4.2057 0.00

 *** Table generated with PUMAS v1.00 ***

      T         p     Ionization  brems     pair     photonuc  Radloss    dE/dx   CSDA Range  delta   beta
    [MeV]    [MeV/c]  -----------------------[MeV cm^2/g]------------------------  [g/cm^2]
  1.000E+00 1.457E+01 3.280E+01 2.007E-06 0.000E+00 0.000E+00 2.007E-06 3.280E+01 1.524E-02  0.0000 0.13661
  1.200E+00 1.597E+01 2.856E+01 2.307E-06 0.000E+00 0.000E+00 2.307E-06 2.856E+01 2.179E-02  0.0000 0.14944
  1.400E+00 1.726E+01 2.538E+01 2.592E-06 0.000E+00 0.000E+00 2.592E-06 2.538E+01 2.924E-02  0.0000 0.16119
  1.700E+00 1.903E+01 2.185E+01 2.997E-06 0.000E+00 0.000E+00 2.997E-06 2.185E+01 4.201E-02  0.0000 0.17725
  2.000E+00 2.066E+01 1.927E+01 3.379E-06 0.000E+00 0.000E+00 3.379E-06 1.927E+01 5.666E-02  0.0000 0.19186
  2.500E+00 2.312E+01 1.620E+01 3.974E-06 0.000E+00 0.000E+00 3.974E-06 1.620E+01 8.507E-02  0.0000 0.21376
  3.000E+00 2.536E+01 1.405E+01 4.528E-06 0.000E+00 0.000E+00 4.528E-06 1.405E+01 1.183E-01  0.0000 0.23336
  3.500E+00 2.742E+01 1.246E+01 5.048E-06 0.000E+00 0.000E+00 5.048E-06 1.246E+01 1.561E-01  0.0000 0.25120
  4.000E+00 2.935E+01 1.123E+01 5.539E-06 0.000E+00 0.000E+00 5.539E-06 1.123E+01 1.985E-01  0.0000 0.26763
  4.500E+00 3.116E+01 1.025E+01 6.006E-06 0.000E+00 0.000E+00 6.006E-06 1.025E+01 2.451E-01  0.0000 0.28290
  5.000E+00 3.289E+01 9.450E+00 6.452E-06 0.000E+00 0.000E+00 6.452E-06 9.450E+00 2.959E-01  0.0000 0.29720
  5.500E+00 3.453E+01 8.781E+00 6.880E-06 0.000E+00 0.000E+00 6.880E-06 8.781E+00 3.509E-01  0.0000 0.31066
  6.000E+00 3.611E+01 8.214E+00 7.290E-06 0.000E+00 0.000E+00 7.290E-06 8.214E+00 4.098E-01  0.0000 0.32339
  7.000E+00 3.909E+01 7.304E+00 8.069E-06 0.000E+00 0.000E+00 8.069E-06 7.304E+00 5.391E-01  0.0000 0.34700
  8.000E+00 4.189E+01 6.604E+00 8.800E-06 0.000E+00 0.000E+00 8.800E-06 6.604E+00 6.833E-01  0.0000 0.36854
  9.000E+00 4.453E+01 6.049E+00 9.490E-06 0.000E+00 0.000E+00 9.490E-06 6.049E+00 8.416E-01  0.0000 0.38836
  1.000E+01 4.704E+01 5.596E+00 1.015E-05 0.000E+00 0.000E+00 1.015E-05 5.596E+00 1.014E+00  0.0000 0.40675
  1.200E+01 5.177E+01 4.903E+00 1.137E-05 0.000E+00 0.000E+00 1.137E-05 4.903E+00 1.396E+00  0.0000 0.43998
  1.400E+01 5.616E+01 4.397E+00 1.251E-05 0.000E+00 0.000E+00 1.251E-05 4.397E+00 1.828E+00  0.0000 0.46937
  1.700E+01 6.230E+01 3.848E+00 1.409E-05 0.000E+00 0.000E+00 1.409E-05 3.848E+00 2.559E+00  0.0000 0.50792
  2.000E+01 6.802E+01 3.457E+00 1.556E-05 0.000E+00 0.000E+00 1.556E-05 3.457E+00 3.382E+00  0.0000 0.54129
  2.500E+01 7.686E+01 3.006E+00 1.784E-05 0.000E+00 0.000E+00 1.784E-05 3.006E+00 4.937E+00  0.0000 0.58827
  3.000E+01 8.509E+01 2.701E+00 1.997E-05 0.000E+00 0.000E+00 1.997E-05 2.701E+00 6.694E+00  0.0000 0.62720
  3.500E+01 9.285E+01 2.482E+00 2.200E-05 0.000E+00 0.000E+00 2.200E-05 2.482E+00 8.628E+00  0.0000 0.66011
  4.000E+01 1.003E+02 2.317E+00 2.398E-05 0.000E+00 0.000E+00 2.398E-05 2.317E+00 1.071E+01  0.0000 0.68834
  4.500E+01 1.074E+02 2.189E+00 2.592E-05 0.000E+00 0.000E+00 2.592E-05 2.189E+00 1.293E+01  0.0000 0.71286
  5.000E+01 1.143E+02 2.088E+00 2.784E-05 0.000E+00 0.000E+00 2.784E-05 2.088E+00 1.527E+01  0.0000 0.73434
  5.500E+01 1.210E+02 2.006E+00 2.974E-05 0.000E+00 0.000E+00 2.974E-05 2.006E+00 1.772E+01  0.0000 0.75332
  6.000E+01 1.276E+02 1.938E+00 3.164E-05 0.000E+00 0.000E+00 3.164E-05 1.938E+00 2.025E+01  0.0000 0.77019
  7.000E+01 1.403E+02 1.819E+00 3.546E-05 0.000E+00 0.000E+00 3.546E-05 1.819E+00 2.558E+01  0.1303 0.79887
  8.000E+01 1.527E+02 1.741E+00 3.931E-05 0.000E+00 0.000E+00 3.931E-05 1.741E+00 3.120E+01  0.1638 0.82227
  9.000E+01 1.647E+02 1.682E+00 4.321E-05 0.000E+00 0.000E+00 4.321E-05 1.682E+00 3.705E+01  0.1967 0.84166
  1.000E+02 1.764E+02 1.637E+00 4.718E-05 0.000E+00 0.000E+00 4.718E-05 1.637E+00 4.307E+01  0.2290 0.85794
  1.200E+02 1.994E+02 1.574E+00 5.535E-05 0.000E+00 0.000E+00 5.535E-05 1.574E+00 5.553E+01  0.2915 0.88361
  1.400E+02 2.218E+02 1.534E+00 6.383E-05 0.000E+00 0.000E+00 6.383E-05 1.534E+00 6.840E+01  0.3512 0.90278
  1.700E+02 2.546E+02 1.498E+00 7.714E-05 4.976E-15 0.000E+00 7.714E-05 1.498E+00 8.819E+01  0.4361 0.92363
  2.000E+02 2.868E+02 1.479E+00 9.114E-05 1.111E-12 0.000E+00 9.114E-05 1.479E+00 1.083E+02  0.5159 0.93835
  2.500E+02 3.396E+02 1.467E+00 1.159E-04 9.197E-09 0.000E+00 1.159E-04 1.467E+00 1.423E+02  0.6392 0.95485
  3.000E+02 3.917E+02 1.466E+00 1.424E-04 1.519E-06 0.000E+00 1.439E-04 1.467E+00 1.764E+02  0.7523 0.96548
  3.500E+02 4.432E+02 1.472E+00 1.704E-04 5.581E-06 0.000E+00 1.759E-04 1.472E+00 2.104E+02  0.8570 0.97274
  4.000E+02 4.945E+02 1.480E+00 1.997E-04 1.107E-05 0.000E+00 2.108E-04 1.480E+00 2.443E+02  0.9546 0.97793
  4.500E+02 5.455E+02 1.490E+00 2.304E-04 1.828E-05 0.000E+00 2.487E-04 1.490E+00 2.779E+02  1.0460 0.98176
  5.000E+02 5.964E+02 1.500E+00 2.623E-04 2.717E-05 0.000E+00 2.895E-04 1.500E+00 3.114E+02  1.1322 0.98467
  5.500E+02 6.471E+02 1.510E+00 2.953E-04 3.766E-05 0.000E+00 3.329E-04 1.510E+00 3.446E+02  1.2136 0.98693
  6.000E+02 6.977E+02 1.520E+00 3.293E-04 4.973E-05 0.000E+00 3.791E-04 1.521E+00 3.776E+02  1.2909 0.98873
  7.000E+02 7.987E+02 1.540E+00 4.003E-04 7.830E-05 0.000E+00 4.786E-04 1.540E+00 4.429E+02  1.4348 0.99136
  8.000E+02 8.995E+02 1.558E+00 4.748E-04 1.125E-04 0.000E+00 5.874E-04 1.559E+00 5.075E+02  1.5665 0.99317
  9.000E+02 1.000E+03 1.576E+00 5.525E-04 1.520E-04 0.000E+00 7.045E-04 1.576E+00 5.713E+02  1.6881 0.99447
  1.000E+03 1.101E+03 1.591E+00 6.332E-04 1.964E-04 0.000E+00 8.296E-04 1.592E+00 6.344E+02  1.8012 0.99542
  1.200E+03 1.301E+03 1.620E+00 8.023E-04 2.990E-04 2.251E-05 1.124E-03 1.621E+00 7.589E+02  2.0062 0.99672
  1.400E+03 1.502E+03 1.644E+00 9.807E-04 4.183E-04 6.136E-05 1.460E-03 1.646E+00 8.813E+02  2.1886 0.99753
  1.700E+03 1.803E+03 1.676E+00 1.263E-03 6.251E-04 1.308E-04 2.019E-03 1.678E+00 1.062E+03  2.4299 0.99829
  2.000E+03 2.103E+03 1.702E+00 1.562E-03 8.614E-04 2.123E-04 2.635E-03 1.705E+00 1.239E+03  2.6414 0.99874
  2.500E+03 2.604E+03 1.738E+00 2.088E-03 1.312E-03 3.689E-04 3.769E-03 1.742E+00 1.529E+03  2.9454 0.99918
  3.000E+03 3.104E+03 1.768E+00 2.645E-03 1.824E-03 5.325E-04 5.001E-03 1.773E+00 1.814E+03  3.2050 0.99942
  3.500E+03 3.604E+03 1.792E+00 3.228E-03 2.388E-03 7.051E-04 6.322E-03 1.799E+00 2.094E+03  3.4319 0.99957
  4.000E+03 4.104E+03 1.813E+00 3.834E-03 3.010E-03 8.891E-04 7.734E-03 1.821E+00 2.370E+03  3.6338 0.99967
  4.500E+03 4.604E+03 1.831E+00 4.461E-03 3.680E-03 1.080E-03 9.220E-03 1.841E+00 2.643E+03  3.8158 0.99974
  5.000E+03 5.105E+03 1.848E+00 5.105E-03 4.387E-03 1.263E-03 1.075E-02 1.858E+00 2.914E+03  3.9816 0.99979
  5.500E+03 5.605E+03 1.862E+00 5.765E-03 5.129E-03 1.460E-03 1.235E-02 1.874E+00 3.182E+03  4.1339 0.99982
  6.000E+03 6.105E+03 1.875E+00 6.440E-03 5.903E-03 1.644E-03 1.399E-02 1.889E+00 3.447E+03  4.2749 0.99985
  7.000E+03 7.105E+03 1.897E+00 7.829E-03 7.537E-03 2.032E-03 1.740E-02 1.915E+00 3.973E+03  4.5289 0.99989
  8.000E+03 8.105E+03 1.917E+00 9.266E-03 9.271E-03 2.417E-03 2.095E-02 1.938E+00 4.492E+03  4.7532 0.99992
  9.000E+03 9.105E+03 1.933E+00 1.074E-02 1.109E-02 2.778E-03 2.462E-02 1.958E+00 5.006E+03  4.9542 0.99993
  1.000E+04 1.011E+04 1.948E+00 1.226E-02 1.300E-02 3.151E-03 2.841E-02 1.976E+00 5.514E+03  5.1363 0.99995
  1.200E+04 1.211E+04 1.972E+00 1.538E-02 1.701E-02 3.906E-03 3.629E-02 2.009E+00 6.518E+03  5.4565 0.99996
  1.400E+04 1.411E+04 1.993E+00 1.862E-02 2.125E-02 4.662E-03 4.453E-02 2.037E+00 7.507E+03  5.7319 0.99997
  1.700E+04 1.711E+04 2.017E+00 2.364E-02 2.798E-02 5.780E-03 5.740E-02 2.075E+00 8.966E+03  6.0843 0.99998
  2.000E+04 2.011E+04 2.037E+00 2.884E-02 3.507E-02 6.876E-03 7.078E-02 2.108E+00 1.040E+04  6.3838 0.99999
  2.500E+04 2.511E+04 2.064E+00 3.781E-02 4.753E-02 8.675E-03 9.402E-02 2.158E+00 1.274E+04  6.8011 0.99999
  3.000E+04 3.011E+04 2.085E+00 4.711E-02 6.065E-02 1.044E-02 1.182E-01 2.203E+00 1.504E+04  7.1466 0.99999
  3.500E+04 3.511E+04 2.102E+00 5.666E-02 7.429E-02 1.222E-02 1.432E-01 2.246E+00 1.729E+04  7.4418 1.00000
  4.000E+04 4.011E+04 2.117E+00 6.644E-02 8.836E-02 1.398E-02 1.688E-01 2.286E+00 1.949E+04  7.6994 1.00000
  4.500E+04 4.511E+04 2.130E+00 7.642E-02 1.028E-01 1.571E-02 1.949E-01 2.325E+00 2.166E+04  7.9279 1.00000
  5.000E+04 5.011E+04 2.141E+00 8.656E-02 1.175E-01 1.745E-02 2.216E-01 2.362E+00 2.380E+04  8.1334 1.00000
  5.500E+04 5.511E+04 2.151E+00 9.685E-02 1.326E-01 1.920E-02 2.486E-01 2.399E+00 2.590E+04  8.3200 1.00000
  6.000E+04 6.011E+04 2.160E+00 1.073E-01 1.478E-01 2.093E-02 2.760E-01 2.436E+00 2.796E+04  8.4910 1.00000
  7.000E+04 7.011E+04 2.176E+00 1.285E-01 1.790E-01 2.436E-02 3.318E-01 2.507E+00 3.201E+04  8.7949 1.00000
  8.000E+04 8.011E+04 2.189E+00 1.501E-01 2.109E-01 2.779E-02 3.887E-01 2.578E+00 3.594E+04  9.0593 1.00000
  9.000E+04 9.011E+04 2.201E+00 1.720E-01 2.433E-01 3.123E-02 4.466E-01 2.647E+00 3.977E+04  9.2932 1.00000
  1.000E+05 1.001E+05 2.211E+00 1.943E-01 2.763E-01 3.461E-02 5.052E-01 2.716E+00 4.350E+04  9.5028 1.00000
  1.200E+05 1.201E+05 2.229E+00 2.396E-01 3.434E-01 4.148E-02 6.245E-01 2.853E+00 5.069E+04  9.8663 1.00000
  1.400E+05 1.401E+05 2.244E+00 2.857E-01 4.119E-01 4.834E-02 7.460E-01 2.990E+00 5.754E+04 10.1742 1.00000
  1.700E+05 1.701E+05 2.262E+00 3.563E-01 5.166E-01 5.864E-02 9.315E-01 3.194E+00 6.725E+04 10.5622 1.00000
  2.000E+05 2.001E+05 2.278E+00 4.281E-01 6.230E-01 6.900E-02 1.120E+00 3.398E+00 7.637E+04 10.8871 1.00000
  2.500E+05 2.501E+05 2.299E+00 5.500E-01 8.034E-01 8.631E-02 1.440E+00 3.739E+00 9.041E+04 11.3332 1.00000
  3.000E+05 3.001E+05 2.316E+00 6.741E-01 9.865E-01 1.038E-01 1.764E+00 4.081E+00 1.032E+05 11.6977 1.00000
  3.500E+05 3.501E+05 2.331E+00 7.999E-01 1.172E+00 1.214E-01 2.093E+00 4.424E+00 1.150E+05 12.0059 1.00000
  4.000E+05 4.001E+05 2.344E+00 9.270E-01 1.358E+00 1.391E-01 2.425E+00 4.768E+00 1.259E+05 12.2728 1.00000
  4.500E+05 4.501E+05 2.355E+00 1.055E+00 1.547E+00 1.570E-01 2.759E+00 5.114E+00 1.360E+05 12.5084 1.00000
  5.000E+05 5.001E+05 2.365E+00 1.185E+00 1.736E+00 1.749E-01 3.095E+00 5.460E+00 1.455E+05 12.7190 1.00000
  5.500E+05 5.501E+05 2.374E+00 1.315E+00 1.926E+00 1.928E-01 3.433E+00 5.808E+00 1.544E+05 12.9096 1.00000
  6.000E+05 6.001E+05 2.382E+00 1.446E+00 2.117E+00 2.107E-01 3.773E+00 6.156E+00 1.627E+05 13.0836 1.00000
  7.000E+05 7.001E+05 2.397E+00 1.710E+00 2.500E+00 2.469E-01 4.457E+00 6.854E+00 1.782E+05 13.3919 1.00000
  8.000E+05 8.001E+05 2.410E+00 1.975E+00 2.886E+00 2.835E-01 5.145E+00 7.555E+00 1.921E+05 13.6589 1.00000
  9.000E+05 9.001E+05 2.422E+00 2.243E+00 3.273E+00 3.204E-01 5.837E+00 8.258E+00 2.047E+05 13.8944 1.00000
  1.000E+06 1.000E+06 2.432E+00 2.512E+00 3.662E+00 3.577E-01 6.532E+00 8.963E+00 2.164E+05 14.1051 1.00000
  1.200E+06 1.200E+06 2.450E+00 3.054E+00 4.442E+00 4.331E-01 7.929E+00 1.038E+01 2.372E+05 14.4697 1.00000
  1.400E+06 1.400E+06 2.465E+00 3.600E+00 5.226E+00 5.096E-01 9.335E+00 1.180E+01 2.553E+05 14.7780 1.00000
  1.700E+06 1.700E+06 2.484E+00 4.424E+00 6.406E+00 6.261E-01 1.146E+01 1.394E+01 2.788E+05 15.1663 1.00000
  2.000E+06 2.000E+06 2.500E+00 5.254E+00 7.590E+00 7.445E-01 1.359E+01 1.609E+01 2.988E+05 15.4913 1.00000
  2.500E+06 2.500E+06 2.522E+00 6.645E+00 9.570E+00 9.455E-01 1.716E+01 1.968E+01 3.271E+05 15.9376 1.00000
  3.000E+06 3.000E+06 2.541E+00 8.044E+00 1.156E+01 1.150E+00 2.075E+01 2.329E+01 3.505E+05 16.3022 1.00000
  3.500E+06 3.500E+06 2.557E+00 9.449E+00 1.355E+01 1.358E+00 2.435E+01 2.691E+01 3.705E+05 16.6105 1.00000
  4.000E+06 4.000E+06 2.570E+00 1.086E+01 1.554E+01 1.570E+00 2.797E+01 3.054E+01 3.880E+05 16.8775 1.00000
  4.500E+06 4.500E+06 2.582E+00 1.227E+01 1.754E+01 1.783E+00 3.159E+01 3.417E+01 4.035E+05 17.1131 1.00000
  5.000E+06 5.000E+06 2.593E+00 1.369E+01 1.953E+01 1.999E+00 3.522E+01 3.781E+01 4.174E+05 17.3238 1.00000
  5.500E+06 5.500E+06 2.603E+00 1.511E+01 2.153E+01 2.218E+00 3.886E+01 4.146E+01 4.301E+05 17.5144 1.00000
  6.000E+06 6.000E+06 2.612E+00 1.653E+01 2.353E+01 2.438E+00 4.250E+01 4.511E+01 4.417E+05 17.6885 1.00000
  7.000E+06 7.000E+06 2.628E+00 1.938E+01 2.754E+01 2.884E+00 4.980E+01 5.243E+01 4.623E+05 17.9967 1.00000
  8.000E+06 8.000E+06 2.642E+00 2.223E+01 3.155E+01 3.337E+00 5.711E+01 5.975E+01 4.802E+05 18.2638 1.00000
  9.000E+06 9.000E+06 2.655E+00 2.509E+01 3.556E+01 3.796E+00 6.444E+01 6.709E+01 4.960E+05 18.4994 1.00000
  1.000E+07 1.000E+07 2.666E+00 2.795E+01 3.957E+01 4.260E+00 7.178E+01 7.444E+01 5.102E+05 18.7101 1.00000
  1.200E+07 1.200E+07 2.686E+00 3.368E+01 4.760E+01 5.203E+00 8.648E+01 8.917E+01 5.348E+05 19.0747 1.00000
  1.400E+07 1.400E+07 2.702E+00 3.942E+01 5.564E+01 6.162E+00 1.012E+02 1.039E+02 5.557E+05 19.3830 1.00000
  1.700E+07 1.700E+07 2.723E+00 4.804E+01 6.770E+01 7.629E+00 1.234E+02 1.261E+02 5.820E+05 19.7713 1.00000
  2.000E+07 2.000E+07 2.741E+00 5.667E+01 7.977E+01 9.124E+00 1.456E+02 1.483E+02 6.040E+05 20.0964 1.00000
  2.500E+07 2.500E+07 2.766E+00 7.107E+01 9.989E+01 1.167E+01 1.826E+02 1.854E+02 6.343E+05 20.5427 1.00000
  3.000E+07 3.000E+07 2.786E+00 8.549E+01 1.200E+02 1.427E+01 2.198E+02 2.226E+02 6.591E+05 20.9073 1.00000
  3.500E+07 3.500E+07 2.804E+00 9.992E+01 1.402E+02 1.692E+01 2.570E+02 2.598E+02 6.799E+05 21.2156 1.00000
  4.000E+07 4.000E+07 2.819E+00 1.144E+02 1.603E+02 1.961E+01 2.943E+02 2.971E+02 6.979E+05 21.4827 1.00000
  4.500E+07 4.500E+07 2.832E+00 1.288E+02 1.804E+02 2.234E+01 3.316E+02 3.344E+02 7.138E+05 21.7182 1.00000
  5.000E+07 5.000E+07 2.844E+00 1.432E+02 2.006E+02 2.510E+01 3.689E+02 3.718E+02 7.280E+05 21.9289 1.00000
  5.500E+07 5.500E+07 2.855E+00 1.577E+02 2.207E+02 2.789E+01 4.063E+02 4.092E+02 7.409E+05 22.1196 1.00000
  6.000E+07 6.000E+07 2.865E+00 1.722E+02 2.409E+02 3.071E+01 4.437E+02 4.466E+02 7.526E+05 22.2936 1.00000
  7.000E+07 7.000E+07 2.883E+00 2.011E+02 2.812E+02 3.643E+01 5.187E+02 5.216E+02 7.734E+05 22.6019 1.00000
  8.000E+07 8.000E+07 2.899E+00 2.300E+02 3.215E+02 4.225E+01 5.937E+02 5.966E+02 7.913E+05 22.8690 1.00000
  9.000E+07 9.000E+07 2.913E+00 2.589E+02 3.618E+02 4.814E+01 6.689E+02 6.718E+02 8.072E+05 23.1045 1.00000
  1.000E+08 1.000E+08 2.925E+00 2.879E+02 4.021E+02 5.411E+01 7.441E+02 7.470E+02 8.213E+05 23.3152 1.00000
  1.200E+08 1.200E+08 2.947E+00 3.458E+02 4.827E+02 6.625E+01 8.947E+02 8.977E+02 8.458E+05 23.6799 1.00000
  1.400E+08 1.400E+08 2.966E+00 4.037E+02 5.633E+02 7.862E+01 1.046E+03 1.049E+03 8.665E+05 23.9882 1.00000
  1.700E+08 1.700E+08 2.989E+00 4.905E+02 6.843E+02 9.755E+01 1.272E+03 1.275E+03 8.926E+05 24.3765 1.00000
  2.000E+08 2.000E+08 3.009E+00 5.774E+02 8.052E+02 1.169E+02 1.499E+03 1.503E+03 9.143E+05 24.7015 1.00000
  2.500E+08 2.500E+08 3.037E+00 7.222E+02 1.007E+03 1.498E+02 1.879E+03 1.882E+03 9.442E+05 25.1478 1.00000
  3.000E+08 3.000E+08 3.059E+00 8.671E+02 1.208E+03 1.835E+02 2.259E+03 2.262E+03 9.686E+05 25.5125 1.00000
  3.500E+08 3.500E+08 3.079E+00 1.012E+03 1.410E+03 2.179E+02 2.640E+03 2.643E+03 9.891E+05 25.8208 1.00000
  4.000E+08 4.000E+08 3.096E+00 1.157E+03 1.612E+03 2.528E+02 3.021E+03 3.024E+03 1.007E+06 26.0878 1.00000
  4.500E+08 4.500E+08 3.111E+00 1.302E+03 1.813E+03 2.882E+02 3.403E+03 3.406E+03 1.022E+06 26.3234 1.00000
  5.000E+08 5.000E+08 3.124E+00 1.446E+03 2.015E+03 3.242E+02 3.785E+03 3.788E+03 1.036E+06 26.5341 1.00000
  5.500E+08 5.500E+08 3.137E+00 1.591E+03 2.216E+03 3.605E+02 4.168E+03 4.171E+03 1.049E+06 26.7247 1.00000
  6.000E+08 6.000E+08 3.148E+00 1.736E+03 2.418E+03 3.972E+02 4.551E+03 4.554E+03 1.060E+06 26.8988 1.00000
  7.000E+08 7.000E+08 3.168E+00 2.026E+03 2.821E+03 4.717E+02 5.319E+03 5.322E+03 1.081E+06 27.2071 1.00000
  8.000E+08 8.000E+08 3.185E+00 2.316E+03 3.224E+03 5.475E+02 6.087E+03 6.091E+03 1.098E+06 27.4741 1.00000
  9.000E+08 9.000E+08 3.201E+00 2.605E+03 3.627E+03 6.244E+02 6.857E+03 6.860E+03 1.114E+06 27.7097 1.00000
  1.000E+09 1.000E+09 3.215E+00 2.895E+03 4.030E+03 7.024E+02 7.628E+03 7.631E+03 1.128E+06 27.9204 1.00000
