 Incident particle is a Muon with M = 105.65839 MeV
 Index = 0: FerrousSulfateDosimeterSolution
      Absorber with <Z/A> = 0.55320
 Sternheimer coef:  a     k=m_s   x_0    x_1    I[eV]   Cbar  delta0
                 0.0876  3.4923  0.2378  2.8254   76.4  3.5183 0.00

 *** Table generated with PUMAS v1.00 ***

      T         p     Ionization  brems     pair     photonuc  Radloss    dE/dx   CSDA Range  delta   beta
    [MeV]    [MeV/c]  -----------------------[MeV cm^2/g]------------------------  [g/cm^2]
  1.000E+00 1.457E+01 5.020E+01 8.011E-07 0.000E+00 0.000E+00 8.011E-07 5.020E+01 9.960E-03  0.0000 0.13661
  1.200E+00 1.597E+01 4.332E+01 9.181E-07 0.000E+00 0.000E+00 9.181E-07 4.332E+01 1.426E-02  0.0000 0.14944
  1.400E+00 1.726E+01 3.822E+01 1.030E-06 0.000E+00 0.000E+00 1.030E-06 3.822E+01 1.918E-02  0.0000 0.16119
  1.700E+00 1.903E+01 3.264E+01 1.189E-06 0.000E+00 0.000E+00 1.189E-06 3.264E+01 2.770E-02  0.0000 0.17725
  2.000E+00 2.066E+01 2.859E+01 1.340E-06 0.000E+00 0.000E+00 1.340E-06 2.859E+01 3.755E-02  0.0000 0.19186
  2.500E+00 2.312E+01 2.384E+01 1.577E-06 0.000E+00 0.000E+00 1.577E-06 2.384E+01 5.678E-02  0.0000 0.21376
  3.000E+00 2.536E+01 2.055E+01 1.798E-06 0.000E+00 0.000E+00 1.798E-06 2.055E+01 7.943E-02  0.0000 0.23336
  3.500E+00 2.742E+01 1.813E+01 2.007E-06 0.000E+00 0.000E+00 2.007E-06 1.813E+01 1.054E-01  0.0000 0.25120
  4.000E+00 2.935E+01 1.628E+01 2.206E-06 0.000E+00 0.000E+00 2.206E-06 1.628E+01 1.345E-01  0.0000 0.26763
  4.500E+00 3.116E+01 1.480E+01 2.395E-06 0.000E+00 0.000E+00 2.395E-06 1.480E+01 1.668E-01  0.0000 0.28290
  5.000E+00 3.289E+01 1.360E+01 2.577E-06 0.000E+00 0.000E+00 2.577E-06 1.360E+01 2.020E-01  0.0000 0.29720
  5.500E+00 3.453E+01 1.261E+01 2.752E-06 0.000E+00 0.000E+00 2.752E-06 1.261E+01 2.402E-01  0.0000 0.31066
  6.000E+00 3.611E+01 1.177E+01 2.920E-06 0.000E+00 0.000E+00 2.920E-06 1.177E+01 2.813E-01  0.0000 0.32339
  7.000E+00 3.909E+01 1.042E+01 3.241E-06 0.000E+00 0.000E+00 3.241E-06 1.042E+01 3.718E-01  0.0000 0.34700
  8.000E+00 4.189E+01 9.393E+00 3.543E-06 0.000E+00 0.000E+00 3.543E-06 9.393E+00 4.730E-01  0.0000 0.36854
  9.000E+00 4.453E+01 8.579E+00 3.830E-06 0.000E+00 0.000E+00 3.830E-06 8.579E+00 5.845E-01  0.0000 0.38836
  1.000E+01 4.704E+01 7.919E+00 4.104E-06 0.000E+00 0.000E+00 4.104E-06 7.919E+00 7.059E-01  0.0000 0.40675
  1.200E+01 5.177E+01 6.911E+00 4.619E-06 0.000E+00 0.000E+00 4.619E-06 6.911E+00 9.769E-01  0.0000 0.43998
  1.400E+01 5.616E+01 6.178E+00 5.099E-06 0.000E+00 0.000E+00 5.099E-06 6.178E+00 1.283E+00  0.0000 0.46937
  1.700E+01 6.230E+01 5.387E+00 5.768E-06 0.000E+00 0.000E+00 5.768E-06 5.387E+00 1.805E+00  0.0000 0.50792
  2.000E+01 6.802E+01 4.825E+00 6.392E-06 0.000E+00 0.000E+00 6.392E-06 4.825E+00 2.394E+00  0.0000 0.54129
  2.500E+01 7.686E+01 4.179E+00 7.361E-06 0.000E+00 0.000E+00 7.361E-06 4.179E+00 3.510E+00  0.0000 0.58827
  3.000E+01 8.509E+01 3.743E+00 8.269E-06 0.000E+00 0.000E+00 8.269E-06 3.743E+00 4.777E+00  0.0000 0.62720
  3.500E+01 9.285E+01 3.431E+00 9.136E-06 0.000E+00 0.000E+00 9.136E-06 3.431E+00 6.173E+00  0.0000 0.66011
  4.000E+01 1.003E+02 3.197E+00 9.978E-06 0.000E+00 0.000E+00 9.978E-06 3.197E+00 7.684E+00  0.0000 0.68834
  4.500E+01 1.074E+02 3.015E+00 1.080E-05 0.000E+00 0.000E+00 1.080E-05 3.015E+00 9.295E+00  0.0000 0.71286
  5.000E+01 1.143E+02 2.871E+00 1.161E-05 0.000E+00 0.000E+00 1.161E-05 2.871E+00 1.100E+01  0.0000 0.73434
  5.500E+01 1.210E+02 2.754E+00 1.242E-05 0.000E+00 0.000E+00 1.242E-05 2.754E+00 1.277E+01  0.0000 0.75332
  6.000E+01 1.276E+02 2.657E+00 1.322E-05 0.000E+00 0.000E+00 1.322E-05 2.657E+00 1.462E+01  0.0000 0.77019
  7.000E+01 1.403E+02 2.508E+00 1.483E-05 0.000E+00 0.000E+00 1.483E-05 2.508E+00 1.850E+01  0.0000 0.79887
  8.000E+01 1.527E+02 2.400E+00 1.645E-05 0.000E+00 0.000E+00 1.645E-05 2.400E+00 2.257E+01  0.0000 0.82227
  9.000E+01 1.647E+02 2.320E+00 1.809E-05 0.000E+00 0.000E+00 1.809E-05 2.320E+00 2.681E+01  0.0000 0.84166
  1.000E+02 1.764E+02 2.258E+00 1.975E-05 0.000E+00 0.000E+00 1.975E-05 2.258E+00 3.118E+01  0.0000 0.85794
  1.200E+02 1.994E+02 2.166E+00 2.316E-05 0.000E+00 0.000E+00 2.316E-05 2.166E+00 4.023E+01  0.0534 0.88361
  1.400E+02 2.218E+02 2.105E+00 2.669E-05 0.000E+00 0.000E+00 2.669E-05 2.105E+00 4.960E+01  0.1238 0.90278
  1.700E+02 2.546E+02 2.048E+00 3.221E-05 4.607E-14 0.000E+00 3.221E-05 2.048E+00 6.405E+01  0.2246 0.92363
  2.000E+02 2.868E+02 2.016E+00 3.800E-05 1.030E-11 0.000E+00 3.800E-05 2.016E+00 7.881E+01  0.3200 0.93835
  2.500E+02 3.396E+02 1.990E+00 4.822E-05 8.646E-08 0.000E+00 4.831E-05 1.990E+00 1.038E+02  0.4681 0.95485
  3.000E+02 3.917E+02 1.982E+00 5.909E-05 7.743E-07 0.000E+00 5.987E-05 1.982E+00 1.290E+02  0.6043 0.96548
  3.500E+02 4.432E+02 1.983E+00 7.057E-05 2.134E-06 0.000E+00 7.270E-05 1.983E+00 1.542E+02  0.7305 0.97274
  4.000E+02 4.945E+02 1.988E+00 8.259E-05 4.135E-06 0.000E+00 8.672E-05 1.988E+00 1.794E+02  0.8480 0.97793
  4.500E+02 5.455E+02 1.996E+00 9.511E-05 6.754E-06 0.000E+00 1.019E-04 1.996E+00 2.045E+02  0.9582 0.98176
  5.000E+02 5.964E+02 2.005E+00 1.081E-04 9.970E-06 0.000E+00 1.181E-04 2.006E+00 2.294E+02  1.0618 0.98467
  5.500E+02 6.471E+02 2.015E+00 1.215E-04 1.376E-05 0.000E+00 1.353E-04 2.015E+00 2.543E+02  1.1596 0.98693
  6.000E+02 6.977E+02 2.025E+00 1.354E-04 1.811E-05 0.000E+00 1.535E-04 2.025E+00 2.791E+02  1.2524 0.98873
  7.000E+02 7.987E+02 2.045E+00 1.642E-04 2.839E-05 0.000E+00 1.926E-04 2.045E+00 3.282E+02  1.4247 0.99136
  8.000E+02 8.995E+02 2.064E+00 1.944E-04 4.069E-05 0.000E+00 2.351E-04 2.064E+00 3.769E+02  1.5820 0.99317
  9.000E+02 1.000E+03 2.082E+00 2.258E-04 5.486E-05 0.000E+00 2.807E-04 2.082E+00 4.251E+02  1.7268 0.99447
  1.000E+03 1.101E+03 2.099E+00 2.584E-04 7.081E-05 0.000E+00 3.292E-04 2.099E+00 4.729E+02  1.8610 0.99542
  1.200E+03 1.301E+03 2.129E+00 3.267E-04 1.076E-04 2.256E-05 4.568E-04 2.129E+00 5.675E+02  2.1036 0.99672
  1.400E+03 1.502E+03 2.155E+00 3.985E-04 1.503E-04 6.180E-05 6.106E-04 2.155E+00 6.609E+02  2.3184 0.99753
  1.700E+03 1.803E+03 2.188E+00 5.122E-04 2.244E-04 1.326E-04 8.692E-04 2.189E+00 7.990E+02  2.6010 0.99829
  2.000E+03 2.103E+03 2.217E+00 6.320E-04 3.090E-04 2.164E-04 1.157E-03 2.218E+00 9.352E+02  2.8472 0.99874
  2.500E+03 2.604E+03 2.255E+00 8.433E-04 4.704E-04 3.787E-04 1.692E-03 2.257E+00 1.159E+03  3.1988 0.99918
  3.000E+03 3.104E+03 2.287E+00 1.067E-03 6.537E-04 5.497E-04 2.270E-03 2.289E+00 1.379E+03  3.4967 0.99942
  3.500E+03 3.604E+03 2.313E+00 1.301E-03 8.559E-04 7.315E-04 2.888E-03 2.316E+00 1.596E+03  3.7556 0.99957
  4.000E+03 4.104E+03 2.336E+00 1.544E-03 1.090E-03 9.261E-04 3.560E-03 2.340E+00 1.811E+03  3.9845 0.99967
  4.500E+03 4.604E+03 2.356E+00 1.795E-03 1.346E-03 1.129E-03 4.270E-03 2.360E+00 2.023E+03  4.1898 0.99974
  5.000E+03 5.105E+03 2.373E+00 2.054E-03 1.617E-03 1.324E-03 4.994E-03 2.378E+00 2.234E+03  4.3761 0.99979
  5.500E+03 5.605E+03 2.389E+00 2.319E-03 1.902E-03 1.535E-03 5.755E-03 2.394E+00 2.444E+03  4.5465 0.99982
  6.000E+03 6.105E+03 2.403E+00 2.590E-03 2.199E-03 1.731E-03 6.520E-03 2.409E+00 2.652E+03  4.7036 0.99985
  7.000E+03 7.105E+03 2.427E+00 3.148E-03 2.829E-03 2.149E-03 8.126E-03 2.435E+00 3.065E+03  4.9853 0.99989
  8.000E+03 8.105E+03 2.448E+00 3.726E-03 3.500E-03 2.564E-03 9.790E-03 2.458E+00 3.474E+03  5.2325 0.99992
  9.000E+03 9.105E+03 2.466E+00 4.321E-03 4.207E-03 2.955E-03 1.148E-02 2.478E+00 3.879E+03  5.4528 0.99993
  1.000E+04 1.011E+04 2.482E+00 4.931E-03 4.946E-03 3.359E-03 1.324E-02 2.495E+00 4.281E+03  5.6515 0.99995
  1.200E+04 1.211E+04 2.509E+00 6.192E-03 6.509E-03 4.180E-03 1.688E-02 2.526E+00 5.078E+03  5.9986 0.99996
  1.400E+04 1.411E+04 2.531E+00 7.499E-03 8.169E-03 5.005E-03 2.067E-02 2.552E+00 5.866E+03  6.2951 0.99997
  1.700E+04 1.711E+04 2.559E+00 9.532E-03 1.081E-02 6.229E-03 2.657E-02 2.585E+00 7.034E+03  6.6717 0.99998
  2.000E+04 2.011E+04 2.581E+00 1.164E-02 1.360E-02 7.434E-03 3.268E-02 2.614E+00 8.188E+03  6.9893 0.99999
  2.500E+04 2.511E+04 2.611E+00 1.529E-02 1.853E-02 9.416E-03 4.324E-02 2.654E+00 1.009E+04  7.4283 0.99999
  3.000E+04 3.011E+04 2.635E+00 1.907E-02 2.374E-02 1.137E-02 5.418E-02 2.689E+00 1.196E+04  7.7889 0.99999
  3.500E+04 3.511E+04 2.654E+00 2.297E-02 2.918E-02 1.334E-02 6.549E-02 2.720E+00 1.381E+04  8.0949 1.00000
  4.000E+04 4.011E+04 2.671E+00 2.697E-02 3.480E-02 1.530E-02 7.707E-02 2.748E+00 1.564E+04  8.3605 1.00000
  4.500E+04 4.511E+04 2.686E+00 3.105E-02 4.059E-02 1.723E-02 8.887E-02 2.774E+00 1.745E+04  8.5951 1.00000
  5.000E+04 5.011E+04 2.698E+00 3.521E-02 4.651E-02 1.917E-02 1.009E-01 2.799E+00 1.924E+04  8.8052 1.00000
  5.500E+04 5.511E+04 2.710E+00 3.943E-02 5.256E-02 2.112E-02 1.131E-01 2.823E+00 2.102E+04  8.9953 1.00000
  6.000E+04 6.011E+04 2.720E+00 4.371E-02 5.872E-02 2.305E-02 1.255E-01 2.846E+00 2.278E+04  9.1690 1.00000
  7.000E+04 7.011E+04 2.739E+00 5.243E-02 7.133E-02 2.689E-02 1.506E-01 2.889E+00 2.627E+04  9.4768 1.00000
  8.000E+04 8.011E+04 2.754E+00 6.134E-02 8.426E-02 3.074E-02 1.763E-01 2.931E+00 2.971E+04  9.7435 1.00000
  9.000E+04 9.011E+04 2.768E+00 7.040E-02 9.746E-02 3.460E-02 2.025E-01 2.971E+00 3.310E+04  9.9788 1.00000
  1.000E+05 1.001E+05 2.780E+00 7.960E-02 1.109E-01 3.839E-02 2.289E-01 3.009E+00 3.644E+04 10.1892 1.00000
  1.200E+05 1.201E+05 2.802E+00 9.836E-02 1.384E-01 4.611E-02 2.828E-01 3.084E+00 4.301E+04 10.5535 1.00000
  1.400E+05 1.401E+05 2.819E+00 1.175E-01 1.665E-01 5.384E-02 3.378E-01 3.157E+00 4.942E+04 10.8616 1.00000
  1.700E+05 1.701E+05 2.841E+00 1.469E-01 2.095E-01 6.546E-02 4.219E-01 3.263E+00 5.876E+04 11.2496 1.00000
  2.000E+05 2.001E+05 2.860E+00 1.768E-01 2.535E-01 7.715E-02 5.074E-01 3.367E+00 6.782E+04 11.5745 1.00000
  2.500E+05 2.501E+05 2.885E+00 2.277E-01 3.283E-01 9.672E-02 6.527E-01 3.538E+00 8.231E+04 12.0206 1.00000
  3.000E+05 3.001E+05 2.906E+00 2.797E-01 4.044E-01 1.164E-01 8.006E-01 3.706E+00 9.612E+04 12.3851 1.00000
  3.500E+05 3.501E+05 2.923E+00 3.325E-01 4.817E-01 1.364E-01 9.506E-01 3.874E+00 1.093E+05 12.6933 1.00000
  4.000E+05 4.001E+05 2.938E+00 3.859E-01 5.598E-01 1.565E-01 1.102E+00 4.040E+00 1.220E+05 12.9602 1.00000
  4.500E+05 4.501E+05 2.952E+00 4.399E-01 6.385E-01 1.767E-01 1.255E+00 4.207E+00 1.341E+05 13.1958 1.00000
  5.000E+05 5.001E+05 2.964E+00 4.944E-01 7.178E-01 1.971E-01 1.409E+00 4.373E+00 1.457E+05 13.4064 1.00000
  5.500E+05 5.501E+05 2.975E+00 5.494E-01 7.976E-01 2.173E-01 1.564E+00 4.539E+00 1.570E+05 13.5970 1.00000
  6.000E+05 6.001E+05 2.984E+00 6.047E-01 8.778E-01 2.377E-01 1.720E+00 4.705E+00 1.678E+05 13.7710 1.00000
  7.000E+05 7.001E+05 3.002E+00 7.163E-01 1.039E+00 2.788E-01 2.034E+00 5.036E+00 1.883E+05 14.0793 1.00000
  8.000E+05 8.001E+05 3.017E+00 8.290E-01 1.202E+00 3.203E-01 2.351E+00 5.369E+00 2.076E+05 14.3463 1.00000
  9.000E+05 9.001E+05 3.031E+00 9.426E-01 1.365E+00 3.622E-01 2.670E+00 5.701E+00 2.257E+05 14.5818 1.00000
  1.000E+06 1.000E+06 3.043E+00 1.057E+00 1.530E+00 4.046E-01 2.991E+00 6.034E+00 2.427E+05 14.7925 1.00000
  1.200E+06 1.200E+06 3.064E+00 1.287E+00 1.860E+00 4.903E-01 3.638E+00 6.702E+00 2.742E+05 15.1571 1.00000
  1.400E+06 1.400E+06 3.082E+00 1.520E+00 2.192E+00 5.772E-01 4.289E+00 7.372E+00 3.027E+05 15.4654 1.00000
  1.700E+06 1.700E+06 3.105E+00 1.872E+00 2.693E+00 7.097E-01 5.274E+00 8.380E+00 3.410E+05 15.8537 1.00000
  2.000E+06 2.000E+06 3.124E+00 2.227E+00 3.196E+00 8.443E-01 6.267E+00 9.391E+00 3.748E+05 16.1787 1.00000
  2.500E+06 2.500E+06 3.151E+00 2.823E+00 4.038E+00 1.073E+00 7.933E+00 1.108E+01 4.240E+05 16.6250 1.00000
  3.000E+06 3.000E+06 3.173E+00 3.423E+00 4.883E+00 1.306E+00 9.612E+00 1.278E+01 4.661E+05 16.9896 1.00000
  3.500E+06 3.500E+06 3.192E+00 4.027E+00 5.731E+00 1.542E+00 1.130E+01 1.449E+01 5.029E+05 17.2979 1.00000
  4.000E+06 4.000E+06 3.208E+00 4.633E+00 6.580E+00 1.783E+00 1.300E+01 1.620E+01 5.356E+05 17.5649 1.00000
  4.500E+06 4.500E+06 3.222E+00 5.241E+00 7.431E+00 2.026E+00 1.470E+01 1.792E+01 5.650E+05 17.8005 1.00000
  5.000E+06 5.000E+06 3.235E+00 5.851E+00 8.283E+00 2.272E+00 1.641E+01 1.964E+01 5.917E+05 18.0112 1.00000
  5.500E+06 5.500E+06 3.247E+00 6.463E+00 9.136E+00 2.520E+00 1.812E+01 2.137E+01 6.161E+05 18.2018 1.00000
  6.000E+06 6.000E+06 3.258E+00 7.076E+00 9.990E+00 2.771E+00 1.984E+01 2.309E+01 6.386E+05 18.3759 1.00000
  7.000E+06 7.000E+06 3.277E+00 8.305E+00 1.170E+01 3.278E+00 2.328E+01 2.656E+01 6.791E+05 18.6841 1.00000
  8.000E+06 8.000E+06 3.294E+00 9.537E+00 1.341E+01 3.794E+00 2.674E+01 3.004E+01 7.146E+05 18.9512 1.00000
  9.000E+06 9.000E+06 3.309E+00 1.077E+01 1.512E+01 4.316E+00 3.021E+01 3.352E+01 7.461E+05 19.1868 1.00000
  1.000E+07 1.000E+07 3.322E+00 1.201E+01 1.684E+01 4.844E+00 3.369E+01 3.701E+01 7.746E+05 19.3975 1.00000
  1.200E+07 1.200E+07 3.345E+00 1.449E+01 2.027E+01 5.917E+00 4.068E+01 4.402E+01 8.243E+05 19.7621 1.00000
  1.400E+07 1.400E+07 3.365E+00 1.697E+01 2.370E+01 7.009E+00 4.769E+01 5.105E+01 8.666E+05 20.0704 1.00000
  1.700E+07 1.700E+07 3.390E+00 2.071E+01 2.886E+01 8.678E+00 5.825E+01 6.164E+01 9.203E+05 20.4587 1.00000
  2.000E+07 2.000E+07 3.411E+00 2.445E+01 3.402E+01 1.038E+01 6.885E+01 7.226E+01 9.654E+05 20.7838 1.00000
  2.500E+07 2.500E+07 3.441E+00 3.070E+01 4.262E+01 1.328E+01 8.660E+01 9.004E+01 1.028E+06 21.2301 1.00000
  3.000E+07 3.000E+07 3.465E+00 3.696E+01 5.123E+01 1.624E+01 1.044E+02 1.079E+02 1.079E+06 21.5947 1.00000
  3.500E+07 3.500E+07 3.486E+00 4.322E+01 5.984E+01 1.925E+01 1.223E+02 1.258E+02 1.122E+06 21.9030 1.00000
  4.000E+07 4.000E+07 3.504E+00 4.949E+01 6.846E+01 2.231E+01 1.403E+02 1.438E+02 1.159E+06 22.1701 1.00000
  4.500E+07 4.500E+07 3.520E+00 5.577E+01 7.708E+01 2.542E+01 1.583E+02 1.618E+02 1.192E+06 22.4056 1.00000
  5.000E+07 5.000E+07 3.534E+00 6.205E+01 8.569E+01 2.856E+01 1.763E+02 1.798E+02 1.221E+06 22.6163 1.00000
  5.500E+07 5.500E+07 3.547E+00 6.833E+01 9.431E+01 3.174E+01 1.944E+02 1.979E+02 1.248E+06 22.8070 1.00000
  6.000E+07 6.000E+07 3.559E+00 7.461E+01 1.029E+02 3.495E+01 2.125E+02 2.161E+02 1.272E+06 22.9810 1.00000
  7.000E+07 7.000E+07 3.580E+00 8.718E+01 1.202E+02 4.147E+01 2.488E+02 2.524E+02 1.315E+06 23.2893 1.00000
  8.000E+07 8.000E+07 3.599E+00 9.976E+01 1.374E+02 4.808E+01 2.853E+02 2.889E+02 1.352E+06 23.5564 1.00000
  9.000E+07 9.000E+07 3.616E+00 1.123E+02 1.547E+02 5.479E+01 3.218E+02 3.254E+02 1.385E+06 23.7919 1.00000
  1.000E+08 1.000E+08 3.630E+00 1.249E+02 1.719E+02 6.159E+01 3.584E+02 3.620E+02 1.414E+06 24.0026 1.00000
  1.200E+08 1.200E+08 3.656E+00 1.501E+02 2.064E+02 7.540E+01 4.319E+02 4.356E+02 1.464E+06 24.3673 1.00000
  1.400E+08 1.400E+08 3.678E+00 1.753E+02 2.409E+02 8.949E+01 5.057E+02 5.094E+02 1.507E+06 24.6756 1.00000
  1.700E+08 1.700E+08 3.706E+00 2.131E+02 2.927E+02 1.110E+02 6.168E+02 6.205E+02 1.561E+06 25.0639 1.00000
  2.000E+08 2.000E+08 3.730E+00 2.509E+02 3.444E+02 1.330E+02 7.283E+02 7.320E+02 1.605E+06 25.3889 1.00000
  2.500E+08 2.500E+08 3.763E+00 3.139E+02 4.307E+02 1.705E+02 9.151E+02 9.188E+02 1.667E+06 25.8352 1.00000
  3.000E+08 3.000E+08 3.790E+00 3.769E+02 5.169E+02 2.089E+02 1.103E+03 1.107E+03 1.716E+06 26.1999 1.00000
  3.500E+08 3.500E+08 3.813E+00 4.400E+02 6.032E+02 2.480E+02 1.291E+03 1.295E+03 1.758E+06 26.5082 1.00000
  4.000E+08 4.000E+08 3.833E+00 5.030E+02 6.895E+02 2.877E+02 1.480E+03 1.484E+03 1.795E+06 26.7752 1.00000
  4.500E+08 4.500E+08 3.851E+00 5.660E+02 7.758E+02 3.281E+02 1.670E+03 1.674E+03 1.826E+06 27.0108 1.00000
  5.000E+08 5.000E+08 3.867E+00 6.291E+02 8.620E+02 3.690E+02 1.860E+03 1.864E+03 1.855E+06 27.2215 1.00000
  5.500E+08 5.500E+08 3.882E+00 6.921E+02 9.483E+02 4.103E+02 2.051E+03 2.055E+03 1.880E+06 27.4121 1.00000
  6.000E+08 6.000E+08 3.895E+00 7.552E+02 1.035E+03 4.521E+02 2.242E+03 2.246E+03 1.904E+06 27.5862 1.00000
  7.000E+08 7.000E+08 3.919E+00 8.813E+02 1.207E+03 5.370E+02 2.625E+03 2.629E+03 1.945E+06 27.8945 1.00000
  8.000E+08 8.000E+08 3.940E+00 1.007E+03 1.380E+03 6.232E+02 3.010E+03 3.014E+03 1.980E+06 28.1615 1.00000
  9.000E+08 9.000E+08 3.958E+00 1.134E+03 1.552E+03 7.108E+02 3.396E+03 3.400E+03 2.012E+06 28.3971 1.00000
  1.000E+09 1.000E+09 3.975E+00 1.260E+03 1.725E+03 7.995E+02 3.784E+03 3.788E+03 2.040E+06 28.6078 1.00000
