 Incident particle is a Muon with M = 105.65839 MeV
 Index = 0: Flerovium
      Absorber with <Z/A> = 0.39420
 Sternheimer coef:  a     k=m_s   x_0    x_1    I[eV]   Cbar  delta0
                 0.2878  3.0000  0.6923  3.0000 1185.0  6.7249 0.00

 *** Table generated with PUMAS v1.00 ***

      T         p     Ionization  brems     pair     photonuc  Radloss    dE/dx   CSDA Range  delta   beta
    [MeV]    [MeV/c]  -----------------------[MeV cm^2/g]------------------------  [g/cm^2]
  1.000E+00 1.457E+01 1.799E+01 7.506E-06 0.000E+00 0.000E+00 7.506E-06 1.799E+01 2.779E-02  0.0000 0.13661
  1.200E+00 1.597E+01 1.601E+01 8.614E-06 0.000E+00 0.000E+00 8.614E-06 1.601E+01 3.959E-02  0.0000 0.14944
  1.400E+00 1.726E+01 1.447E+01 9.662E-06 0.000E+00 0.000E+00 9.662E-06 1.447E+01 5.275E-02  0.0000 0.16119
  1.700E+00 1.903E+01 1.270E+01 1.114E-05 0.000E+00 0.000E+00 1.114E-05 1.270E+01 7.494E-02  0.0000 0.17725
  2.000E+00 2.066E+01 1.136E+01 1.252E-05 0.000E+00 0.000E+00 1.252E-05 1.136E+01 9.996E-02  0.0000 0.19186
  2.500E+00 2.312E+01 9.723E+00 1.466E-05 0.000E+00 0.000E+00 1.466E-05 9.723E+00 1.477E-01  0.0000 0.21376
  3.000E+00 2.536E+01 8.549E+00 1.663E-05 0.000E+00 0.000E+00 1.663E-05 8.549E+00 2.026E-01  0.0000 0.23336
  3.500E+00 2.742E+01 7.662E+00 1.847E-05 0.000E+00 0.000E+00 1.847E-05 7.662E+00 2.645E-01  0.0000 0.25120
  4.000E+00 2.935E+01 6.965E+00 2.019E-05 0.000E+00 0.000E+00 2.019E-05 6.965E+00 3.330E-01  0.0000 0.26763
  4.500E+00 3.116E+01 6.402E+00 2.181E-05 0.000E+00 0.000E+00 2.181E-05 6.402E+00 4.080E-01  0.0000 0.28290
  5.000E+00 3.289E+01 5.937E+00 2.335E-05 0.000E+00 0.000E+00 2.335E-05 5.937E+00 4.891E-01  0.0000 0.29720
  5.500E+00 3.453E+01 5.546E+00 2.482E-05 0.000E+00 0.000E+00 2.482E-05 5.546E+00 5.763E-01  0.0000 0.31066
  6.000E+00 3.611E+01 5.212E+00 2.623E-05 0.000E+00 0.000E+00 2.623E-05 5.212E+00 6.694E-01  0.0000 0.32339
  7.000E+00 3.909E+01 4.670E+00 2.888E-05 0.000E+00 0.000E+00 2.888E-05 4.670E+00 8.723E-01  0.0000 0.34700
  8.000E+00 4.189E+01 4.250E+00 3.135E-05 0.000E+00 0.000E+00 3.135E-05 4.250E+00 1.097E+00  0.0000 0.36854
  9.000E+00 4.453E+01 3.913E+00 3.366E-05 0.000E+00 0.000E+00 3.366E-05 3.913E+00 1.342E+00  0.0000 0.38836
  1.000E+01 4.704E+01 3.637E+00 3.586E-05 0.000E+00 0.000E+00 3.586E-05 3.637E+00 1.608E+00  0.0000 0.40675
  1.200E+01 5.177E+01 3.210E+00 3.993E-05 0.000E+00 0.000E+00 3.993E-05 3.210E+00 2.194E+00  0.0000 0.43998
  1.400E+01 5.616E+01 2.896E+00 4.369E-05 0.000E+00 0.000E+00 4.369E-05 2.896E+00 2.851E+00  0.0000 0.46937
  1.700E+01 6.230E+01 2.552E+00 4.888E-05 0.000E+00 0.000E+00 4.888E-05 2.552E+00 3.957E+00  0.0000 0.50792
  2.000E+01 6.802E+01 2.305E+00 5.369E-05 0.000E+00 0.000E+00 5.369E-05 2.306E+00 5.195E+00  0.0000 0.54129
  2.500E+01 7.686E+01 2.019E+00 6.112E-05 0.000E+00 0.000E+00 6.112E-05 2.019E+00 7.518E+00  0.0000 0.58827
  3.000E+01 8.509E+01 1.824E+00 6.809E-05 0.000E+00 0.000E+00 6.809E-05 1.824E+00 1.013E+01  0.0000 0.62720
  3.500E+01 9.285E+01 1.683E+00 7.476E-05 0.000E+00 0.000E+00 7.476E-05 1.683E+00 1.298E+01  0.0000 0.66011
  4.000E+01 1.003E+02 1.578E+00 8.126E-05 0.000E+00 0.000E+00 8.126E-05 1.578E+00 1.605E+01  0.0000 0.68834
  4.500E+01 1.074E+02 1.495E+00 8.766E-05 0.000E+00 0.000E+00 8.766E-05 1.496E+00 1.931E+01  0.0000 0.71286
  5.000E+01 1.143E+02 1.430E+00 9.400E-05 0.000E+00 0.000E+00 9.400E-05 1.430E+00 2.273E+01  0.0000 0.73434
  5.500E+01 1.210E+02 1.377E+00 1.003E-04 0.000E+00 0.000E+00 1.003E-04 1.377E+00 2.629E+01  0.0000 0.75332
  6.000E+01 1.276E+02 1.334E+00 1.066E-04 0.000E+00 0.000E+00 1.066E-04 1.334E+00 2.998E+01  0.0000 0.77019
  7.000E+01 1.403E+02 1.267E+00 1.194E-04 0.000E+00 0.000E+00 1.194E-04 1.268E+00 3.767E+01  0.0000 0.79887
  8.000E+01 1.527E+02 1.220E+00 1.323E-04 0.000E+00 0.000E+00 1.323E-04 1.220E+00 4.572E+01  0.0000 0.82227
  9.000E+01 1.647E+02 1.184E+00 1.454E-04 0.000E+00 0.000E+00 1.454E-04 1.185E+00 5.404E+01  0.0000 0.84166
  1.000E+02 1.764E+02 1.158E+00 1.589E-04 0.000E+00 0.000E+00 1.589E-04 1.158E+00 6.257E+01  0.0000 0.85794
  1.200E+02 1.994E+02 1.123E+00 1.865E-04 0.000E+00 0.000E+00 1.865E-04 1.123E+00 8.012E+01  0.0000 0.88361
  1.400E+02 2.218E+02 1.102E+00 2.154E-04 0.000E+00 0.000E+00 2.154E-04 1.102E+00 9.810E+01  0.0000 0.90278
  1.700E+02 2.546E+02 1.086E+00 2.609E-04 0.000E+00 0.000E+00 2.609E-04 1.087E+00 1.255E+02  0.0000 0.92363
  2.000E+02 2.868E+02 1.081E+00 3.090E-04 0.000E+00 0.000E+00 3.090E-04 1.082E+00 1.532E+02  0.0000 0.93835
  2.500E+02 3.396E+02 1.085E+00 3.945E-04 0.000E+00 0.000E+00 3.945E-04 1.085E+00 1.993E+02  0.0000 0.95485
  3.000E+02 3.917E+02 1.095E+00 4.863E-04 0.000E+00 0.000E+00 4.863E-04 1.096E+00 2.452E+02  0.0000 0.96548
  3.500E+02 4.432E+02 1.109E+00 5.837E-04 0.000E+00 0.000E+00 5.837E-04 1.110E+00 2.905E+02  0.0000 0.97274
  4.000E+02 4.945E+02 1.124E+00 6.864E-04 0.000E+00 0.000E+00 6.864E-04 1.124E+00 3.353E+02  0.0000 0.97793
  4.500E+02 5.455E+02 1.138E+00 7.939E-04 0.000E+00 0.000E+00 7.939E-04 1.139E+00 3.795E+02  0.0012 0.98176
  5.000E+02 5.964E+02 1.153E+00 9.060E-04 0.000E+00 0.000E+00 9.060E-04 1.154E+00 4.231E+02  0.0076 0.98467
  5.500E+02 6.471E+02 1.166E+00 1.022E-03 1.135E-04 0.000E+00 1.136E-03 1.167E+00 4.662E+02  0.0185 0.98693
  6.000E+02 6.977E+02 1.179E+00 1.143E-03 1.949E-04 0.000E+00 1.337E-03 1.181E+00 5.088E+02  0.0329 0.98873
  7.000E+02 7.987E+02 1.203E+00 1.394E-03 3.177E-04 0.000E+00 1.712E-03 1.205E+00 5.926E+02  0.0687 0.99136
  8.000E+02 8.995E+02 1.225E+00 1.659E-03 4.598E-04 0.000E+00 2.119E-03 1.227E+00 6.749E+02  0.1107 0.99317
  9.000E+02 1.000E+03 1.244E+00 1.937E-03 6.240E-04 0.000E+00 2.561E-03 1.247E+00 7.557E+02  0.1562 0.99447
  1.000E+03 1.101E+03 1.262E+00 2.225E-03 8.090E-04 0.000E+00 3.034E-03 1.265E+00 8.354E+02  0.2036 0.99542
  1.200E+03 1.301E+03 1.293E+00 2.833E-03 1.237E-03 2.243E-05 4.092E-03 1.297E+00 9.916E+02  0.3008 0.99672
  1.400E+03 1.502E+03 1.319E+00 3.476E-03 1.735E-03 6.072E-05 5.271E-03 1.324E+00 1.144E+03  0.3978 0.99753
  1.700E+03 1.803E+03 1.352E+00 4.499E-03 2.598E-03 1.283E-04 7.226E-03 1.359E+00 1.368E+03  0.5392 0.99829
  2.000E+03 2.103E+03 1.379E+00 5.583E-03 3.586E-03 2.065E-04 9.376E-03 1.388E+00 1.586E+03  0.6735 0.99874
  2.500E+03 2.604E+03 1.415E+00 7.504E-03 5.470E-03 3.554E-04 1.333E-02 1.429E+00 1.941E+03  0.8813 0.99918
  3.000E+03 3.104E+03 1.445E+00 9.545E-03 7.607E-03 5.089E-04 1.766E-02 1.462E+00 2.287E+03  1.0703 0.99942
  3.500E+03 3.604E+03 1.469E+00 1.169E-02 9.963E-03 6.693E-04 2.232E-02 1.491E+00 2.626E+03  1.2432 0.99957
  4.000E+03 4.104E+03 1.489E+00 1.392E-02 1.252E-02 8.392E-04 2.728E-02 1.516E+00 2.959E+03  1.4022 0.99967
  4.500E+03 4.604E+03 1.506E+00 1.623E-02 1.525E-02 1.014E-03 3.249E-02 1.539E+00 3.286E+03  1.5493 0.99974
  5.000E+03 5.105E+03 1.522E+00 1.861E-02 1.813E-02 1.181E-03 3.792E-02 1.560E+00 3.609E+03  1.6863 0.99979
  5.500E+03 5.605E+03 1.536E+00 2.105E-02 2.114E-02 1.361E-03 4.356E-02 1.579E+00 3.927E+03  1.8144 0.99982
  6.000E+03 6.105E+03 1.548E+00 2.355E-02 2.429E-02 1.527E-03 4.937E-02 1.597E+00 4.242E+03  1.9347 0.99985
  7.000E+03 7.105E+03 1.569E+00 2.871E-02 3.091E-02 1.877E-03 6.149E-02 1.630E+00 4.862E+03  2.1555 0.99989
  8.000E+03 8.105E+03 1.587E+00 3.405E-02 3.792E-02 2.223E-03 7.419E-02 1.661E+00 5.470E+03  2.3543 0.99992
  9.000E+03 9.105E+03 1.602E+00 3.954E-02 4.527E-02 2.546E-03 8.736E-02 1.689E+00 6.067E+03  2.5351 0.99993
  1.000E+04 1.011E+04 1.615E+00 4.518E-02 5.293E-02 2.878E-03 1.010E-01 1.716E+00 6.654E+03  2.7011 0.99995
  1.200E+04 1.211E+04 1.638E+00 5.682E-02 6.903E-02 3.547E-03 1.294E-01 1.767E+00 7.802E+03  2.9972 0.99996
  1.400E+04 1.411E+04 1.656E+00 6.889E-02 8.602E-02 4.214E-03 1.591E-01 1.815E+00 8.919E+03  3.2558 0.99997
  1.700E+04 1.711E+04 1.678E+00 8.764E-02 1.129E-01 5.194E-03 2.057E-01 1.884E+00 1.054E+04  3.5913 0.99998
  2.000E+04 2.011E+04 1.696E+00 1.070E-01 1.410E-01 6.151E-03 2.542E-01 1.950E+00 1.211E+04  3.8798 0.99999
  2.500E+04 2.511E+04 1.719E+00 1.406E-01 1.904E-01 7.711E-03 3.387E-01 2.057E+00 1.461E+04  4.2863 0.99999
  3.000E+04 3.011E+04 1.737E+00 1.753E-01 2.420E-01 9.233E-03 4.266E-01 2.164E+00 1.698E+04  4.6263 0.99999
  3.500E+04 3.511E+04 1.752E+00 2.110E-01 2.956E-01 1.076E-02 5.173E-01 2.269E+00 1.923E+04  4.9184 1.00000
  4.000E+04 4.011E+04 1.764E+00 2.476E-01 3.506E-01 1.227E-02 6.104E-01 2.375E+00 2.139E+04  5.1746 1.00000
  4.500E+04 4.511E+04 1.775E+00 2.848E-01 4.069E-01 1.375E-02 7.054E-01 2.480E+00 2.345E+04  5.4027 1.00000
  5.000E+04 5.011E+04 1.784E+00 3.227E-01 4.642E-01 1.523E-02 8.021E-01 2.587E+00 2.542E+04  5.6082 1.00000
  5.500E+04 5.511E+04 1.793E+00 3.611E-01 5.225E-01 1.672E-02 9.003E-01 2.693E+00 2.732E+04  5.7952 1.00000
  6.000E+04 6.011E+04 1.800E+00 4.000E-01 5.816E-01 1.819E-02 9.998E-01 2.800E+00 2.914E+04  5.9666 1.00000
  7.000E+04 7.011E+04 1.814E+00 4.790E-01 7.019E-01 2.110E-02 1.202E+00 3.016E+00 3.258E+04  6.2718 1.00000
  8.000E+04 8.011E+04 1.825E+00 5.596E-01 8.245E-01 2.400E-02 1.408E+00 3.233E+00 3.579E+04  6.5374 1.00000
  9.000E+04 9.011E+04 1.835E+00 6.413E-01 9.490E-01 2.691E-02 1.617E+00 3.452E+00 3.878E+04  6.7722 1.00000
  1.000E+05 1.001E+05 1.844E+00 7.242E-01 1.075E+00 2.975E-02 1.829E+00 3.673E+00 4.159E+04  6.9826 1.00000
  1.200E+05 1.201E+05 1.859E+00 8.926E-01 1.331E+00 3.552E-02 2.259E+00 4.118E+00 4.674E+04  7.3469 1.00000
  1.400E+05 1.401E+05 1.871E+00 1.064E+00 1.592E+00 4.128E-02 2.697E+00 4.568E+00 5.136E+04  7.6550 1.00000
  1.700E+05 1.701E+05 1.887E+00 1.326E+00 1.988E+00 4.991E-02 3.364E+00 5.250E+00 5.750E+04  8.0430 1.00000
  2.000E+05 2.001E+05 1.900E+00 1.592E+00 2.390E+00 5.857E-02 4.040E+00 5.940E+00 6.288E+04  8.3679 1.00000
  2.500E+05 2.501E+05 1.918E+00 2.042E+00 3.069E+00 7.301E-02 5.184E+00 7.102E+00 7.061E+04  8.8140 1.00000
  3.000E+05 3.001E+05 1.933E+00 2.501E+00 3.756E+00 8.754E-02 6.344E+00 8.277E+00 7.715E+04  9.1785 1.00000
  3.500E+05 3.501E+05 1.945E+00 2.964E+00 4.449E+00 1.022E-01 7.515E+00 9.460E+00 8.282E+04  9.4867 1.00000
  4.000E+05 4.001E+05 1.956E+00 3.432E+00 5.147E+00 1.170E-01 8.696E+00 1.065E+01 8.780E+04  9.7536 1.00000
  4.500E+05 4.501E+05 1.966E+00 3.904E+00 5.848E+00 1.318E-01 9.884E+00 1.185E+01 9.226E+04  9.9892 1.00000
  5.000E+05 5.001E+05 1.974E+00 4.379E+00 6.553E+00 1.467E-01 1.108E+01 1.305E+01 9.629E+04 10.1998 1.00000
  5.500E+05 5.501E+05 1.982E+00 4.857E+00 7.260E+00 1.615E-01 1.228E+01 1.426E+01 9.995E+04 10.3904 1.00000
  6.000E+05 6.001E+05 1.989E+00 5.337E+00 7.969E+00 1.763E-01 1.348E+01 1.547E+01 1.033E+05 10.5644 1.00000
  7.000E+05 7.001E+05 2.001E+00 6.303E+00 9.394E+00 2.063E-01 1.590E+01 1.790E+01 1.093E+05 10.8727 1.00000
  8.000E+05 8.001E+05 2.012E+00 7.276E+00 1.082E+01 2.366E-01 1.834E+01 2.035E+01 1.146E+05 11.1397 1.00000
  9.000E+05 9.001E+05 2.022E+00 8.254E+00 1.226E+01 2.672E-01 2.078E+01 2.280E+01 1.192E+05 11.3752 1.00000
  1.000E+06 1.000E+06 2.031E+00 9.237E+00 1.370E+01 2.980E-01 2.323E+01 2.526E+01 1.234E+05 11.5859 1.00000
  1.200E+06 1.200E+06 2.046E+00 1.121E+01 1.658E+01 3.604E-01 2.816E+01 3.020E+01 1.307E+05 11.9505 1.00000
  1.400E+06 1.400E+06 2.059E+00 1.320E+01 1.948E+01 4.236E-01 3.310E+01 3.516E+01 1.368E+05 12.2588 1.00000
  1.700E+06 1.700E+06 2.075E+00 1.620E+01 2.383E+01 5.199E-01 4.055E+01 4.263E+01 1.446E+05 12.6471 1.00000
  2.000E+06 2.000E+06 2.089E+00 1.921E+01 2.820E+01 6.177E-01 4.803E+01 5.012E+01 1.511E+05 12.9721 1.00000
  2.500E+06 2.500E+06 2.108E+00 2.426E+01 3.549E+01 7.837E-01 6.053E+01 6.264E+01 1.601E+05 13.4184 1.00000
  3.000E+06 3.000E+06 2.123E+00 2.933E+01 4.280E+01 9.528E-01 7.308E+01 7.520E+01 1.674E+05 13.7830 1.00000
  3.500E+06 3.500E+06 2.137E+00 3.441E+01 5.012E+01 1.125E+00 8.566E+01 8.779E+01 1.736E+05 14.0913 1.00000
  4.000E+06 4.000E+06 2.148E+00 3.951E+01 5.745E+01 1.299E+00 9.826E+01 1.004E+02 1.789E+05 14.3583 1.00000
  4.500E+06 4.500E+06 2.158E+00 4.461E+01 6.479E+01 1.475E+00 1.109E+02 1.130E+02 1.836E+05 14.5939 1.00000
  5.000E+06 5.000E+06 2.168E+00 4.973E+01 7.213E+01 1.654E+00 1.235E+02 1.257E+02 1.878E+05 14.8046 1.00000
  5.500E+06 5.500E+06 2.176E+00 5.485E+01 7.947E+01 1.834E+00 1.362E+02 1.383E+02 1.916E+05 14.9952 1.00000
  6.000E+06 6.000E+06 2.184E+00 5.997E+01 8.682E+01 2.016E+00 1.488E+02 1.510E+02 1.951E+05 15.1693 1.00000
  7.000E+06 7.000E+06 2.197E+00 7.024E+01 1.015E+02 2.384E+00 1.742E+02 1.764E+02 2.013E+05 15.4775 1.00000
  8.000E+06 8.000E+06 2.209E+00 8.052E+01 1.162E+02 2.757E+00 1.995E+02 2.017E+02 2.066E+05 15.7446 1.00000
  9.000E+06 9.000E+06 2.220E+00 9.082E+01 1.310E+02 3.136E+00 2.249E+02 2.271E+02 2.112E+05 15.9802 1.00000
  1.000E+07 1.000E+07 2.229E+00 1.011E+02 1.457E+02 3.519E+00 2.503E+02 2.526E+02 2.154E+05 16.1909 1.00000
  1.200E+07 1.200E+07 2.246E+00 1.217E+02 1.752E+02 4.296E+00 3.012E+02 3.035E+02 2.227E+05 16.5555 1.00000
  1.400E+07 1.400E+07 2.260E+00 1.424E+02 2.046E+02 5.087E+00 3.521E+02 3.544E+02 2.288E+05 16.8638 1.00000
  1.700E+07 1.700E+07 2.278E+00 1.734E+02 2.489E+02 6.297E+00 4.286E+02 4.309E+02 2.365E+05 17.2521 1.00000
  2.000E+07 2.000E+07 2.293E+00 2.044E+02 2.931E+02 7.530E+00 5.051E+02 5.074E+02 2.430E+05 17.5772 1.00000
  2.500E+07 2.500E+07 2.314E+00 2.562E+02 3.669E+02 9.628E+00 6.327E+02 6.351E+02 2.518E+05 18.0235 1.00000
  3.000E+07 3.000E+07 2.331E+00 3.080E+02 4.407E+02 1.177E+01 7.605E+02 7.628E+02 2.590E+05 18.3881 1.00000
  3.500E+07 3.500E+07 2.346E+00 3.598E+02 5.146E+02 1.396E+01 8.883E+02 8.907E+02 2.651E+05 18.6964 1.00000
  4.000E+07 4.000E+07 2.359E+00 4.116E+02 5.884E+02 1.617E+01 1.016E+03 1.019E+03 2.704E+05 18.9635 1.00000
  4.500E+07 4.500E+07 2.370E+00 4.635E+02 6.622E+02 1.842E+01 1.144E+03 1.146E+03 2.750E+05 19.1990 1.00000
  5.000E+07 5.000E+07 2.381E+00 5.154E+02 7.361E+02 2.070E+01 1.272E+03 1.274E+03 2.792E+05 19.4097 1.00000
  5.500E+07 5.500E+07 2.390E+00 5.672E+02 8.099E+02 2.300E+01 1.400E+03 1.403E+03 2.829E+05 19.6004 1.00000
  6.000E+07 6.000E+07 2.398E+00 6.191E+02 8.837E+02 2.533E+01 1.528E+03 1.531E+03 2.863E+05 19.7744 1.00000
  7.000E+07 7.000E+07 2.414E+00 7.229E+02 1.031E+03 3.005E+01 1.784E+03 1.787E+03 2.924E+05 20.0827 1.00000
  8.000E+07 8.000E+07 2.427E+00 8.267E+02 1.179E+03 3.484E+01 2.041E+03 2.043E+03 2.976E+05 20.3498 1.00000
  9.000E+07 9.000E+07 2.439E+00 9.305E+02 1.327E+03 3.970E+01 2.297E+03 2.300E+03 3.022E+05 20.5853 1.00000
  1.000E+08 1.000E+08 2.449E+00 1.034E+03 1.475E+03 4.462E+01 2.554E+03 2.556E+03 3.064E+05 20.7960 1.00000
  1.200E+08 1.200E+08 2.468E+00 1.242E+03 1.770E+03 5.463E+01 3.067E+03 3.069E+03 3.135E+05 21.1607 1.00000
  1.400E+08 1.400E+08 2.483E+00 1.450E+03 2.066E+03 6.483E+01 3.580E+03 3.583E+03 3.196E+05 21.4690 1.00000
  1.700E+08 1.700E+08 2.503E+00 1.761E+03 2.509E+03 8.044E+01 4.350E+03 4.353E+03 3.272E+05 21.8573 1.00000
  2.000E+08 2.000E+08 2.520E+00 2.073E+03 2.952E+03 9.637E+01 5.121E+03 5.124E+03 3.336E+05 22.1823 1.00000
  2.500E+08 2.500E+08 2.544E+00 2.592E+03 3.691E+03 1.235E+02 6.406E+03 6.409E+03 3.424E+05 22.6286 1.00000
  3.000E+08 3.000E+08 2.563E+00 3.112E+03 4.429E+03 1.513E+02 7.692E+03 7.695E+03 3.495E+05 22.9933 1.00000
  3.500E+08 3.500E+08 2.579E+00 3.631E+03 5.168E+03 1.796E+02 8.979E+03 8.981E+03 3.556E+05 23.3016 1.00000
  4.000E+08 4.000E+08 2.594E+00 4.151E+03 5.907E+03 2.084E+02 1.027E+04 1.027E+04 3.608E+05 23.5686 1.00000
  4.500E+08 4.500E+08 2.606E+00 4.670E+03 6.645E+03 2.377E+02 1.155E+04 1.156E+04 3.654E+05 23.8042 1.00000
  5.000E+08 5.000E+08 2.618E+00 5.189E+03 7.384E+03 2.673E+02 1.284E+04 1.284E+04 3.695E+05 24.0149 1.00000
  5.500E+08 5.500E+08 2.628E+00 5.709E+03 8.123E+03 2.972E+02 1.413E+04 1.413E+04 3.732E+05 24.2055 1.00000
  6.000E+08 6.000E+08 2.638E+00 6.228E+03 8.861E+03 3.275E+02 1.542E+04 1.542E+04 3.766E+05 24.3796 1.00000
  7.000E+08 7.000E+08 2.655E+00 7.267E+03 1.034E+04 3.890E+02 1.800E+04 1.800E+04 3.826E+05 24.6879 1.00000
  8.000E+08 8.000E+08 2.670E+00 8.306E+03 1.182E+04 4.514E+02 2.057E+04 2.058E+04 3.878E+05 24.9549 1.00000
  9.000E+08 9.000E+08 2.683E+00 9.345E+03 1.329E+04 5.149E+02 2.315E+04 2.316E+04 3.924E+05 25.1905 1.00000
  1.000E+09 1.000E+09 2.694E+00 1.038E+04 1.477E+04 5.791E+02 2.573E+04 2.574E+04 3.965E+05 25.4012 1.00000
