 Incident particle is a Muon with M = 105.65839 MeV
 Index = 0: Francium
      Absorber with <Z/A> = 0.39010
 Sternheimer coef:  a     k=m_s   x_0    x_1    I[eV]   Cbar  delta0
                 0.4321  3.0000  1.1175  3.0000  827.0  8.0292 0.00

 *** Table generated with PUMAS v1.00 ***

      T         p     Ionization  brems     pair     photonuc  Radloss    dE/dx   CSDA Range  delta   beta
    [MeV]    [MeV/c]  -----------------------[MeV cm^2/g]------------------------  [g/cm^2]
  1.000E+00 1.457E+01 2.011E+01 5.786E-06 0.000E+00 0.000E+00 5.786E-06 2.011E+01 2.486E-02  0.0000 0.13661
  1.200E+00 1.597E+01 1.777E+01 6.642E-06 0.000E+00 0.000E+00 6.642E-06 1.777E+01 3.546E-02  0.0000 0.14944
  1.400E+00 1.726E+01 1.597E+01 7.453E-06 0.000E+00 0.000E+00 7.453E-06 1.597E+01 4.735E-02  0.0000 0.16119
  1.700E+00 1.903E+01 1.393E+01 8.598E-06 0.000E+00 0.000E+00 8.598E-06 1.393E+01 6.750E-02  0.0000 0.17725
  2.000E+00 2.066E+01 1.241E+01 9.671E-06 0.000E+00 0.000E+00 9.671E-06 1.241E+01 9.035E-02  0.0000 0.19186
  2.500E+00 2.312E+01 1.056E+01 1.133E-05 0.000E+00 0.000E+00 1.133E-05 1.056E+01 1.342E-01  0.0000 0.21376
  3.000E+00 2.536E+01 9.252E+00 1.286E-05 0.000E+00 0.000E+00 1.286E-05 9.252E+00 1.848E-01  0.0000 0.23336
  3.500E+00 2.742E+01 8.265E+00 1.429E-05 0.000E+00 0.000E+00 1.429E-05 8.265E+00 2.421E-01  0.0000 0.25120
  4.000E+00 2.935E+01 7.494E+00 1.564E-05 0.000E+00 0.000E+00 1.564E-05 7.494E+00 3.057E-01  0.0000 0.26763
  4.500E+00 3.116E+01 6.874E+00 1.690E-05 0.000E+00 0.000E+00 1.690E-05 6.874E+00 3.755E-01  0.0000 0.28290
  5.000E+00 3.289E+01 6.363E+00 1.811E-05 0.000E+00 0.000E+00 1.811E-05 6.363E+00 4.511E-01  0.0000 0.29720
  5.500E+00 3.453E+01 5.935E+00 1.926E-05 0.000E+00 0.000E+00 1.926E-05 5.935E+00 5.325E-01  0.0000 0.31066
  6.000E+00 3.611E+01 5.570E+00 2.036E-05 0.000E+00 0.000E+00 2.036E-05 5.570E+00 6.195E-01  0.0000 0.32339
  7.000E+00 3.909E+01 4.980E+00 2.244E-05 0.000E+00 0.000E+00 2.244E-05 4.980E+00 8.097E-01  0.0000 0.34700
  8.000E+00 4.189E+01 4.523E+00 2.437E-05 0.000E+00 0.000E+00 2.437E-05 4.523E+00 1.021E+00  0.0000 0.36854
  9.000E+00 4.453E+01 4.158E+00 2.619E-05 0.000E+00 0.000E+00 2.619E-05 4.158E+00 1.251E+00  0.0000 0.38836
  1.000E+01 4.704E+01 3.859E+00 2.791E-05 0.000E+00 0.000E+00 2.791E-05 3.860E+00 1.501E+00  0.0000 0.40675
  1.200E+01 5.177E+01 3.400E+00 3.112E-05 0.000E+00 0.000E+00 3.112E-05 3.400E+00 2.055E+00  0.0000 0.43998
  1.400E+01 5.616E+01 3.061E+00 3.407E-05 0.000E+00 0.000E+00 3.407E-05 3.061E+00 2.675E+00  0.0000 0.46937
  1.700E+01 6.230E+01 2.693E+00 3.816E-05 0.000E+00 0.000E+00 3.816E-05 2.693E+00 3.722E+00  0.0000 0.50792
  2.000E+01 6.802E+01 2.429E+00 4.195E-05 0.000E+00 0.000E+00 4.195E-05 2.429E+00 4.897E+00  0.0000 0.54129
  2.500E+01 7.686E+01 2.122E+00 4.781E-05 0.000E+00 0.000E+00 4.781E-05 2.122E+00 7.104E+00  0.0000 0.58827
  3.000E+01 8.509E+01 1.914E+00 5.329E-05 0.000E+00 0.000E+00 5.329E-05 1.914E+00 9.588E+00  0.0000 0.62720
  3.500E+01 9.285E+01 1.765E+00 5.855E-05 0.000E+00 0.000E+00 5.855E-05 1.765E+00 1.231E+01  0.0000 0.66011
  4.000E+01 1.003E+02 1.652E+00 6.367E-05 0.000E+00 0.000E+00 6.367E-05 1.652E+00 1.524E+01  0.0000 0.68834
  4.500E+01 1.074E+02 1.565E+00 6.870E-05 0.000E+00 0.000E+00 6.870E-05 1.565E+00 1.835E+01  0.0000 0.71286
  5.000E+01 1.143E+02 1.495E+00 7.368E-05 0.000E+00 0.000E+00 7.368E-05 1.495E+00 2.162E+01  0.0000 0.73434
  5.500E+01 1.210E+02 1.439E+00 7.865E-05 0.000E+00 0.000E+00 7.865E-05 1.439E+00 2.503E+01  0.0000 0.75332
  6.000E+01 1.276E+02 1.393E+00 8.362E-05 0.000E+00 0.000E+00 8.362E-05 1.393E+00 2.856E+01  0.0000 0.77019
  7.000E+01 1.403E+02 1.322E+00 9.361E-05 0.000E+00 0.000E+00 9.361E-05 1.322E+00 3.594E+01  0.0000 0.79887
  8.000E+01 1.527E+02 1.271E+00 1.037E-04 0.000E+00 0.000E+00 1.037E-04 1.271E+00 4.365E+01  0.0000 0.82227
  9.000E+01 1.647E+02 1.233E+00 1.140E-04 0.000E+00 0.000E+00 1.140E-04 1.233E+00 5.164E+01  0.0000 0.84166
  1.000E+02 1.764E+02 1.204E+00 1.246E-04 0.000E+00 0.000E+00 1.246E-04 1.205E+00 5.985E+01  0.0000 0.85794
  1.200E+02 1.994E+02 1.166E+00 1.462E-04 0.000E+00 0.000E+00 1.462E-04 1.166E+00 7.672E+01  0.0000 0.88361
  1.400E+02 2.218E+02 1.143E+00 1.688E-04 0.000E+00 0.000E+00 1.688E-04 1.143E+00 9.404E+01  0.0000 0.90278
  1.700E+02 2.546E+02 1.126E+00 2.044E-04 0.000E+00 0.000E+00 2.044E-04 1.126E+00 1.205E+02  0.0000 0.92363
  2.000E+02 2.868E+02 1.119E+00 2.420E-04 0.000E+00 0.000E+00 2.420E-04 1.119E+00 1.472E+02  0.0000 0.93835
  2.500E+02 3.396E+02 1.121E+00 3.088E-04 0.000E+00 0.000E+00 3.088E-04 1.121E+00 1.918E+02  0.0000 0.95485
  3.000E+02 3.917E+02 1.130E+00 3.804E-04 0.000E+00 0.000E+00 3.804E-04 1.131E+00 2.362E+02  0.0000 0.96548
  3.500E+02 4.432E+02 1.143E+00 4.564E-04 0.000E+00 0.000E+00 4.564E-04 1.143E+00 2.802E+02  0.0000 0.97274
  4.000E+02 4.945E+02 1.157E+00 5.365E-04 0.000E+00 0.000E+00 5.365E-04 1.157E+00 3.237E+02  0.0000 0.97793
  4.500E+02 5.455E+02 1.171E+00 6.203E-04 0.000E+00 0.000E+00 6.203E-04 1.172E+00 3.666E+02  0.0000 0.98176
  5.000E+02 5.964E+02 1.186E+00 7.076E-04 6.883E-05 0.000E+00 7.764E-04 1.186E+00 4.090E+02  0.0000 0.98467
  5.500E+02 6.471E+02 1.199E+00 7.981E-04 1.134E-04 0.000E+00 9.115E-04 1.200E+00 4.509E+02  0.0000 0.98693
  6.000E+02 6.977E+02 1.213E+00 8.917E-04 1.526E-04 0.000E+00 1.044E-03 1.214E+00 4.923E+02  0.0000 0.98873
  7.000E+02 7.987E+02 1.239E+00 1.087E-03 2.428E-04 0.000E+00 1.330E-03 1.240E+00 5.739E+02  0.0000 0.99136
  8.000E+02 8.995E+02 1.262E+00 1.294E-03 3.508E-04 0.000E+00 1.644E-03 1.264E+00 6.537E+02  0.0000 0.99317
  9.000E+02 1.000E+03 1.284E+00 1.509E-03 4.755E-04 0.000E+00 1.985E-03 1.286E+00 7.322E+02  0.0000 0.99447
  1.000E+03 1.101E+03 1.304E+00 1.733E-03 6.160E-04 0.000E+00 2.349E-03 1.307E+00 8.093E+02  0.0000 0.99542
  1.200E+03 1.301E+03 1.341E+00 2.205E-03 9.408E-04 2.244E-05 3.168E-03 1.344E+00 9.602E+02  0.0000 0.99672
  1.400E+03 1.502E+03 1.372E+00 2.704E-03 1.319E-03 6.080E-05 4.083E-03 1.376E+00 1.107E+03  0.0031 0.99753
  1.700E+03 1.803E+03 1.411E+00 3.497E-03 1.974E-03 1.286E-04 5.600E-03 1.417E+00 1.322E+03  0.0323 0.99829
  2.000E+03 2.103E+03 1.443E+00 4.336E-03 2.724E-03 2.073E-04 7.267E-03 1.451E+00 1.531E+03  0.0795 0.99874
  2.500E+03 2.604E+03 1.486E+00 5.823E-03 4.153E-03 3.571E-04 1.033E-02 1.496E+00 1.871E+03  0.1773 0.99918
  3.000E+03 3.104E+03 1.520E+00 7.402E-03 5.776E-03 5.119E-04 1.369E-02 1.533E+00 2.201E+03  0.2849 0.99942
  3.500E+03 3.604E+03 1.547E+00 9.059E-03 7.564E-03 6.739E-04 1.730E-02 1.565E+00 2.524E+03  0.3945 0.99957
  4.000E+03 4.104E+03 1.570E+00 1.078E-02 9.505E-03 8.456E-04 2.114E-02 1.592E+00 2.841E+03  0.5029 0.99967
  4.500E+03 4.604E+03 1.590E+00 1.257E-02 1.158E-02 1.023E-03 2.517E-02 1.615E+00 3.153E+03  0.6086 0.99974
  5.000E+03 5.105E+03 1.608E+00 1.441E-02 1.377E-02 1.192E-03 2.937E-02 1.637E+00 3.460E+03  0.7108 0.99979
  5.500E+03 5.605E+03 1.623E+00 1.629E-02 1.607E-02 1.373E-03 3.373E-02 1.657E+00 3.764E+03  0.8094 0.99982
  6.000E+03 6.105E+03 1.636E+00 1.822E-02 1.846E-02 1.542E-03 3.822E-02 1.675E+00 4.064E+03  0.9044 0.99985
  7.000E+03 7.105E+03 1.660E+00 2.220E-02 2.350E-02 1.897E-03 4.760E-02 1.708E+00 4.655E+03  1.0837 0.99989
  8.000E+03 8.105E+03 1.679E+00 2.632E-02 2.884E-02 2.248E-03 5.741E-02 1.737E+00 5.236E+03  1.2501 0.99992
  9.000E+03 9.105E+03 1.696E+00 3.056E-02 3.444E-02 2.576E-03 6.758E-02 1.764E+00 5.807E+03  1.4049 0.99993
  1.000E+04 1.011E+04 1.711E+00 3.491E-02 4.028E-02 2.913E-03 7.810E-02 1.789E+00 6.370E+03  1.5497 0.99995
  1.200E+04 1.211E+04 1.735E+00 4.389E-02 5.255E-02 3.593E-03 1.000E-01 1.835E+00 7.474E+03  1.8131 0.99996
  1.400E+04 1.411E+04 1.754E+00 5.319E-02 6.551E-02 4.270E-03 1.230E-01 1.877E+00 8.552E+03  2.0480 0.99997
  1.700E+04 1.711E+04 1.777E+00 6.764E-02 8.600E-02 5.268E-03 1.589E-01 1.936E+00 1.013E+04  2.3583 0.99998
  2.000E+04 2.011E+04 1.796E+00 8.260E-02 1.075E-01 6.242E-03 1.964E-01 1.992E+00 1.165E+04  2.6295 0.99999
  2.500E+04 2.511E+04 1.820E+00 1.084E-01 1.452E-01 7.832E-03 2.615E-01 2.081E+00 1.411E+04  3.0171 0.99999
  3.000E+04 3.011E+04 1.839E+00 1.352E-01 1.847E-01 9.384E-03 3.293E-01 2.168E+00 1.646E+04  3.3453 0.99999
  3.500E+04 3.511E+04 1.854E+00 1.627E-01 2.257E-01 1.095E-02 3.994E-01 2.253E+00 1.873E+04  3.6300 1.00000
  4.000E+04 4.011E+04 1.866E+00 1.909E-01 2.678E-01 1.249E-02 4.712E-01 2.338E+00 2.091E+04  3.8811 1.00000
  4.500E+04 4.511E+04 1.877E+00 2.196E-01 3.110E-01 1.400E-02 5.445E-01 2.422E+00 2.301E+04  4.1057 1.00000
  5.000E+04 5.011E+04 1.887E+00 2.488E-01 3.549E-01 1.551E-02 6.192E-01 2.506E+00 2.504E+04  4.3089 1.00000
  5.500E+04 5.511E+04 1.895E+00 2.784E-01 3.996E-01 1.703E-02 6.950E-01 2.590E+00 2.700E+04  4.4942 1.00000
  6.000E+04 6.011E+04 1.903E+00 3.083E-01 4.450E-01 1.853E-02 7.718E-01 2.675E+00 2.890E+04  4.6644 1.00000
  7.000E+04 7.011E+04 1.916E+00 3.693E-01 5.373E-01 2.150E-02 9.281E-01 2.844E+00 3.253E+04  4.9683 1.00000
  8.000E+04 8.011E+04 1.927E+00 4.313E-01 6.315E-01 2.448E-02 1.087E+00 3.014E+00 3.594E+04  5.2333 1.00000
  9.000E+04 9.011E+04 1.937E+00 4.944E-01 7.271E-01 2.745E-02 1.249E+00 3.186E+00 3.917E+04  5.4680 1.00000
  1.000E+05 1.001E+05 1.946E+00 5.582E-01 8.241E-01 3.035E-02 1.413E+00 3.358E+00 4.223E+04  5.6783 1.00000
  1.200E+05 1.201E+05 1.960E+00 6.881E-01 1.021E+00 3.626E-02 1.745E+00 3.706E+00 4.791E+04  6.0426 1.00000
  1.400E+05 1.401E+05 1.973E+00 8.203E-01 1.221E+00 4.216E-02 2.084E+00 4.057E+00 5.307E+04  6.3507 1.00000
  1.700E+05 1.701E+05 1.988E+00 1.022E+00 1.527E+00 5.099E-02 2.600E+00 4.588E+00 6.004E+04  6.7387 1.00000
  2.000E+05 2.001E+05 2.002E+00 1.227E+00 1.836E+00 5.986E-02 3.123E+00 5.125E+00 6.623E+04  7.0636 1.00000
  2.500E+05 2.501E+05 2.019E+00 1.575E+00 2.359E+00 7.466E-02 4.009E+00 6.028E+00 7.526E+04  7.5097 1.00000
  3.000E+05 3.001E+05 2.034E+00 1.929E+00 2.889E+00 8.955E-02 4.907E+00 6.941E+00 8.301E+04  7.8742 1.00000
  3.500E+05 3.501E+05 2.046E+00 2.287E+00 3.424E+00 1.046E-01 5.815E+00 7.861E+00 8.979E+04  8.1824 1.00000
  4.000E+05 4.001E+05 2.057E+00 2.648E+00 3.962E+00 1.197E-01 6.730E+00 8.787E+00 9.581E+04  8.4493 1.00000
  4.500E+05 4.501E+05 2.066E+00 3.013E+00 4.503E+00 1.349E-01 7.651E+00 9.717E+00 1.012E+05  8.6849 1.00000
  5.000E+05 5.001E+05 2.075E+00 3.380E+00 5.047E+00 1.502E-01 8.577E+00 1.065E+01 1.062E+05  8.8955 1.00000
  5.500E+05 5.501E+05 2.082E+00 3.749E+00 5.593E+00 1.653E-01 9.507E+00 1.159E+01 1.107E+05  9.0861 1.00000
  6.000E+05 6.001E+05 2.089E+00 4.120E+00 6.141E+00 1.806E-01 1.044E+01 1.253E+01 1.148E+05  9.2601 1.00000
  7.000E+05 7.001E+05 2.102E+00 4.867E+00 7.241E+00 2.113E-01 1.232E+01 1.442E+01 1.223E+05  9.5684 1.00000
  8.000E+05 8.001E+05 2.113E+00 5.619E+00 8.345E+00 2.424E-01 1.421E+01 1.632E+01 1.288E+05  9.8354 1.00000
  9.000E+05 9.001E+05 2.122E+00 6.375E+00 9.453E+00 2.738E-01 1.610E+01 1.822E+01 1.346E+05 10.0709 1.00000
  1.000E+06 1.000E+06 2.131E+00 7.135E+00 1.056E+01 3.054E-01 1.800E+01 2.014E+01 1.398E+05 10.2816 1.00000
  1.200E+06 1.200E+06 2.146E+00 8.663E+00 1.279E+01 3.694E-01 2.183E+01 2.397E+01 1.490E+05 10.6462 1.00000
  1.400E+06 1.400E+06 2.158E+00 1.020E+01 1.503E+01 4.342E-01 2.567E+01 2.783E+01 1.567E+05 10.9545 1.00000
  1.700E+06 1.700E+06 2.175E+00 1.252E+01 1.840E+01 5.330E-01 3.145E+01 3.363E+01 1.666E+05 11.3428 1.00000
  2.000E+06 2.000E+06 2.188E+00 1.485E+01 2.177E+01 6.334E-01 3.726E+01 3.945E+01 1.748E+05 11.6678 1.00000
  2.500E+06 2.500E+06 2.207E+00 1.876E+01 2.741E+01 8.037E-01 4.697E+01 4.918E+01 1.863E+05 12.1141 1.00000
  3.000E+06 3.000E+06 2.222E+00 2.268E+01 3.306E+01 9.772E-01 5.672E+01 5.894E+01 1.956E+05 12.4787 1.00000
  3.500E+06 3.500E+06 2.235E+00 2.662E+01 3.872E+01 1.154E+00 6.650E+01 6.873E+01 2.035E+05 12.7870 1.00000
  4.000E+06 4.000E+06 2.247E+00 3.056E+01 4.439E+01 1.332E+00 7.629E+01 7.854E+01 2.103E+05 13.0540 1.00000
  4.500E+06 4.500E+06 2.257E+00 3.452E+01 5.006E+01 1.513E+00 8.610E+01 8.835E+01 2.163E+05 13.2896 1.00000
  5.000E+06 5.000E+06 2.266E+00 3.848E+01 5.574E+01 1.696E+00 9.592E+01 9.818E+01 2.217E+05 13.5003 1.00000
  5.500E+06 5.500E+06 2.275E+00 4.245E+01 6.142E+01 1.881E+00 1.058E+02 1.080E+02 2.265E+05 13.6909 1.00000
  6.000E+06 6.000E+06 2.282E+00 4.642E+01 6.711E+01 2.068E+00 1.156E+02 1.179E+02 2.310E+05 13.8650 1.00000
  7.000E+06 7.000E+06 2.296E+00 5.437E+01 7.848E+01 2.446E+00 1.353E+02 1.376E+02 2.389E+05 14.1732 1.00000
  8.000E+06 8.000E+06 2.307E+00 6.234E+01 8.986E+01 2.829E+00 1.550E+02 1.573E+02 2.457E+05 14.4403 1.00000
  9.000E+06 9.000E+06 2.318E+00 7.031E+01 1.013E+02 3.217E+00 1.748E+02 1.771E+02 2.517E+05 14.6759 1.00000
  1.000E+07 1.000E+07 2.327E+00 7.830E+01 1.126E+02 3.610E+00 1.945E+02 1.969E+02 2.570E+05 14.8866 1.00000
  1.200E+07 1.200E+07 2.344E+00 9.428E+01 1.354E+02 4.408E+00 2.341E+02 2.365E+02 2.663E+05 15.2512 1.00000
  1.400E+07 1.400E+07 2.358E+00 1.103E+02 1.582E+02 5.220E+00 2.737E+02 2.761E+02 2.742E+05 15.5595 1.00000
  1.700E+07 1.700E+07 2.375E+00 1.343E+02 1.925E+02 6.462E+00 3.332E+02 3.356E+02 2.841E+05 15.9478 1.00000
  2.000E+07 2.000E+07 2.390E+00 1.584E+02 2.267E+02 7.727E+00 3.928E+02 3.952E+02 2.924E+05 16.2729 1.00000
  2.500E+07 2.500E+07 2.411E+00 1.985E+02 2.838E+02 9.880E+00 4.921E+02 4.945E+02 3.037E+05 16.7192 1.00000
  3.000E+07 3.000E+07 2.428E+00 2.386E+02 3.409E+02 1.208E+01 5.916E+02 5.940E+02 3.130E+05 17.0838 1.00000
  3.500E+07 3.500E+07 2.443E+00 2.788E+02 3.980E+02 1.432E+01 6.911E+02 6.935E+02 3.208E+05 17.3921 1.00000
  4.000E+07 4.000E+07 2.456E+00 3.190E+02 4.551E+02 1.660E+01 7.907E+02 7.931E+02 3.276E+05 17.6592 1.00000
  4.500E+07 4.500E+07 2.467E+00 3.592E+02 5.122E+02 1.891E+01 8.903E+02 8.928E+02 3.335E+05 17.8947 1.00000
  5.000E+07 5.000E+07 2.477E+00 3.994E+02 5.694E+02 2.125E+01 9.900E+02 9.924E+02 3.388E+05 18.1054 1.00000
  5.500E+07 5.500E+07 2.486E+00 4.396E+02 6.265E+02 2.361E+01 1.090E+03 1.092E+03 3.437E+05 18.2961 1.00000
  6.000E+07 6.000E+07 2.495E+00 4.798E+02 6.836E+02 2.600E+01 1.189E+03 1.192E+03 3.480E+05 18.4701 1.00000
  7.000E+07 7.000E+07 2.510E+00 5.602E+02 7.979E+02 3.084E+01 1.389E+03 1.391E+03 3.558E+05 18.7784 1.00000
  8.000E+07 8.000E+07 2.523E+00 6.407E+02 9.122E+02 3.576E+01 1.589E+03 1.591E+03 3.626E+05 19.0455 1.00000
  9.000E+07 9.000E+07 2.534E+00 7.212E+02 1.026E+03 4.075E+01 1.788E+03 1.791E+03 3.685E+05 19.2810 1.00000
  1.000E+08 1.000E+08 2.545E+00 8.016E+02 1.141E+03 4.580E+01 1.988E+03 1.991E+03 3.738E+05 19.4917 1.00000
  1.200E+08 1.200E+08 2.563E+00 9.626E+02 1.369E+03 5.607E+01 2.388E+03 2.391E+03 3.830E+05 19.8564 1.00000
  1.400E+08 1.400E+08 2.579E+00 1.124E+03 1.598E+03 6.654E+01 2.788E+03 2.791E+03 3.908E+05 20.1647 1.00000
  1.700E+08 1.700E+08 2.598E+00 1.365E+03 1.941E+03 8.256E+01 3.389E+03 3.391E+03 4.006E+05 20.5530 1.00000
  2.000E+08 2.000E+08 2.615E+00 1.607E+03 2.284E+03 9.890E+01 3.989E+03 3.992E+03 4.088E+05 20.8780 1.00000
  2.500E+08 2.500E+08 2.638E+00 2.009E+03 2.855E+03 1.268E+02 4.991E+03 4.994E+03 4.200E+05 21.3243 1.00000
  3.000E+08 3.000E+08 2.657E+00 2.412E+03 3.427E+03 1.553E+02 5.994E+03 5.997E+03 4.292E+05 21.6890 1.00000
  3.500E+08 3.500E+08 2.674E+00 2.815E+03 3.998E+03 1.844E+02 6.997E+03 7.000E+03 4.369E+05 21.9973 1.00000
  4.000E+08 4.000E+08 2.688E+00 3.217E+03 4.570E+03 2.139E+02 8.001E+03 8.004E+03 4.436E+05 22.2643 1.00000
  4.500E+08 4.500E+08 2.700E+00 3.620E+03 5.141E+03 2.439E+02 9.005E+03 9.008E+03 4.495E+05 22.4999 1.00000
  5.000E+08 5.000E+08 2.712E+00 4.023E+03 5.713E+03 2.743E+02 1.001E+04 1.001E+04 4.548E+05 22.7106 1.00000
  5.500E+08 5.500E+08 2.722E+00 4.426E+03 6.284E+03 3.051E+02 1.102E+04 1.102E+04 4.596E+05 22.9012 1.00000
  6.000E+08 6.000E+08 2.731E+00 4.828E+03 6.856E+03 3.361E+02 1.202E+04 1.202E+04 4.639E+05 23.0753 1.00000
  7.000E+08 7.000E+08 2.748E+00 5.634E+03 7.999E+03 3.992E+02 1.403E+04 1.403E+04 4.716E+05 23.3836 1.00000
  8.000E+08 8.000E+08 2.763E+00 6.439E+03 9.142E+03 4.633E+02 1.604E+04 1.605E+04 4.783E+05 23.6506 1.00000
  9.000E+08 9.000E+08 2.776E+00 7.245E+03 1.028E+04 5.284E+02 1.806E+04 1.806E+04 4.842E+05 23.8862 1.00000
  1.000E+09 1.000E+09 2.788E+00 8.050E+03 1.143E+04 5.944E+02 2.007E+04 2.007E+04 4.895E+05 24.0969 1.00000
