 Incident particle is a Muon with M = 105.65839 MeV
 Index = 0: Freon12
      Absorber with <Z/A> = 0.47968
 Sternheimer coef:  a     k=m_s   x_0    x_1    I[eV]   Cbar  delta0
                 0.0798  3.4626  0.3035  3.2659  143.0  4.8251 0.00

 *** Table generated with PUMAS v1.00 ***

      T         p     Ionization  brems     pair     photonuc  Radloss    dE/dx   CSDA Range  delta   beta
    [MeV]    [MeV/c]  -----------------------[MeV cm^2/g]------------------------  [g/cm^2]
  1.000E+00 1.457E+01 3.858E+01 1.286E-06 0.000E+00 0.000E+00 1.286E-06 3.858E+01 1.296E-02  0.0000 0.13661
  1.200E+00 1.597E+01 3.343E+01 1.478E-06 0.000E+00 0.000E+00 1.478E-06 3.343E+01 1.854E-02  0.0000 0.14944
  1.400E+00 1.726E+01 2.959E+01 1.660E-06 0.000E+00 0.000E+00 1.660E-06 2.959E+01 2.491E-02  0.0000 0.16119
  1.700E+00 1.903E+01 2.536E+01 1.920E-06 0.000E+00 0.000E+00 1.920E-06 2.536E+01 3.590E-02  0.0000 0.17725
  2.000E+00 2.066E+01 2.228E+01 2.165E-06 0.000E+00 0.000E+00 2.165E-06 2.228E+01 4.854E-02  0.0000 0.19186
  2.500E+00 2.312E+01 1.865E+01 2.549E-06 0.000E+00 0.000E+00 2.549E-06 1.865E+01 7.317E-02  0.0000 0.21376
  3.000E+00 2.536E+01 1.612E+01 2.907E-06 0.000E+00 0.000E+00 2.907E-06 1.612E+01 1.021E-01  0.0000 0.23336
  3.500E+00 2.742E+01 1.426E+01 3.243E-06 0.000E+00 0.000E+00 3.243E-06 1.426E+01 1.351E-01  0.0000 0.25120
  4.000E+00 2.935E+01 1.282E+01 3.562E-06 0.000E+00 0.000E+00 3.562E-06 1.282E+01 1.721E-01  0.0000 0.26763
  4.500E+00 3.116E+01 1.168E+01 3.866E-06 0.000E+00 0.000E+00 3.866E-06 1.168E+01 2.130E-01  0.0000 0.28290
  5.000E+00 3.289E+01 1.075E+01 4.156E-06 0.000E+00 0.000E+00 4.156E-06 1.075E+01 2.577E-01  0.0000 0.29720
  5.500E+00 3.453E+01 9.976E+00 4.435E-06 0.000E+00 0.000E+00 4.435E-06 9.976E+00 3.060E-01  0.0000 0.31066
  6.000E+00 3.611E+01 9.320E+00 4.704E-06 0.000E+00 0.000E+00 4.704E-06 9.320E+00 3.579E-01  0.0000 0.32339
  7.000E+00 3.909E+01 8.270E+00 5.214E-06 0.000E+00 0.000E+00 5.214E-06 8.270E+00 4.720E-01  0.0000 0.34700
  8.000E+00 4.189E+01 7.465E+00 5.694E-06 0.000E+00 0.000E+00 5.694E-06 7.465E+00 5.994E-01  0.0000 0.36854
  9.000E+00 4.453E+01 6.827E+00 6.148E-06 0.000E+00 0.000E+00 6.148E-06 6.827E+00 7.397E-01  0.0000 0.38836
  1.000E+01 4.704E+01 6.308E+00 6.580E-06 0.000E+00 0.000E+00 6.580E-06 6.308E+00 8.922E-01  0.0000 0.40675
  1.200E+01 5.177E+01 5.516E+00 7.391E-06 0.000E+00 0.000E+00 7.391E-06 5.516E+00 1.232E+00  0.0000 0.43998
  1.400E+01 5.616E+01 4.937E+00 8.144E-06 0.000E+00 0.000E+00 8.144E-06 4.937E+00 1.616E+00  0.0000 0.46937
  1.700E+01 6.230E+01 4.313E+00 9.193E-06 0.000E+00 0.000E+00 9.193E-06 4.313E+00 2.267E+00  0.0000 0.50792
  2.000E+01 6.802E+01 3.868E+00 1.017E-05 0.000E+00 0.000E+00 1.017E-05 3.868E+00 3.003E+00  0.0000 0.54129
  2.500E+01 7.686E+01 3.357E+00 1.168E-05 0.000E+00 0.000E+00 1.168E-05 3.357E+00 4.394E+00  0.0000 0.58827
  3.000E+01 8.509E+01 3.011E+00 1.310E-05 0.000E+00 0.000E+00 1.310E-05 3.011E+00 5.969E+00  0.0000 0.62720
  3.500E+01 9.285E+01 2.763E+00 1.445E-05 0.000E+00 0.000E+00 1.445E-05 2.763E+00 7.704E+00  0.0000 0.66011
  4.000E+01 1.003E+02 2.577E+00 1.576E-05 0.000E+00 0.000E+00 1.576E-05 2.577E+00 9.579E+00  0.0000 0.68834
  4.500E+01 1.074E+02 2.433E+00 1.705E-05 0.000E+00 0.000E+00 1.705E-05 2.433E+00 1.158E+01  0.0000 0.71286
  5.000E+01 1.143E+02 2.318E+00 1.832E-05 0.000E+00 0.000E+00 1.832E-05 2.318E+00 1.368E+01  0.0000 0.73434
  5.500E+01 1.210E+02 2.225E+00 1.958E-05 0.000E+00 0.000E+00 1.958E-05 2.225E+00 1.589E+01  0.0000 0.75332
  6.000E+01 1.276E+02 2.148E+00 2.084E-05 0.000E+00 0.000E+00 2.084E-05 2.148E+00 1.817E+01  0.0000 0.77019
  7.000E+01 1.403E+02 2.030E+00 2.336E-05 0.000E+00 0.000E+00 2.336E-05 2.030E+00 2.296E+01  0.0000 0.79887
  8.000E+01 1.527E+02 1.945E+00 2.590E-05 0.000E+00 0.000E+00 2.590E-05 1.945E+00 2.800E+01  0.0000 0.82227
  9.000E+01 1.647E+02 1.881E+00 2.848E-05 0.000E+00 0.000E+00 2.848E-05 1.881E+00 3.323E+01  0.0000 0.84166
  1.000E+02 1.764E+02 1.832E+00 3.110E-05 0.000E+00 0.000E+00 3.110E-05 1.832E+00 3.861E+01  0.0000 0.85794
  1.200E+02 1.994E+02 1.765E+00 3.647E-05 0.000E+00 0.000E+00 3.647E-05 1.765E+00 4.974E+01  0.0000 0.88361
  1.400E+02 2.218E+02 1.722E+00 4.204E-05 0.000E+00 0.000E+00 4.204E-05 1.722E+00 6.121E+01  0.0128 0.90278
  1.700E+02 2.546E+02 1.682E+00 5.077E-05 2.059E-14 0.000E+00 5.077E-05 1.682E+00 7.884E+01  0.0582 0.92363
  2.000E+02 2.868E+02 1.661E+00 5.994E-05 4.606E-12 0.000E+00 5.994E-05 1.661E+00 9.679E+01  0.1066 0.93835
  2.500E+02 3.396E+02 1.647E+00 7.616E-05 1.157E-07 0.000E+00 7.627E-05 1.647E+00 1.270E+02  0.1896 0.95485
  3.000E+02 3.917E+02 1.646E+00 9.343E-05 1.265E-06 0.000E+00 9.470E-05 1.646E+00 1.574E+02  0.2722 0.96548
  3.500E+02 4.432E+02 1.651E+00 1.117E-04 3.557E-06 0.000E+00 1.152E-04 1.651E+00 1.877E+02  0.3529 0.97274
  4.000E+02 4.945E+02 1.660E+00 1.308E-04 6.951E-06 0.000E+00 1.378E-04 1.660E+00 2.179E+02  0.4311 0.97793
  4.500E+02 5.455E+02 1.670E+00 1.508E-04 1.141E-05 0.000E+00 1.622E-04 1.670E+00 2.480E+02  0.5065 0.98176
  5.000E+02 5.964E+02 1.680E+00 1.715E-04 1.689E-05 0.000E+00 1.884E-04 1.681E+00 2.778E+02  0.5792 0.98467
  5.500E+02 6.471E+02 1.691E+00 1.930E-04 2.336E-05 0.000E+00 2.163E-04 1.691E+00 3.075E+02  0.6493 0.98693
  6.000E+02 6.977E+02 1.702E+00 2.151E-04 3.078E-05 0.000E+00 2.459E-04 1.702E+00 3.369E+02  0.7167 0.98873
  7.000E+02 7.987E+02 1.723E+00 2.612E-04 4.836E-05 0.000E+00 3.095E-04 1.723E+00 3.953E+02  0.8446 0.99136
  8.000E+02 8.995E+02 1.742E+00 3.095E-04 6.939E-05 0.000E+00 3.789E-04 1.743E+00 4.530E+02  0.9639 0.99317
  9.000E+02 1.000E+03 1.760E+00 3.598E-04 9.365E-05 0.000E+00 4.535E-04 1.761E+00 5.101E+02  1.0756 0.99447
  1.000E+03 1.101E+03 1.777E+00 4.120E-04 1.209E-04 0.000E+00 5.329E-04 1.778E+00 5.666E+02  1.1807 0.99542
  1.200E+03 1.301E+03 1.807E+00 5.214E-04 1.839E-04 2.253E-05 7.278E-04 1.808E+00 6.782E+02  1.3738 0.99672
  1.400E+03 1.502E+03 1.833E+00 6.366E-04 2.572E-04 6.153E-05 9.553E-04 1.834E+00 7.881E+02  1.5479 0.99753
  1.700E+03 1.803E+03 1.865E+00 8.190E-04 3.840E-04 1.315E-04 1.335E-03 1.867E+00 9.502E+02  1.7809 0.99829
  2.000E+03 2.103E+03 1.893E+00 1.011E-03 5.290E-04 2.138E-04 1.754E-03 1.895E+00 1.110E+03  1.9872 0.99874
  2.500E+03 2.604E+03 1.931E+00 1.350E-03 8.056E-04 3.725E-04 2.529E-03 1.933E+00 1.371E+03  2.2863 0.99918
  3.000E+03 3.104E+03 1.961E+00 1.709E-03 1.120E-03 5.388E-04 3.368E-03 1.964E+00 1.628E+03  2.5436 0.99942
  3.500E+03 3.604E+03 1.986E+00 2.085E-03 1.466E-03 7.148E-04 4.265E-03 1.990E+00 1.881E+03  2.7698 0.99957
  4.000E+03 4.104E+03 2.008E+00 2.474E-03 1.853E-03 9.026E-04 5.231E-03 2.013E+00 2.130E+03  2.9717 0.99967
  4.500E+03 4.604E+03 2.027E+00 2.877E-03 2.272E-03 1.098E-03 6.247E-03 2.033E+00 2.377E+03  3.1542 0.99974
  5.000E+03 5.105E+03 2.043E+00 3.291E-03 2.715E-03 1.285E-03 7.292E-03 2.050E+00 2.622E+03  3.3208 0.99979
  5.500E+03 5.605E+03 2.058E+00 3.716E-03 3.180E-03 1.487E-03 8.384E-03 2.066E+00 2.865E+03  3.4741 0.99982
  6.000E+03 6.105E+03 2.071E+00 4.150E-03 3.666E-03 1.676E-03 9.491E-03 2.081E+00 3.106E+03  3.6161 0.99985
  7.000E+03 7.105E+03 2.094E+00 5.043E-03 4.691E-03 2.074E-03 1.181E-02 2.106E+00 3.584E+03  3.8724 0.99989
  8.000E+03 8.105E+03 2.114E+00 5.967E-03 5.781E-03 2.470E-03 1.422E-02 2.128E+00 4.057E+03  4.0990 0.99992
  9.000E+03 9.105E+03 2.131E+00 6.917E-03 6.928E-03 2.842E-03 1.669E-02 2.147E+00 4.524E+03  4.3022 0.99993
  1.000E+04 1.011E+04 2.146E+00 7.891E-03 8.125E-03 3.226E-03 1.924E-02 2.165E+00 4.988E+03  4.4864 0.99995
  1.200E+04 1.211E+04 2.171E+00 9.900E-03 1.065E-02 4.005E-03 2.456E-02 2.195E+00 5.906E+03  4.8103 0.99996
  1.400E+04 1.411E+04 2.191E+00 1.198E-02 1.333E-02 4.786E-03 3.010E-02 2.221E+00 6.811E+03  5.0889 0.99997
  1.700E+04 1.711E+04 2.217E+00 1.521E-02 1.758E-02 5.942E-03 3.874E-02 2.255E+00 8.152E+03  5.4454 0.99998
  2.000E+04 2.011E+04 2.237E+00 1.856E-02 2.207E-02 7.077E-03 4.771E-02 2.285E+00 9.473E+03  5.7481 0.99999
  2.500E+04 2.511E+04 2.264E+00 2.434E-02 2.997E-02 8.941E-03 6.325E-02 2.327E+00 1.164E+04  6.1695 0.99999
  3.000E+04 3.011E+04 2.286E+00 3.033E-02 3.830E-02 1.077E-02 7.940E-02 2.365E+00 1.377E+04  6.5181 0.99999
  3.500E+04 3.511E+04 2.303E+00 3.649E-02 4.697E-02 1.262E-02 9.608E-02 2.399E+00 1.587E+04  6.8154 1.00000
  4.000E+04 4.011E+04 2.318E+00 4.280E-02 5.593E-02 1.445E-02 1.132E-01 2.432E+00 1.794E+04  7.0747 1.00000
  4.500E+04 4.511E+04 2.331E+00 4.923E-02 6.514E-02 1.626E-02 1.306E-01 2.462E+00 1.999E+04  7.3046 1.00000
  5.000E+04 5.011E+04 2.343E+00 5.577E-02 7.455E-02 1.807E-02 1.484E-01 2.491E+00 2.200E+04  7.5111 1.00000
  5.500E+04 5.511E+04 2.353E+00 6.242E-02 8.414E-02 1.989E-02 1.664E-01 2.519E+00 2.400E+04  7.6985 1.00000
  6.000E+04 6.011E+04 2.362E+00 6.915E-02 9.391E-02 2.169E-02 1.847E-01 2.547E+00 2.597E+04  7.8700 1.00000
  7.000E+04 7.011E+04 2.378E+00 8.285E-02 1.138E-01 2.526E-02 2.220E-01 2.600E+00 2.986E+04  8.1748 1.00000
  8.000E+04 8.011E+04 2.392E+00 9.682E-02 1.343E-01 2.885E-02 2.599E-01 2.652E+00 3.367E+04  8.4396 1.00000
  9.000E+04 9.011E+04 2.404E+00 1.110E-01 1.551E-01 3.244E-02 2.986E-01 2.703E+00 3.740E+04  8.6738 1.00000
  1.000E+05 1.001E+05 2.415E+00 1.254E-01 1.763E-01 3.596E-02 3.376E-01 2.752E+00 4.107E+04  8.8835 1.00000
  1.200E+05 1.201E+05 2.433E+00 1.548E-01 2.194E-01 4.313E-02 4.173E-01 2.850E+00 4.821E+04  9.2471 1.00000
  1.400E+05 1.401E+05 2.448E+00 1.847E-01 2.635E-01 5.031E-02 4.985E-01 2.947E+00 5.511E+04  9.5549 1.00000
  1.700E+05 1.701E+05 2.468E+00 2.304E-01 3.310E-01 6.108E-02 6.225E-01 3.090E+00 6.506E+04  9.9428 1.00000
  2.000E+05 2.001E+05 2.484E+00 2.770E-01 3.997E-01 7.191E-02 7.487E-01 3.232E+00 7.455E+04 10.2677 1.00000
  2.500E+05 2.501E+05 2.506E+00 3.562E-01 5.163E-01 9.003E-02 9.626E-01 3.468E+00 8.950E+04 10.7138 1.00000
  3.000E+05 3.001E+05 2.523E+00 4.369E-01 6.349E-01 1.083E-01 1.180E+00 3.704E+00 1.035E+05 11.0783 1.00000
  3.500E+05 3.501E+05 2.539E+00 5.187E-01 7.550E-01 1.268E-01 1.400E+00 3.939E+00 1.166E+05 11.3865 1.00000
  4.000E+05 4.001E+05 2.552E+00 6.015E-01 8.761E-01 1.453E-01 1.623E+00 4.175E+00 1.289E+05 11.6534 1.00000
  4.500E+05 4.501E+05 2.563E+00 6.851E-01 9.982E-01 1.640E-01 1.847E+00 4.411E+00 1.405E+05 11.8890 1.00000
  5.000E+05 5.001E+05 2.574E+00 7.694E-01 1.121E+00 1.828E-01 2.073E+00 4.647E+00 1.516E+05 12.0996 1.00000
  5.500E+05 5.501E+05 2.583E+00 8.543E-01 1.245E+00 2.015E-01 2.300E+00 4.884E+00 1.621E+05 12.2902 1.00000
  6.000E+05 6.001E+05 2.592E+00 9.397E-01 1.369E+00 2.203E-01 2.529E+00 5.120E+00 1.721E+05 12.4642 1.00000
  7.000E+05 7.001E+05 2.607E+00 1.112E+00 1.618E+00 2.583E-01 2.988E+00 5.595E+00 1.908E+05 12.7725 1.00000
  8.000E+05 8.001E+05 2.620E+00 1.285E+00 1.869E+00 2.966E-01 3.451E+00 6.072E+00 2.080E+05 13.0395 1.00000
  9.000E+05 9.001E+05 2.632E+00 1.460E+00 2.121E+00 3.353E-01 3.917E+00 6.549E+00 2.238E+05 13.2750 1.00000
  1.000E+06 1.000E+06 2.643E+00 1.636E+00 2.375E+00 3.744E-01 4.385E+00 7.028E+00 2.386E+05 13.4857 1.00000
  1.200E+06 1.200E+06 2.661E+00 1.991E+00 2.883E+00 4.535E-01 5.328E+00 7.989E+00 2.653E+05 13.8503 1.00000
  1.400E+06 1.400E+06 2.677E+00 2.348E+00 3.395E+00 5.337E-01 6.276E+00 8.953E+00 2.890E+05 14.1586 1.00000
  1.700E+06 1.700E+06 2.696E+00 2.888E+00 4.165E+00 6.559E-01 7.709E+00 1.041E+01 3.202E+05 14.5469 1.00000
  2.000E+06 2.000E+06 2.713E+00 3.432E+00 4.938E+00 7.800E-01 9.149E+00 1.186E+01 3.472E+05 14.8719 1.00000
  2.500E+06 2.500E+06 2.736E+00 4.344E+00 6.231E+00 9.908E-01 1.157E+01 1.430E+01 3.858E+05 15.3182 1.00000
  3.000E+06 3.000E+06 2.755E+00 5.262E+00 7.529E+00 1.206E+00 1.400E+01 1.675E+01 4.182E+05 15.6828 1.00000
  3.500E+06 3.500E+06 2.771E+00 6.184E+00 8.829E+00 1.424E+00 1.644E+01 1.921E+01 4.461E+05 15.9911 1.00000
  4.000E+06 4.000E+06 2.785E+00 7.110E+00 1.013E+01 1.645E+00 1.889E+01 2.167E+01 4.707E+05 16.2581 1.00000
  4.500E+06 4.500E+06 2.798E+00 8.039E+00 1.144E+01 1.870E+00 2.134E+01 2.414E+01 4.926E+05 16.4937 1.00000
  5.000E+06 5.000E+06 2.809E+00 8.970E+00 1.274E+01 2.096E+00 2.381E+01 2.662E+01 5.123E+05 16.7044 1.00000
  5.500E+06 5.500E+06 2.819E+00 9.902E+00 1.405E+01 2.325E+00 2.628E+01 2.910E+01 5.303E+05 16.8950 1.00000
  6.000E+06 6.000E+06 2.829E+00 1.084E+01 1.536E+01 2.556E+00 2.875E+01 3.158E+01 5.468E+05 17.0691 1.00000
  7.000E+06 7.000E+06 2.845E+00 1.271E+01 1.798E+01 3.025E+00 3.371E+01 3.656E+01 5.763E+05 17.3773 1.00000
  8.000E+06 8.000E+06 2.860E+00 1.459E+01 2.060E+01 3.500E+00 3.868E+01 4.154E+01 6.020E+05 17.6444 1.00000
  9.000E+06 9.000E+06 2.873E+00 1.647E+01 2.322E+01 3.981E+00 4.367E+01 4.654E+01 6.248E+05 17.8800 1.00000
  1.000E+07 1.000E+07 2.884E+00 1.835E+01 2.585E+01 4.468E+00 4.867E+01 5.155E+01 6.453E+05 18.0907 1.00000
  1.200E+07 1.200E+07 2.904E+00 2.212E+01 3.110E+01 5.457E+00 5.868E+01 6.159E+01 6.809E+05 18.4553 1.00000
  1.400E+07 1.400E+07 2.922E+00 2.590E+01 3.636E+01 6.464E+00 6.873E+01 7.165E+01 7.111E+05 18.7636 1.00000
  1.700E+07 1.700E+07 2.943E+00 3.158E+01 4.425E+01 8.002E+00 8.384E+01 8.678E+01 7.493E+05 19.1519 1.00000
  2.000E+07 2.000E+07 2.962E+00 3.727E+01 5.215E+01 9.570E+00 9.899E+01 1.019E+02 7.813E+05 19.4770 1.00000
  2.500E+07 2.500E+07 2.987E+00 4.676E+01 6.532E+01 1.224E+01 1.243E+02 1.273E+02 8.255E+05 19.9233 1.00000
  3.000E+07 3.000E+07 3.008E+00 5.626E+01 7.849E+01 1.497E+01 1.497E+02 1.527E+02 8.615E+05 20.2879 1.00000
  3.500E+07 3.500E+07 3.026E+00 6.577E+01 9.167E+01 1.775E+01 1.752E+02 1.782E+02 8.919E+05 20.5962 1.00000
  4.000E+07 4.000E+07 3.042E+00 7.529E+01 1.049E+02 2.057E+01 2.007E+02 2.038E+02 9.182E+05 20.8633 1.00000
  4.500E+07 4.500E+07 3.056E+00 8.481E+01 1.180E+02 2.343E+01 2.263E+02 2.293E+02 9.414E+05 21.0988 1.00000
  5.000E+07 5.000E+07 3.068E+00 9.434E+01 1.312E+02 2.633E+01 2.519E+02 2.550E+02 9.621E+05 21.3095 1.00000
  5.500E+07 5.500E+07 3.080E+00 1.039E+02 1.444E+02 2.926E+01 2.775E+02 2.806E+02 9.808E+05 21.5002 1.00000
  6.000E+07 6.000E+07 3.090E+00 1.134E+02 1.576E+02 3.222E+01 3.032E+02 3.063E+02 9.978E+05 21.6742 1.00000
  7.000E+07 7.000E+07 3.108E+00 1.325E+02 1.840E+02 3.822E+01 3.547E+02 3.578E+02 1.028E+06 21.9825 1.00000
  8.000E+07 8.000E+07 3.125E+00 1.515E+02 2.104E+02 4.432E+01 4.062E+02 4.093E+02 1.054E+06 22.2496 1.00000
  9.000E+07 9.000E+07 3.139E+00 1.706E+02 2.367E+02 5.051E+01 4.579E+02 4.610E+02 1.077E+06 22.4851 1.00000
  1.000E+08 1.000E+08 3.152E+00 1.897E+02 2.631E+02 5.677E+01 5.096E+02 5.128E+02 1.098E+06 22.6958 1.00000
  1.200E+08 1.200E+08 3.174E+00 2.279E+02 3.159E+02 6.951E+01 6.133E+02 6.165E+02 1.134E+06 23.0605 1.00000
  1.400E+08 1.400E+08 3.193E+00 2.661E+02 3.687E+02 8.249E+01 7.172E+02 7.204E+02 1.164E+06 23.3688 1.00000
  1.700E+08 1.700E+08 3.218E+00 3.234E+02 4.479E+02 1.023E+02 8.736E+02 8.768E+02 1.202E+06 23.7571 1.00000
  2.000E+08 2.000E+08 3.238E+00 3.807E+02 5.270E+02 1.226E+02 1.030E+03 1.034E+03 1.233E+06 24.0821 1.00000
  2.500E+08 2.500E+08 3.267E+00 4.762E+02 6.590E+02 1.572E+02 1.292E+03 1.296E+03 1.277E+06 24.5284 1.00000
  3.000E+08 3.000E+08 3.290E+00 5.718E+02 7.910E+02 1.925E+02 1.555E+03 1.559E+03 1.312E+06 24.8931 1.00000
  3.500E+08 3.500E+08 3.310E+00 6.673E+02 9.229E+02 2.286E+02 1.819E+03 1.822E+03 1.342E+06 25.2014 1.00000
  4.000E+08 4.000E+08 3.328E+00 7.629E+02 1.055E+03 2.652E+02 2.083E+03 2.086E+03 1.368E+06 25.4684 1.00000
  4.500E+08 4.500E+08 3.343E+00 8.584E+02 1.187E+03 3.024E+02 2.348E+03 2.351E+03 1.390E+06 25.7040 1.00000
  5.000E+08 5.000E+08 3.357E+00 9.540E+02 1.319E+03 3.401E+02 2.613E+03 2.616E+03 1.410E+06 25.9147 1.00000
  5.500E+08 5.500E+08 3.370E+00 1.050E+03 1.451E+03 3.782E+02 2.879E+03 2.882E+03 1.429E+06 26.1053 1.00000
  6.000E+08 6.000E+08 3.381E+00 1.145E+03 1.583E+03 4.167E+02 3.145E+03 3.148E+03 1.445E+06 26.2794 1.00000
  7.000E+08 7.000E+08 3.402E+00 1.336E+03 1.847E+03 4.949E+02 3.678E+03 3.681E+03 1.475E+06 26.5877 1.00000
  8.000E+08 8.000E+08 3.420E+00 1.527E+03 2.111E+03 5.744E+02 4.213E+03 4.216E+03 1.500E+06 26.8547 1.00000
  9.000E+08 9.000E+08 3.436E+00 1.719E+03 2.375E+03 6.551E+02 4.748E+03 4.752E+03 1.523E+06 27.0903 1.00000
  1.000E+09 1.000E+09 3.450E+00 1.910E+03 2.638E+03 7.369E+02 5.285E+03 5.289E+03 1.543E+06 27.3010 1.00000
