 Incident particle is a Muon with M = 105.65839 MeV
 Index = 0: Freon13
      Absorber with <Z/A> = 0.47866
 Sternheimer coef:  a     k=m_s   x_0    x_1    I[eV]   Cbar  delta0
                 0.0724  3.5551  0.3659  3.2337  126.6  4.7483 0.00

 *** Table generated with PUMAS v1.00 ***

      T         p     Ionization  brems     pair     photonuc  Radloss    dE/dx   CSDA Range  delta   beta
    [MeV]    [MeV/c]  -----------------------[MeV cm^2/g]------------------------  [g/cm^2]
  1.000E+00 1.457E+01 3.946E+01 1.106E-06 0.000E+00 0.000E+00 1.106E-06 3.946E+01 1.267E-02  0.0000 0.13661
  1.200E+00 1.597E+01 3.416E+01 1.270E-06 0.000E+00 0.000E+00 1.270E-06 3.416E+01 1.813E-02  0.0000 0.14944
  1.400E+00 1.726E+01 3.022E+01 1.427E-06 0.000E+00 0.000E+00 1.427E-06 3.022E+01 2.437E-02  0.0000 0.16119
  1.700E+00 1.903E+01 2.588E+01 1.650E-06 0.000E+00 0.000E+00 1.650E-06 2.588E+01 3.513E-02  0.0000 0.17725
  2.000E+00 2.066E+01 2.272E+01 1.860E-06 0.000E+00 0.000E+00 1.860E-06 2.272E+01 4.753E-02  0.0000 0.19186
  2.500E+00 2.312E+01 1.900E+01 2.190E-06 0.000E+00 0.000E+00 2.190E-06 1.900E+01 7.169E-02  0.0000 0.21376
  3.000E+00 2.536E+01 1.642E+01 2.498E-06 0.000E+00 0.000E+00 2.498E-06 1.642E+01 1.001E-01  0.0000 0.23336
  3.500E+00 2.742E+01 1.451E+01 2.788E-06 0.000E+00 0.000E+00 2.788E-06 1.451E+01 1.325E-01  0.0000 0.25120
  4.000E+00 2.935E+01 1.305E+01 3.062E-06 0.000E+00 0.000E+00 3.062E-06 1.305E+01 1.689E-01  0.0000 0.26763
  4.500E+00 3.116E+01 1.188E+01 3.324E-06 0.000E+00 0.000E+00 3.324E-06 1.188E+01 2.091E-01  0.0000 0.28290
  5.000E+00 3.289E+01 1.093E+01 3.574E-06 0.000E+00 0.000E+00 3.574E-06 1.093E+01 2.530E-01  0.0000 0.29720
  5.500E+00 3.453E+01 1.014E+01 3.815E-06 0.000E+00 0.000E+00 3.815E-06 1.014E+01 3.006E-01  0.0000 0.31066
  6.000E+00 3.611E+01 9.472E+00 4.047E-06 0.000E+00 0.000E+00 4.047E-06 9.472E+00 3.516E-01  0.0000 0.32339
  7.000E+00 3.909E+01 8.401E+00 4.487E-06 0.000E+00 0.000E+00 4.487E-06 8.401E+00 4.639E-01  0.0000 0.34700
  8.000E+00 4.189E+01 7.581E+00 4.901E-06 0.000E+00 0.000E+00 4.901E-06 7.581E+00 5.894E-01  0.0000 0.36854
  9.000E+00 4.453E+01 6.931E+00 5.294E-06 0.000E+00 0.000E+00 5.294E-06 6.931E+00 7.275E-01  0.0000 0.38836
  1.000E+01 4.704E+01 6.403E+00 5.667E-06 0.000E+00 0.000E+00 5.667E-06 6.403E+00 8.777E-01  0.0000 0.40675
  1.200E+01 5.177E+01 5.596E+00 6.369E-06 0.000E+00 0.000E+00 6.369E-06 5.596E+00 1.213E+00  0.0000 0.43998
  1.400E+01 5.616E+01 5.008E+00 7.021E-06 0.000E+00 0.000E+00 7.021E-06 5.008E+00 1.591E+00  0.0000 0.46937
  1.700E+01 6.230E+01 4.373E+00 7.929E-06 0.000E+00 0.000E+00 7.929E-06 4.373E+00 2.233E+00  0.0000 0.50792
  2.000E+01 6.802E+01 3.921E+00 8.774E-06 0.000E+00 0.000E+00 8.774E-06 3.921E+00 2.959E+00  0.0000 0.54129
  2.500E+01 7.686E+01 3.401E+00 1.009E-05 0.000E+00 0.000E+00 1.009E-05 3.401E+00 4.332E+00  0.0000 0.58827
  3.000E+01 8.509E+01 3.050E+00 1.131E-05 0.000E+00 0.000E+00 1.131E-05 3.050E+00 5.886E+00  0.0000 0.62720
  3.500E+01 9.285E+01 2.798E+00 1.249E-05 0.000E+00 0.000E+00 1.249E-05 2.798E+00 7.599E+00  0.0000 0.66011
  4.000E+01 1.003E+02 2.609E+00 1.362E-05 0.000E+00 0.000E+00 1.362E-05 2.609E+00 9.451E+00  0.0000 0.68834
  4.500E+01 1.074E+02 2.463E+00 1.474E-05 0.000E+00 0.000E+00 1.474E-05 2.463E+00 1.142E+01  0.0000 0.71286
  5.000E+01 1.143E+02 2.346E+00 1.584E-05 0.000E+00 0.000E+00 1.584E-05 2.346E+00 1.350E+01  0.0000 0.73434
  5.500E+01 1.210E+02 2.252E+00 1.693E-05 0.000E+00 0.000E+00 1.693E-05 2.252E+00 1.568E+01  0.0000 0.75332
  6.000E+01 1.276E+02 2.174E+00 1.802E-05 0.000E+00 0.000E+00 1.802E-05 2.174E+00 1.794E+01  0.0000 0.77019
  7.000E+01 1.403E+02 2.054E+00 2.021E-05 0.000E+00 0.000E+00 2.021E-05 2.054E+00 2.268E+01  0.0000 0.79887
  8.000E+01 1.527E+02 1.967E+00 2.241E-05 0.000E+00 0.000E+00 2.241E-05 1.967E+00 2.765E+01  0.0000 0.82227
  9.000E+01 1.647E+02 1.902E+00 2.464E-05 0.000E+00 0.000E+00 2.464E-05 1.902E+00 3.282E+01  0.0000 0.84166
  1.000E+02 1.764E+02 1.853E+00 2.690E-05 0.000E+00 0.000E+00 2.690E-05 1.853E+00 3.815E+01  0.0000 0.85794
  1.200E+02 1.994E+02 1.784E+00 3.154E-05 0.000E+00 0.000E+00 3.154E-05 1.784E+00 4.915E+01  0.0000 0.88361
  1.400E+02 2.218E+02 1.741E+00 3.636E-05 0.000E+00 0.000E+00 3.636E-05 1.741E+00 6.050E+01  0.0000 0.90278
  1.700E+02 2.546E+02 1.703E+00 4.390E-05 3.351E-14 0.000E+00 4.390E-05 1.703E+00 7.792E+01  0.0147 0.92363
  2.000E+02 2.868E+02 1.681E+00 5.183E-05 7.496E-12 0.000E+00 5.183E-05 1.681E+00 9.565E+01  0.0636 0.93835
  2.500E+02 3.396E+02 1.666E+00 6.582E-05 1.065E-07 0.000E+00 6.593E-05 1.666E+00 1.255E+02  0.1480 0.95485
  3.000E+02 3.917E+02 1.665E+00 8.073E-05 1.088E-06 0.000E+00 8.182E-05 1.665E+00 1.555E+02  0.2323 0.96548
  3.500E+02 4.432E+02 1.669E+00 9.648E-05 3.041E-06 0.000E+00 9.952E-05 1.670E+00 1.855E+02  0.3149 0.97274
  4.000E+02 4.945E+02 1.678E+00 1.130E-04 5.928E-06 0.000E+00 1.189E-04 1.678E+00 2.154E+02  0.3949 0.97793
  4.500E+02 5.455E+02 1.687E+00 1.302E-04 9.717E-06 0.000E+00 1.399E-04 1.687E+00 2.451E+02  0.4723 0.98176
  5.000E+02 5.964E+02 1.698E+00 1.481E-04 1.437E-05 0.000E+00 1.625E-04 1.698E+00 2.747E+02  0.5468 0.98467
  5.500E+02 6.471E+02 1.708E+00 1.666E-04 1.987E-05 0.000E+00 1.864E-04 1.709E+00 3.040E+02  0.6186 0.98693
  6.000E+02 6.977E+02 1.719E+00 1.856E-04 2.617E-05 0.000E+00 2.118E-04 1.719E+00 3.332E+02  0.6878 0.98873
  7.000E+02 7.987E+02 1.739E+00 2.253E-04 4.110E-05 0.000E+00 2.664E-04 1.740E+00 3.910E+02  0.8190 0.99136
  8.000E+02 8.995E+02 1.758E+00 2.670E-04 5.895E-05 0.000E+00 3.259E-04 1.759E+00 4.482E+02  0.9414 0.99317
  9.000E+02 1.000E+03 1.776E+00 3.103E-04 7.954E-05 0.000E+00 3.899E-04 1.777E+00 5.048E+02  1.0560 0.99447
  1.000E+03 1.101E+03 1.793E+00 3.553E-04 1.027E-04 0.000E+00 4.580E-04 1.793E+00 5.608E+02  1.1638 0.99542
  1.200E+03 1.301E+03 1.822E+00 4.494E-04 1.561E-04 2.253E-05 6.281E-04 1.823E+00 6.714E+02  1.3618 0.99672
  1.400E+03 1.502E+03 1.847E+00 5.486E-04 2.183E-04 6.158E-05 8.285E-04 1.848E+00 7.804E+02  1.5402 0.99753
  1.700E+03 1.803E+03 1.880E+00 7.057E-04 3.259E-04 1.317E-04 1.163E-03 1.881E+00 9.413E+02  1.7788 0.99829
  2.000E+03 2.103E+03 1.907E+00 8.712E-04 4.490E-04 2.143E-04 1.534E-03 1.908E+00 1.100E+03  1.9899 0.99874
  2.500E+03 2.604E+03 1.944E+00 1.163E-03 6.836E-04 3.737E-04 2.220E-03 1.946E+00 1.359E+03  2.2957 0.99918
  3.000E+03 3.104E+03 1.974E+00 1.472E-03 9.500E-04 5.410E-04 2.963E-03 1.977E+00 1.614E+03  2.5585 0.99942
  3.500E+03 3.604E+03 1.998E+00 1.795E-03 1.244E-03 7.181E-04 3.757E-03 2.002E+00 1.866E+03  2.7893 0.99957
  4.000E+03 4.104E+03 2.020E+00 2.130E-03 1.575E-03 9.072E-04 4.612E-03 2.024E+00 2.114E+03  2.9951 0.99967
  4.500E+03 4.604E+03 2.038E+00 2.477E-03 1.933E-03 1.104E-03 5.514E-03 2.044E+00 2.360E+03  3.1810 0.99974
  5.000E+03 5.105E+03 2.054E+00 2.833E-03 2.312E-03 1.293E-03 6.438E-03 2.061E+00 2.603E+03  3.3506 0.99979
  5.500E+03 5.605E+03 2.069E+00 3.199E-03 2.710E-03 1.497E-03 7.405E-03 2.076E+00 2.845E+03  3.5066 0.99982
  6.000E+03 6.105E+03 2.082E+00 3.572E-03 3.126E-03 1.686E-03 8.384E-03 2.090E+00 3.085E+03  3.6511 0.99985
  7.000E+03 7.105E+03 2.105E+00 4.341E-03 4.004E-03 2.089E-03 1.043E-02 2.115E+00 3.561E+03  3.9115 0.99989
  8.000E+03 8.105E+03 2.124E+00 5.136E-03 4.938E-03 2.488E-03 1.256E-02 2.137E+00 4.031E+03  4.1415 0.99992
  9.000E+03 9.105E+03 2.141E+00 5.954E-03 5.921E-03 2.864E-03 1.474E-02 2.155E+00 4.497E+03  4.3476 0.99993
  1.000E+04 1.011E+04 2.155E+00 6.793E-03 6.948E-03 3.252E-03 1.699E-02 2.172E+00 4.959E+03  4.5343 0.99995
  1.200E+04 1.211E+04 2.180E+00 8.523E-03 9.115E-03 4.039E-03 2.168E-02 2.202E+00 5.874E+03  4.8624 0.99996
  1.400E+04 1.411E+04 2.201E+00 1.032E-02 1.141E-02 4.828E-03 2.656E-02 2.227E+00 6.777E+03  5.1442 0.99997
  1.700E+04 1.711E+04 2.225E+00 1.310E-02 1.506E-02 5.998E-03 3.416E-02 2.260E+00 8.114E+03  5.5045 0.99998
  2.000E+04 2.011E+04 2.246E+00 1.598E-02 1.892E-02 7.146E-03 4.205E-02 2.288E+00 9.434E+03  5.8101 0.99999
  2.500E+04 2.511E+04 2.272E+00 2.097E-02 2.571E-02 9.033E-03 5.571E-02 2.328E+00 1.160E+04  6.2349 0.99999
  3.000E+04 3.011E+04 2.294E+00 2.613E-02 3.287E-02 1.089E-02 6.989E-02 2.364E+00 1.373E+04  6.5860 0.99999
  3.500E+04 3.511E+04 2.311E+00 3.145E-02 4.033E-02 1.276E-02 8.454E-02 2.396E+00 1.583E+04  6.8852 1.00000
  4.000E+04 4.011E+04 2.326E+00 3.689E-02 4.804E-02 1.462E-02 9.955E-02 2.426E+00 1.791E+04  7.1459 1.00000
  4.500E+04 4.511E+04 2.339E+00 4.244E-02 5.596E-02 1.645E-02 1.148E-01 2.454E+00 1.996E+04  7.3768 1.00000
  5.000E+04 5.011E+04 2.350E+00 4.809E-02 6.407E-02 1.828E-02 1.304E-01 2.481E+00 2.198E+04  7.5841 1.00000
  5.500E+04 5.511E+04 2.360E+00 5.383E-02 7.234E-02 2.012E-02 1.463E-01 2.507E+00 2.399E+04  7.7722 1.00000
  6.000E+04 6.011E+04 2.370E+00 5.964E-02 8.074E-02 2.195E-02 1.623E-01 2.532E+00 2.597E+04  7.9443 1.00000
  7.000E+04 7.011E+04 2.386E+00 7.147E-02 9.793E-02 2.558E-02 1.950E-01 2.581E+00 2.989E+04  8.2499 1.00000
  8.000E+04 8.011E+04 2.399E+00 8.354E-02 1.155E-01 2.921E-02 2.283E-01 2.628E+00 3.373E+04  8.5153 1.00000
  9.000E+04 9.011E+04 2.411E+00 9.581E-02 1.335E-01 3.285E-02 2.622E-01 2.673E+00 3.750E+04  8.7498 1.00000
  1.000E+05 1.001E+05 2.422E+00 1.083E-01 1.518E-01 3.643E-02 2.964E-01 2.718E+00 4.121E+04  8.9598 1.00000
  1.200E+05 1.201E+05 2.440E+00 1.336E-01 1.890E-01 4.370E-02 3.663E-01 2.807E+00 4.845E+04  9.3237 1.00000
  1.400E+05 1.401E+05 2.455E+00 1.595E-01 2.271E-01 5.098E-02 4.376E-01 2.893E+00 5.547E+04  9.6316 1.00000
  1.700E+05 1.701E+05 2.475E+00 1.990E-01 2.854E-01 6.192E-02 5.464E-01 3.021E+00 6.562E+04 10.0196 1.00000
  2.000E+05 2.001E+05 2.491E+00 2.393E-01 3.448E-01 7.292E-02 6.571E-01 3.148E+00 7.535E+04 10.3445 1.00000
  2.500E+05 2.501E+05 2.512E+00 3.079E-01 4.457E-01 9.131E-02 8.448E-01 3.357E+00 9.074E+04 10.7906 1.00000
  3.000E+05 3.001E+05 2.530E+00 3.777E-01 5.482E-01 1.098E-01 1.036E+00 3.566E+00 1.052E+05 11.1551 1.00000
  3.500E+05 3.501E+05 2.545E+00 4.486E-01 6.521E-01 1.286E-01 1.229E+00 3.775E+00 1.188E+05 11.4633 1.00000
  4.000E+05 4.001E+05 2.559E+00 5.203E-01 7.570E-01 1.475E-01 1.425E+00 3.983E+00 1.317E+05 11.7302 1.00000
  4.500E+05 4.501E+05 2.570E+00 5.927E-01 8.628E-01 1.664E-01 1.622E+00 4.192E+00 1.440E+05 11.9658 1.00000
  5.000E+05 5.001E+05 2.580E+00 6.657E-01 9.692E-01 1.856E-01 1.820E+00 4.401E+00 1.556E+05 12.1764 1.00000
  5.500E+05 5.501E+05 2.590E+00 7.393E-01 1.076E+00 2.045E-01 2.020E+00 4.610E+00 1.667E+05 12.3670 1.00000
  6.000E+05 6.001E+05 2.598E+00 8.133E-01 1.184E+00 2.236E-01 2.221E+00 4.819E+00 1.773E+05 12.5410 1.00000
  7.000E+05 7.001E+05 2.614E+00 9.626E-01 1.400E+00 2.622E-01 2.625E+00 5.238E+00 1.972E+05 12.8493 1.00000
  8.000E+05 8.001E+05 2.627E+00 1.113E+00 1.618E+00 3.011E-01 3.032E+00 5.659E+00 2.156E+05 13.1163 1.00000
  9.000E+05 9.001E+05 2.639E+00 1.265E+00 1.836E+00 3.405E-01 3.441E+00 6.080E+00 2.327E+05 13.3518 1.00000
  1.000E+06 1.000E+06 2.649E+00 1.417E+00 2.056E+00 3.801E-01 3.853E+00 6.503E+00 2.486E+05 13.5625 1.00000
  1.200E+06 1.200E+06 2.668E+00 1.725E+00 2.497E+00 4.605E-01 4.682E+00 7.350E+00 2.776E+05 13.9271 1.00000
  1.400E+06 1.400E+06 2.683E+00 2.035E+00 2.940E+00 5.420E-01 5.517E+00 8.200E+00 3.034E+05 14.2354 1.00000
  1.700E+06 1.700E+06 2.703E+00 2.504E+00 3.608E+00 6.661E-01 6.778E+00 9.481E+00 3.375E+05 14.6237 1.00000
  2.000E+06 2.000E+06 2.720E+00 2.976E+00 4.279E+00 7.923E-01 8.047E+00 1.077E+01 3.672E+05 14.9487 1.00000
  2.500E+06 2.500E+06 2.743E+00 3.768E+00 5.401E+00 1.006E+00 1.018E+01 1.292E+01 4.098E+05 15.3950 1.00000
  3.000E+06 3.000E+06 2.762E+00 4.565E+00 6.528E+00 1.225E+00 1.232E+01 1.508E+01 4.458E+05 15.7596 1.00000
  3.500E+06 3.500E+06 2.778E+00 5.367E+00 7.656E+00 1.447E+00 1.447E+01 1.725E+01 4.768E+05 16.0679 1.00000
  4.000E+06 4.000E+06 2.792E+00 6.171E+00 8.787E+00 1.671E+00 1.663E+01 1.942E+01 5.042E+05 16.3349 1.00000
  4.500E+06 4.500E+06 2.804E+00 6.978E+00 9.920E+00 1.899E+00 1.880E+01 2.160E+01 5.286E+05 16.5705 1.00000
  5.000E+06 5.000E+06 2.815E+00 7.787E+00 1.105E+01 2.130E+00 2.097E+01 2.379E+01 5.507E+05 16.7812 1.00000
  5.500E+06 5.500E+06 2.826E+00 8.597E+00 1.219E+01 2.362E+00 2.315E+01 2.597E+01 5.709E+05 16.9718 1.00000
  6.000E+06 6.000E+06 2.835E+00 9.410E+00 1.332E+01 2.597E+00 2.533E+01 2.817E+01 5.894E+05 17.1459 1.00000
  7.000E+06 7.000E+06 2.852E+00 1.104E+01 1.560E+01 3.073E+00 2.971E+01 3.256E+01 6.225E+05 17.4541 1.00000
  8.000E+06 8.000E+06 2.866E+00 1.267E+01 1.788E+01 3.556E+00 3.410E+01 3.697E+01 6.514E+05 17.7212 1.00000
  9.000E+06 9.000E+06 2.879E+00 1.430E+01 2.015E+01 4.045E+00 3.850E+01 4.138E+01 6.770E+05 17.9568 1.00000
  1.000E+07 1.000E+07 2.890E+00 1.594E+01 2.243E+01 4.540E+00 4.291E+01 4.580E+01 7.000E+05 18.1675 1.00000
  1.200E+07 1.200E+07 2.911E+00 1.922E+01 2.700E+01 5.545E+00 5.176E+01 5.467E+01 7.401E+05 18.5321 1.00000
  1.400E+07 1.400E+07 2.928E+00 2.251E+01 3.156E+01 6.568E+00 6.064E+01 6.357E+01 7.741E+05 18.8404 1.00000
  1.700E+07 1.700E+07 2.949E+00 2.745E+01 3.842E+01 8.131E+00 7.400E+01 7.694E+01 8.172E+05 19.2287 1.00000
  2.000E+07 2.000E+07 2.968E+00 3.239E+01 4.527E+01 9.725E+00 8.739E+01 9.036E+01 8.533E+05 19.5538 1.00000
  2.500E+07 2.500E+07 2.993E+00 4.065E+01 5.671E+01 1.244E+01 1.098E+02 1.128E+02 9.031E+05 20.0001 1.00000
  3.000E+07 3.000E+07 3.014E+00 4.892E+01 6.815E+01 1.521E+01 1.323E+02 1.353E+02 9.438E+05 20.3647 1.00000
  3.500E+07 3.500E+07 3.032E+00 5.719E+01 7.960E+01 1.803E+01 1.548E+02 1.579E+02 9.781E+05 20.6730 1.00000
  4.000E+07 4.000E+07 3.048E+00 6.547E+01 9.104E+01 2.090E+01 1.774E+02 1.805E+02 1.008E+06 20.9401 1.00000
  4.500E+07 4.500E+07 3.062E+00 7.376E+01 1.025E+02 2.381E+01 2.001E+02 2.031E+02 1.034E+06 21.1756 1.00000
  5.000E+07 5.000E+07 3.074E+00 8.205E+01 1.139E+02 2.676E+01 2.227E+02 2.258E+02 1.057E+06 21.3863 1.00000
  5.500E+07 5.500E+07 3.085E+00 9.034E+01 1.254E+02 2.973E+01 2.455E+02 2.486E+02 1.078E+06 21.5770 1.00000
  6.000E+07 6.000E+07 3.096E+00 9.863E+01 1.369E+02 3.274E+01 2.682E+02 2.713E+02 1.098E+06 21.7510 1.00000
  7.000E+07 7.000E+07 3.114E+00 1.152E+02 1.598E+02 3.884E+01 3.138E+02 3.169E+02 1.132E+06 22.0593 1.00000
  8.000E+07 8.000E+07 3.130E+00 1.318E+02 1.827E+02 4.504E+01 3.595E+02 3.627E+02 1.161E+06 22.3264 1.00000
  9.000E+07 9.000E+07 3.145E+00 1.484E+02 2.056E+02 5.132E+01 4.053E+02 4.085E+02 1.188E+06 22.5619 1.00000
  1.000E+08 1.000E+08 3.157E+00 1.650E+02 2.285E+02 5.769E+01 4.512E+02 4.544E+02 1.211E+06 22.7726 1.00000
  1.200E+08 1.200E+08 3.180E+00 1.983E+02 2.743E+02 7.063E+01 5.432E+02 5.464E+02 1.251E+06 23.1373 1.00000
  1.400E+08 1.400E+08 3.199E+00 2.315E+02 3.202E+02 8.382E+01 6.355E+02 6.387E+02 1.285E+06 23.4456 1.00000
  1.700E+08 1.700E+08 3.223E+00 2.814E+02 3.889E+02 1.040E+02 7.743E+02 7.775E+02 1.328E+06 23.8339 1.00000
  2.000E+08 2.000E+08 3.244E+00 3.312E+02 4.577E+02 1.246E+02 9.136E+02 9.168E+02 1.363E+06 24.1589 1.00000
  2.500E+08 2.500E+08 3.272E+00 4.144E+02 5.723E+02 1.597E+02 1.146E+03 1.150E+03 1.412E+06 24.6052 1.00000
  3.000E+08 3.000E+08 3.295E+00 4.975E+02 6.869E+02 1.956E+02 1.380E+03 1.383E+03 1.452E+06 24.9699 1.00000
  3.500E+08 3.500E+08 3.315E+00 5.807E+02 8.016E+02 2.323E+02 1.615E+03 1.618E+03 1.486E+06 25.2782 1.00000
  4.000E+08 4.000E+08 3.333E+00 6.639E+02 9.162E+02 2.695E+02 1.850E+03 1.853E+03 1.515E+06 25.5452 1.00000
  4.500E+08 4.500E+08 3.348E+00 7.470E+02 1.031E+03 3.073E+02 2.085E+03 2.088E+03 1.540E+06 25.7808 1.00000
  5.000E+08 5.000E+08 3.362E+00 8.302E+02 1.145E+03 3.456E+02 2.321E+03 2.325E+03 1.563E+06 25.9915 1.00000
  5.500E+08 5.500E+08 3.375E+00 9.134E+02 1.260E+03 3.843E+02 2.558E+03 2.561E+03 1.583E+06 26.1821 1.00000
  6.000E+08 6.000E+08 3.386E+00 9.966E+02 1.375E+03 4.235E+02 2.795E+03 2.798E+03 1.602E+06 26.3562 1.00000
  7.000E+08 7.000E+08 3.407E+00 1.163E+03 1.604E+03 5.029E+02 3.270E+03 3.273E+03 1.635E+06 26.6645 1.00000
  8.000E+08 8.000E+08 3.425E+00 1.329E+03 1.833E+03 5.837E+02 3.746E+03 3.750E+03 1.664E+06 26.9315 1.00000
  9.000E+08 9.000E+08 3.441E+00 1.496E+03 2.062E+03 6.657E+02 4.224E+03 4.227E+03 1.689E+06 27.1671 1.00000
  1.000E+09 1.000E+09 3.455E+00 1.662E+03 2.292E+03 7.488E+02 4.702E+03 4.706E+03 1.712E+06 27.3778 1.00000
