 Incident particle is a Muon with M = 105.65839 MeV
 Index = 0: G10
      Absorber with <Z/A> = 0.63366
 Sternheimer coef:  a     k=m_s   x_0    x_1    I[eV]   Cbar  delta0
                 0.1297  3.0000  0.2000  3.0000  110.4  3.7685 0.00

 *** Table generated with PUMAS v1.00 ***

      T         p     Ionization  brems     pair     photonuc  Radloss    dE/dx   CSDA Range  delta   beta
    [MeV]    [MeV/c]  -----------------------[MeV cm^2/g]------------------------  [g/cm^2]
  1.000E+00 1.457E+01 5.366E+01 8.880E-07 0.000E+00 0.000E+00 8.880E-07 5.366E+01 9.317E-03  0.0000 0.13661
  1.200E+00 1.597E+01 4.641E+01 1.017E-06 0.000E+00 0.000E+00 1.017E-06 4.641E+01 1.334E-02  0.0000 0.14944
  1.400E+00 1.726E+01 4.103E+01 1.140E-06 0.000E+00 0.000E+00 1.140E-06 4.103E+01 1.793E-02  0.0000 0.16119
  1.700E+00 1.903E+01 3.511E+01 1.316E-06 0.000E+00 0.000E+00 1.316E-06 3.511E+01 2.586E-02  0.0000 0.17725
  2.000E+00 2.066E+01 3.080E+01 1.482E-06 0.000E+00 0.000E+00 1.482E-06 3.080E+01 3.500E-02  0.0000 0.19186
  2.500E+00 2.312E+01 2.574E+01 1.742E-06 0.000E+00 0.000E+00 1.742E-06 2.574E+01 5.283E-02  0.0000 0.21376
  3.000E+00 2.536E+01 2.222E+01 1.985E-06 0.000E+00 0.000E+00 1.985E-06 2.222E+01 7.379E-02  0.0000 0.23336
  3.500E+00 2.742E+01 1.963E+01 2.215E-06 0.000E+00 0.000E+00 2.215E-06 1.963E+01 9.778E-02  0.0000 0.25120
  4.000E+00 2.935E+01 1.764E+01 2.433E-06 0.000E+00 0.000E+00 2.433E-06 1.764E+01 1.247E-01  0.0000 0.26763
  4.500E+00 3.116E+01 1.606E+01 2.640E-06 0.000E+00 0.000E+00 2.640E-06 1.606E+01 1.544E-01  0.0000 0.28290
  5.000E+00 3.289E+01 1.477E+01 2.839E-06 0.000E+00 0.000E+00 2.839E-06 1.477E+01 1.869E-01  0.0000 0.29720
  5.500E+00 3.453E+01 1.370E+01 3.031E-06 0.000E+00 0.000E+00 3.031E-06 1.370E+01 2.221E-01  0.0000 0.31066
  6.000E+00 3.611E+01 1.279E+01 3.215E-06 0.000E+00 0.000E+00 3.215E-06 1.279E+01 2.599E-01  0.0000 0.32339
  7.000E+00 3.909E+01 1.134E+01 3.566E-06 0.000E+00 0.000E+00 3.566E-06 1.134E+01 3.430E-01  0.0000 0.34700
  8.000E+00 4.189E+01 1.023E+01 3.896E-06 0.000E+00 0.000E+00 3.896E-06 1.023E+01 4.360E-01  0.0000 0.36854
  9.000E+00 4.453E+01 9.352E+00 4.210E-06 0.000E+00 0.000E+00 4.210E-06 9.352E+00 5.383E-01  0.0000 0.38836
  1.000E+01 4.704E+01 8.637E+00 4.509E-06 0.000E+00 0.000E+00 4.509E-06 8.637E+00 6.497E-01  0.0000 0.40675
  1.200E+01 5.177E+01 7.546E+00 5.070E-06 0.000E+00 0.000E+00 5.070E-06 7.546E+00 8.980E-01  0.0000 0.43998
  1.400E+01 5.616E+01 6.751E+00 5.593E-06 0.000E+00 0.000E+00 5.593E-06 6.751E+00 1.179E+00  0.0000 0.46937
  1.700E+01 6.230E+01 5.893E+00 6.323E-06 0.000E+00 0.000E+00 6.323E-06 5.893E+00 1.655E+00  0.0000 0.50792
  2.000E+01 6.802E+01 5.282E+00 7.003E-06 0.000E+00 0.000E+00 7.003E-06 5.282E+00 2.194E+00  0.0000 0.54129
  2.500E+01 7.686E+01 4.580E+00 8.058E-06 0.000E+00 0.000E+00 8.058E-06 4.580E+00 3.213E+00  0.0000 0.58827
  3.000E+01 8.509E+01 4.106E+00 9.047E-06 0.000E+00 0.000E+00 9.047E-06 4.106E+00 4.368E+00  0.0000 0.62720
  3.500E+01 9.285E+01 3.766E+00 9.992E-06 0.000E+00 0.000E+00 9.992E-06 3.766E+00 5.641E+00  0.0000 0.66011
  4.000E+01 1.003E+02 3.510E+00 1.091E-05 0.000E+00 0.000E+00 1.091E-05 3.510E+00 7.017E+00  0.0000 0.68834
  4.500E+01 1.074E+02 3.313E+00 1.181E-05 0.000E+00 0.000E+00 1.181E-05 3.313E+00 8.484E+00  0.0000 0.71286
  5.000E+01 1.143E+02 3.155E+00 1.269E-05 0.000E+00 0.000E+00 1.269E-05 3.155E+00 1.003E+01  0.0000 0.73434
  5.500E+01 1.210E+02 3.028E+00 1.357E-05 0.000E+00 0.000E+00 1.357E-05 3.028E+00 1.165E+01  0.0000 0.75332
  6.000E+01 1.276E+02 2.923E+00 1.445E-05 0.000E+00 0.000E+00 1.445E-05 2.923E+00 1.333E+01  0.0000 0.77019
  7.000E+01 1.403E+02 2.761E+00 1.621E-05 0.000E+00 0.000E+00 1.621E-05 2.761E+00 1.685E+01  0.0000 0.79887
  8.000E+01 1.527E+02 2.643E+00 1.797E-05 0.000E+00 0.000E+00 1.797E-05 2.644E+00 2.055E+01  0.0000 0.82227
  9.000E+01 1.647E+02 2.556E+00 1.976E-05 0.000E+00 0.000E+00 1.976E-05 2.556E+00 2.440E+01  0.0000 0.84166
  1.000E+02 1.764E+02 2.484E+00 2.158E-05 0.000E+00 0.000E+00 2.158E-05 2.484E+00 2.837E+01  0.0356 0.85794
  1.200E+02 1.994E+02 2.381E+00 2.531E-05 0.000E+00 0.000E+00 2.531E-05 2.381E+00 3.660E+01  0.1238 0.88361
  1.400E+02 2.218E+02 2.313E+00 2.917E-05 0.000E+00 0.000E+00 2.917E-05 2.313E+00 4.512E+01  0.2054 0.90278
  1.700E+02 2.546E+02 2.251E+00 3.521E-05 2.569E-14 0.000E+00 3.521E-05 2.251E+00 5.827E+01  0.3179 0.92363
  2.000E+02 2.868E+02 2.216E+00 4.155E-05 5.913E-12 0.000E+00 4.155E-05 2.216E+00 7.170E+01  0.4209 0.93835
  2.500E+02 3.396E+02 2.189E+00 5.275E-05 7.603E-08 0.000E+00 5.282E-05 2.189E+00 9.440E+01  0.5761 0.95485
  3.000E+02 3.917E+02 2.182E+00 6.467E-05 8.456E-07 0.000E+00 6.552E-05 2.182E+00 1.173E+02  0.7152 0.96548
  3.500E+02 4.432E+02 2.184E+00 7.725E-05 2.356E-06 0.000E+00 7.961E-05 2.184E+00 1.402E+02  0.8418 0.97274
  4.000E+02 4.945E+02 2.191E+00 9.044E-05 4.586E-06 0.000E+00 9.503E-05 2.191E+00 1.630E+02  0.9582 0.97793
  4.500E+02 5.455E+02 2.201E+00 1.042E-04 7.508E-06 0.000E+00 1.117E-04 2.201E+00 1.858E+02  1.0662 0.98176
  5.000E+02 5.964E+02 2.213E+00 1.185E-04 1.110E-05 0.000E+00 1.296E-04 2.213E+00 2.085E+02  1.1670 0.98467
  5.500E+02 6.471E+02 2.225E+00 1.332E-04 1.533E-05 0.000E+00 1.486E-04 2.225E+00 2.310E+02  1.2616 0.98693
  6.000E+02 6.977E+02 2.237E+00 1.484E-04 2.019E-05 0.000E+00 1.686E-04 2.237E+00 2.534E+02  1.3508 0.98873
  7.000E+02 7.987E+02 2.261E+00 1.801E-04 3.169E-05 0.000E+00 2.118E-04 2.261E+00 2.979E+02  1.5155 0.99136
  8.000E+02 8.995E+02 2.284E+00 2.133E-04 4.544E-05 0.000E+00 2.588E-04 2.284E+00 3.419E+02  1.6650 0.99317
  9.000E+02 1.000E+03 2.305E+00 2.479E-04 6.130E-05 0.000E+00 3.092E-04 2.305E+00 3.855E+02  1.8020 0.99447
  1.000E+03 1.101E+03 2.325E+00 2.838E-04 7.913E-05 0.000E+00 3.629E-04 2.325E+00 4.287E+02  1.9286 0.99542
  1.200E+03 1.301E+03 2.361E+00 3.589E-04 1.203E-04 2.257E-05 5.018E-04 2.361E+00 5.140E+02  2.1565 0.99672
  1.400E+03 1.502E+03 2.392E+00 4.381E-04 1.681E-04 6.191E-05 6.681E-04 2.393E+00 5.981E+02  2.3577 0.99753
  1.700E+03 1.803E+03 2.433E+00 5.635E-04 2.510E-04 1.331E-04 9.476E-04 2.434E+00 7.225E+02  2.6218 0.99829
  2.000E+03 2.103E+03 2.467E+00 6.957E-04 3.457E-04 2.174E-04 1.259E-03 2.468E+00 8.449E+02  2.8517 0.99874
  2.500E+03 2.604E+03 2.514E+00 9.289E-04 5.264E-04 3.813E-04 1.837E-03 2.515E+00 1.046E+03  3.1799 0.99918
  3.000E+03 3.104E+03 2.552E+00 1.176E-03 7.315E-04 5.544E-04 2.462E-03 2.554E+00 1.243E+03  3.4582 0.99942
  3.500E+03 3.604E+03 2.584E+00 1.435E-03 9.578E-04 7.387E-04 3.131E-03 2.587E+00 1.437E+03  3.7003 0.99957
  4.000E+03 4.104E+03 2.611E+00 1.703E-03 1.220E-03 9.363E-04 3.860E-03 2.615E+00 1.630E+03  3.9148 0.99967
  4.500E+03 4.604E+03 2.635E+00 1.981E-03 1.507E-03 1.142E-03 4.631E-03 2.639E+00 1.820E+03  4.1074 0.99974
  5.000E+03 5.105E+03 2.656E+00 2.267E-03 1.811E-03 1.341E-03 5.419E-03 2.661E+00 2.009E+03  4.2824 0.99979
  5.500E+03 5.605E+03 2.674E+00 2.561E-03 2.130E-03 1.556E-03 6.247E-03 2.681E+00 2.196E+03  4.4428 0.99982
  6.000E+03 6.105E+03 2.691E+00 2.861E-03 2.464E-03 1.756E-03 7.081E-03 2.698E+00 2.382E+03  4.5910 0.99985
  7.000E+03 7.105E+03 2.721E+00 3.480E-03 3.170E-03 2.181E-03 8.831E-03 2.730E+00 2.750E+03  4.8571 0.99989
  8.000E+03 8.105E+03 2.746E+00 4.120E-03 3.922E-03 2.605E-03 1.065E-02 2.757E+00 3.115E+03  5.0914 0.99992
  9.000E+03 9.105E+03 2.768E+00 4.780E-03 4.715E-03 3.004E-03 1.250E-02 2.780E+00 3.476E+03  5.3007 0.99993
  1.000E+04 1.011E+04 2.787E+00 5.456E-03 5.544E-03 3.418E-03 1.442E-02 2.801E+00 3.834E+03  5.4901 0.99995
  1.200E+04 1.211E+04 2.819E+00 6.854E-03 7.296E-03 4.258E-03 1.841E-02 2.838E+00 4.544E+03  5.8219 0.99996
  1.400E+04 1.411E+04 2.846E+00 8.304E-03 9.156E-03 5.103E-03 2.256E-02 2.869E+00 5.245E+03  6.1064 0.99997
  1.700E+04 1.711E+04 2.879E+00 1.056E-02 1.212E-02 6.358E-03 2.903E-02 2.908E+00 6.283E+03  6.4695 0.99998
  2.000E+04 2.011E+04 2.905E+00 1.290E-02 1.525E-02 7.594E-03 3.574E-02 2.941E+00 7.309E+03  6.7771 0.99999
  2.500E+04 2.511E+04 2.941E+00 1.695E-02 2.077E-02 9.630E-03 4.735E-02 2.988E+00 8.996E+03  7.2043 0.99999
  3.000E+04 3.011E+04 2.969E+00 2.116E-02 2.660E-02 1.164E-02 5.939E-02 3.028E+00 1.066E+04  7.5570 0.99999
  3.500E+04 3.511E+04 2.992E+00 2.549E-02 3.268E-02 1.367E-02 7.184E-02 3.064E+00 1.230E+04  7.8575 1.00000
  4.000E+04 4.011E+04 3.011E+00 2.993E-02 3.897E-02 1.568E-02 8.459E-02 3.096E+00 1.392E+04  8.1193 1.00000
  4.500E+04 4.511E+04 3.028E+00 3.447E-02 4.545E-02 1.767E-02 9.759E-02 3.126E+00 1.553E+04  8.3512 1.00000
  5.000E+04 5.011E+04 3.043E+00 3.909E-02 5.207E-02 1.966E-02 1.108E-01 3.154E+00 1.712E+04  8.5593 1.00000
  5.500E+04 5.511E+04 3.057E+00 4.378E-02 5.884E-02 2.168E-02 1.243E-01 3.181E+00 1.870E+04  8.7480 1.00000
  6.000E+04 6.011E+04 3.069E+00 4.855E-02 6.572E-02 2.367E-02 1.379E-01 3.207E+00 2.027E+04  8.9207 1.00000
  7.000E+04 7.011E+04 3.090E+00 5.824E-02 7.981E-02 2.763E-02 1.657E-01 3.255E+00 2.336E+04  9.2273 1.00000
  8.000E+04 8.011E+04 3.108E+00 6.815E-02 9.425E-02 3.160E-02 1.940E-01 3.302E+00 2.641E+04  9.4935 1.00000
  9.000E+04 9.011E+04 3.124E+00 7.822E-02 1.090E-01 3.558E-02 2.228E-01 3.346E+00 2.942E+04  9.7286 1.00000
  1.000E+05 1.001E+05 3.138E+00 8.846E-02 1.240E-01 3.950E-02 2.520E-01 3.390E+00 3.239E+04  9.9390 1.00000
  1.200E+05 1.201E+05 3.162E+00 1.093E-01 1.547E-01 4.747E-02 3.114E-01 3.473E+00 3.822E+04 10.3033 1.00000
  1.400E+05 1.401E+05 3.182E+00 1.306E-01 1.860E-01 5.546E-02 3.721E-01 3.554E+00 4.391E+04 10.6114 1.00000
  1.700E+05 1.701E+05 3.207E+00 1.632E-01 2.341E-01 6.746E-02 4.648E-01 3.672E+00 5.222E+04 10.9994 1.00000
  2.000E+05 2.001E+05 3.228E+00 1.965E-01 2.831E-01 7.955E-02 5.592E-01 3.788E+00 6.026E+04 11.3243 1.00000
  2.500E+05 2.501E+05 3.257E+00 2.532E-01 3.665E-01 9.978E-02 7.194E-01 3.977E+00 7.315E+04 11.7704 1.00000
  3.000E+05 3.001E+05 3.281E+00 3.110E-01 4.514E-01 1.202E-01 8.825E-01 4.164E+00 8.544E+04 12.1349 1.00000
  3.500E+05 3.501E+05 3.301E+00 3.696E-01 5.375E-01 1.408E-01 1.048E+00 4.349E+00 9.719E+04 12.4431 1.00000
  4.000E+05 4.001E+05 3.318E+00 4.291E-01 6.245E-01 1.616E-01 1.215E+00 4.534E+00 1.085E+05 12.7100 1.00000
  4.500E+05 4.501E+05 3.334E+00 4.891E-01 7.122E-01 1.825E-01 1.384E+00 4.718E+00 1.193E+05 12.9456 1.00000
  5.000E+05 5.001E+05 3.347E+00 5.497E-01 8.005E-01 2.036E-01 1.554E+00 4.901E+00 1.297E+05 13.1562 1.00000
  5.500E+05 5.501E+05 3.360E+00 6.108E-01 8.894E-01 2.246E-01 1.725E+00 5.085E+00 1.397E+05 13.3468 1.00000
  6.000E+05 6.001E+05 3.371E+00 6.723E-01 9.788E-01 2.457E-01 1.897E+00 5.268E+00 1.494E+05 13.5208 1.00000
  7.000E+05 7.001E+05 3.391E+00 7.963E-01 1.159E+00 2.882E-01 2.243E+00 5.635E+00 1.677E+05 13.8291 1.00000
  8.000E+05 8.001E+05 3.409E+00 9.216E-01 1.340E+00 3.312E-01 2.592E+00 6.001E+00 1.849E+05 14.0961 1.00000
  9.000E+05 9.001E+05 3.425E+00 1.048E+00 1.522E+00 3.746E-01 2.944E+00 6.369E+00 2.011E+05 14.3316 1.00000
  1.000E+06 1.000E+06 3.439E+00 1.175E+00 1.704E+00 4.185E-01 3.298E+00 6.736E+00 2.164E+05 14.5423 1.00000
  1.200E+06 1.200E+06 3.463E+00 1.431E+00 2.072E+00 5.072E-01 4.010E+00 7.473E+00 2.446E+05 14.9069 1.00000
  1.400E+06 1.400E+06 3.483E+00 1.689E+00 2.442E+00 5.972E-01 4.728E+00 8.212E+00 2.702E+05 15.2152 1.00000
  1.700E+06 1.700E+06 3.510E+00 2.080E+00 2.999E+00 7.344E-01 5.814E+00 9.323E+00 3.045E+05 15.6035 1.00000
  2.000E+06 2.000E+06 3.532E+00 2.474E+00 3.559E+00 8.738E-01 6.907E+00 1.044E+01 3.350E+05 15.9285 1.00000
  2.500E+06 2.500E+06 3.562E+00 3.136E+00 4.496E+00 1.110E+00 8.742E+00 1.230E+01 3.792E+05 16.3748 1.00000
  3.000E+06 3.000E+06 3.587E+00 3.803E+00 5.436E+00 1.352E+00 1.059E+01 1.418E+01 4.172E+05 16.7394 1.00000
  3.500E+06 3.500E+06 3.608E+00 4.473E+00 6.380E+00 1.597E+00 1.245E+01 1.606E+01 4.504E+05 17.0477 1.00000
  4.000E+06 4.000E+06 3.627E+00 5.146E+00 7.325E+00 1.846E+00 1.432E+01 1.794E+01 4.799E+05 17.3147 1.00000
  4.500E+06 4.500E+06 3.644E+00 5.822E+00 8.271E+00 2.098E+00 1.619E+01 1.983E+01 5.064E+05 17.5503 1.00000
  5.000E+06 5.000E+06 3.658E+00 6.499E+00 9.219E+00 2.352E+00 1.807E+01 2.173E+01 5.305E+05 17.7610 1.00000
  5.500E+06 5.500E+06 3.672E+00 7.178E+00 1.017E+01 2.610E+00 1.996E+01 2.363E+01 5.526E+05 17.9516 1.00000
  6.000E+06 6.000E+06 3.684E+00 7.858E+00 1.112E+01 2.869E+00 2.185E+01 2.553E+01 5.730E+05 18.1257 1.00000
  7.000E+06 7.000E+06 3.706E+00 9.223E+00 1.302E+01 3.395E+00 2.564E+01 2.934E+01 6.096E+05 18.4339 1.00000
  8.000E+06 8.000E+06 3.725E+00 1.059E+01 1.492E+01 3.929E+00 2.944E+01 3.317E+01 6.417E+05 18.7010 1.00000
  9.000E+06 9.000E+06 3.742E+00 1.196E+01 1.683E+01 4.470E+00 3.326E+01 3.700E+01 6.703E+05 18.9366 1.00000
  1.000E+07 1.000E+07 3.758E+00 1.333E+01 1.874E+01 5.018E+00 3.709E+01 4.085E+01 6.961E+05 19.1473 1.00000
  1.200E+07 1.200E+07 3.784E+00 1.609E+01 2.255E+01 6.129E+00 4.477E+01 4.856E+01 7.412E+05 19.5119 1.00000
  1.400E+07 1.400E+07 3.807E+00 1.885E+01 2.638E+01 7.260E+00 5.248E+01 5.629E+01 7.795E+05 19.8202 1.00000
  1.700E+07 1.700E+07 3.836E+00 2.299E+01 3.211E+01 8.990E+00 6.409E+01 6.793E+01 8.282E+05 20.2085 1.00000
  2.000E+07 2.000E+07 3.860E+00 2.714E+01 3.785E+01 1.075E+01 7.575E+01 7.961E+01 8.692E+05 20.5336 1.00000
  2.500E+07 2.500E+07 3.894E+00 3.408E+01 4.742E+01 1.375E+01 9.526E+01 9.915E+01 9.258E+05 20.9799 1.00000
  3.000E+07 3.000E+07 3.922E+00 4.102E+01 5.700E+01 1.682E+01 1.148E+02 1.188E+02 9.721E+05 21.3445 1.00000
  3.500E+07 3.500E+07 3.945E+00 4.798E+01 6.658E+01 1.994E+01 1.345E+02 1.384E+02 1.011E+06 21.6528 1.00000
  4.000E+07 4.000E+07 3.966E+00 5.493E+01 7.616E+01 2.312E+01 1.542E+02 1.582E+02 1.045E+06 21.9199 1.00000
  4.500E+07 4.500E+07 3.984E+00 6.190E+01 8.575E+01 2.633E+01 1.740E+02 1.780E+02 1.075E+06 22.1554 1.00000
  5.000E+07 5.000E+07 4.001E+00 6.886E+01 9.534E+01 2.959E+01 1.938E+02 1.978E+02 1.102E+06 22.3661 1.00000
  5.500E+07 5.500E+07 4.016E+00 7.583E+01 1.049E+02 3.289E+01 2.136E+02 2.177E+02 1.126E+06 22.5568 1.00000
  6.000E+07 6.000E+07 4.029E+00 8.280E+01 1.145E+02 3.621E+01 2.335E+02 2.376E+02 1.148E+06 22.7308 1.00000
  7.000E+07 7.000E+07 4.054E+00 9.675E+01 1.337E+02 4.296E+01 2.734E+02 2.775E+02 1.187E+06 23.0391 1.00000
  8.000E+07 8.000E+07 4.075E+00 1.107E+02 1.529E+02 4.982E+01 3.134E+02 3.175E+02 1.221E+06 23.3062 1.00000
  9.000E+07 9.000E+07 4.094E+00 1.247E+02 1.721E+02 5.677E+01 3.535E+02 3.576E+02 1.250E+06 23.5417 1.00000
  1.000E+08 1.000E+08 4.111E+00 1.386E+02 1.912E+02 6.381E+01 3.937E+02 3.978E+02 1.277E+06 23.7524 1.00000
  1.200E+08 1.200E+08 4.141E+00 1.666E+02 2.296E+02 7.813E+01 4.743E+02 4.785E+02 1.323E+06 24.1171 1.00000
  1.400E+08 1.400E+08 4.166E+00 1.945E+02 2.680E+02 9.271E+01 5.552E+02 5.594E+02 1.362E+06 24.4254 1.00000
  1.700E+08 1.700E+08 4.198E+00 2.365E+02 3.256E+02 1.150E+02 6.771E+02 6.813E+02 1.410E+06 24.8137 1.00000
  2.000E+08 2.000E+08 4.225E+00 2.784E+02 3.832E+02 1.378E+02 7.994E+02 8.036E+02 1.451E+06 25.1387 1.00000
  2.500E+08 2.500E+08 4.263E+00 3.483E+02 4.791E+02 1.767E+02 1.004E+03 1.008E+03 1.507E+06 25.5850 1.00000
  3.000E+08 3.000E+08 4.294E+00 4.183E+02 5.751E+02 2.164E+02 1.210E+03 1.214E+03 1.552E+06 25.9497 1.00000
  3.500E+08 3.500E+08 4.320E+00 4.882E+02 6.711E+02 2.569E+02 1.416E+03 1.421E+03 1.591E+06 26.2580 1.00000
  4.000E+08 4.000E+08 4.343E+00 5.581E+02 7.670E+02 2.981E+02 1.623E+03 1.628E+03 1.624E+06 26.5250 1.00000
  4.500E+08 4.500E+08 4.364E+00 6.281E+02 8.630E+02 3.399E+02 1.831E+03 1.835E+03 1.653E+06 26.7606 1.00000
  5.000E+08 5.000E+08 4.382E+00 6.981E+02 9.590E+02 3.823E+02 2.039E+03 2.044E+03 1.678E+06 26.9713 1.00000
  5.500E+08 5.500E+08 4.399E+00 7.680E+02 1.055E+03 4.251E+02 2.248E+03 2.253E+03 1.702E+06 27.1619 1.00000
  6.000E+08 6.000E+08 4.414E+00 8.380E+02 1.151E+03 4.685E+02 2.457E+03 2.462E+03 1.723E+06 27.3360 1.00000
  7.000E+08 7.000E+08 4.441E+00 9.779E+02 1.343E+03 5.563E+02 2.877E+03 2.882E+03 1.761E+06 27.6443 1.00000
  8.000E+08 8.000E+08 4.465E+00 1.118E+03 1.535E+03 6.457E+02 3.298E+03 3.303E+03 1.793E+06 27.9113 1.00000
  9.000E+08 9.000E+08 4.486E+00 1.258E+03 1.727E+03 7.364E+02 3.721E+03 3.725E+03 1.822E+06 28.1469 1.00000
  1.000E+09 1.000E+09 4.505E+00 1.398E+03 1.919E+03 8.283E+02 4.145E+03 4.149E+03 1.847E+06 28.3576 1.00000
