 Incident particle is a Muon with M = 105.65839 MeV
 Index = 0: GadoliniumOxysulfide
      Absorber with <Z/A> = 0.42264
 Sternheimer coef:  a     k=m_s   x_0    x_1    I[eV]   Cbar  delta0
                 0.2216  2.6300  0.1774  3.4045  493.3  5.5347 0.00

 *** Table generated with PUMAS v1.00 ***

      T         p     Ionization  brems     pair     photonuc  Radloss    dE/dx   CSDA Range  delta   beta
    [MeV]    [MeV/c]  -----------------------[MeV cm^2/g]------------------------  [g/cm^2]
  1.000E+00 1.457E+01 2.538E+01 3.995E-06 0.000E+00 0.000E+00 3.995E-06 2.538E+01 1.970E-02  0.0000 0.13661
  1.200E+00 1.597E+01 2.226E+01 4.589E-06 0.000E+00 0.000E+00 4.589E-06 2.226E+01 2.813E-02  0.0000 0.14944
  1.400E+00 1.726E+01 1.989E+01 5.151E-06 0.000E+00 0.000E+00 5.151E-06 1.989E+01 3.765E-02  0.0000 0.16119
  1.700E+00 1.903E+01 1.723E+01 5.948E-06 0.000E+00 0.000E+00 5.948E-06 1.723E+01 5.390E-02  0.0000 0.17725
  2.000E+00 2.066E+01 1.527E+01 6.696E-06 0.000E+00 0.000E+00 6.696E-06 1.527E+01 7.243E-02  0.0000 0.19186
  2.500E+00 2.312E+01 1.291E+01 7.856E-06 0.000E+00 0.000E+00 7.856E-06 1.291E+01 1.082E-01  0.0000 0.21376
  3.000E+00 2.536E+01 1.125E+01 8.929E-06 0.000E+00 0.000E+00 8.929E-06 1.125E+01 1.497E-01  0.0000 0.23336
  3.500E+00 2.742E+01 1.002E+01 9.932E-06 0.000E+00 0.000E+00 9.932E-06 1.002E+01 1.969E-01  0.0000 0.25120
  4.000E+00 2.935E+01 9.056E+00 1.088E-05 0.000E+00 0.000E+00 1.088E-05 9.056E+00 2.495E-01  0.0000 0.26763
  4.500E+00 3.116E+01 8.285E+00 1.177E-05 0.000E+00 0.000E+00 1.177E-05 8.285E+00 3.073E-01  0.0000 0.28290
  5.000E+00 3.289E+01 7.653E+00 1.262E-05 0.000E+00 0.000E+00 1.262E-05 7.653E+00 3.701E-01  0.0000 0.29720
  5.500E+00 3.453E+01 7.125E+00 1.343E-05 0.000E+00 0.000E+00 1.343E-05 7.125E+00 4.378E-01  0.0000 0.31066
  6.000E+00 3.611E+01 6.675E+00 1.421E-05 0.000E+00 0.000E+00 1.421E-05 6.675E+00 5.104E-01  0.0000 0.32339
  7.000E+00 3.909E+01 5.952E+00 1.568E-05 0.000E+00 0.000E+00 1.568E-05 5.952E+00 6.693E-01  0.0000 0.34700
  8.000E+00 4.189E+01 5.394E+00 1.706E-05 0.000E+00 0.000E+00 1.706E-05 5.394E+00 8.460E-01  0.0000 0.36854
  9.000E+00 4.453E+01 4.949E+00 1.835E-05 0.000E+00 0.000E+00 1.835E-05 4.949E+00 1.040E+00  0.0000 0.38836
  1.000E+01 4.704E+01 4.587E+00 1.957E-05 0.000E+00 0.000E+00 1.957E-05 4.587E+00 1.250E+00  0.0000 0.40675
  1.200E+01 5.177E+01 4.030E+00 2.186E-05 0.000E+00 0.000E+00 2.186E-05 4.030E+00 1.716E+00  0.0000 0.43998
  1.400E+01 5.616E+01 3.621E+00 2.397E-05 0.000E+00 0.000E+00 2.397E-05 3.621E+00 2.240E+00  0.0000 0.46937
  1.700E+01 6.230E+01 3.177E+00 2.690E-05 0.000E+00 0.000E+00 2.690E-05 3.177E+00 3.127E+00  0.0000 0.50792
  2.000E+01 6.802E+01 2.860E+00 2.961E-05 0.000E+00 0.000E+00 2.961E-05 2.860E+00 4.123E+00  0.0000 0.54129
  2.500E+01 7.686E+01 2.493E+00 3.380E-05 0.000E+00 0.000E+00 3.380E-05 2.493E+00 6.000E+00  0.0000 0.58827
  3.000E+01 8.509E+01 2.245E+00 3.773E-05 0.000E+00 0.000E+00 3.773E-05 2.245E+00 8.117E+00  0.0000 0.62720
  3.500E+01 9.285E+01 2.066E+00 4.149E-05 0.000E+00 0.000E+00 4.149E-05 2.066E+00 1.044E+01  0.0000 0.66011
  4.000E+01 1.003E+02 1.931E+00 4.515E-05 0.000E+00 0.000E+00 4.515E-05 1.931E+00 1.295E+01  0.0000 0.68834
  4.500E+01 1.074E+02 1.827E+00 4.874E-05 0.000E+00 0.000E+00 4.874E-05 1.827E+00 1.561E+01  0.0000 0.71286
  5.000E+01 1.143E+02 1.744E+00 5.230E-05 0.000E+00 0.000E+00 5.230E-05 1.744E+00 1.841E+01  0.0000 0.73434
  5.500E+01 1.210E+02 1.677E+00 5.584E-05 0.000E+00 0.000E+00 5.584E-05 1.677E+00 2.133E+01  0.0000 0.75332
  6.000E+01 1.276E+02 1.622E+00 5.938E-05 0.000E+00 0.000E+00 5.938E-05 1.622E+00 2.436E+01  0.0000 0.77019
  7.000E+01 1.403E+02 1.537E+00 6.649E-05 0.000E+00 0.000E+00 6.649E-05 1.537E+00 3.070E+01  0.0000 0.79887
  8.000E+01 1.527E+02 1.476E+00 7.369E-05 0.000E+00 0.000E+00 7.369E-05 1.476E+00 3.734E+01  0.0000 0.82227
  9.000E+01 1.647E+02 1.419E+00 8.101E-05 0.000E+00 0.000E+00 8.101E-05 1.419E+00 4.425E+01  0.1205 0.84166
  1.000E+02 1.764E+02 1.384E+00 8.847E-05 0.000E+00 0.000E+00 8.847E-05 1.384E+00 5.139E+01  0.1424 0.85794
  1.200E+02 1.994E+02 1.334E+00 1.038E-04 0.000E+00 0.000E+00 1.038E-04 1.334E+00 6.611E+01  0.1856 0.88361
  1.400E+02 2.218E+02 1.303E+00 1.198E-04 0.000E+00 0.000E+00 1.198E-04 1.303E+00 8.128E+01  0.2276 0.90278
  1.700E+02 2.546E+02 1.276E+00 1.450E-04 4.273E-15 0.000E+00 1.450E-04 1.276E+00 1.045E+02  0.2882 0.92363
  2.000E+02 2.868E+02 1.263E+00 1.716E-04 9.554E-13 0.000E+00 1.716E-04 1.263E+00 1.282E+02  0.3461 0.93835
  2.500E+02 3.396E+02 1.257E+00 2.187E-04 2.051E-08 0.000E+00 2.187E-04 1.257E+00 1.678E+02  0.4368 0.95485
  3.000E+02 3.917E+02 1.260E+00 2.692E-04 2.022E-07 0.000E+00 2.694E-04 1.261E+00 2.076E+02  0.5211 0.96548
  3.500E+02 4.432E+02 1.268E+00 3.227E-04 5.658E-07 0.000E+00 3.232E-04 1.268E+00 2.471E+02  0.6000 0.97274
  4.000E+02 4.945E+02 1.278E+00 3.790E-04 1.104E-06 0.000E+00 3.801E-04 1.278E+00 2.864E+02  0.6741 0.97793
  4.500E+02 5.455E+02 1.288E+00 4.379E-04 3.376E-05 0.000E+00 4.716E-04 1.289E+00 3.253E+02  0.7440 0.98176
  5.000E+02 5.964E+02 1.299E+00 4.991E-04 5.568E-05 0.000E+00 5.548E-04 1.300E+00 3.640E+02  0.8103 0.98467
  5.500E+02 6.471E+02 1.310E+00 5.627E-04 7.823E-05 0.000E+00 6.409E-04 1.311E+00 4.023E+02  0.8733 0.98693
  6.000E+02 6.977E+02 1.321E+00 6.283E-04 1.038E-04 0.000E+00 7.321E-04 1.322E+00 4.403E+02  0.9334 0.98873
  7.000E+02 7.987E+02 1.341E+00 7.654E-04 1.643E-04 0.000E+00 9.298E-04 1.342E+00 5.153E+02  1.0459 0.99136
  8.000E+02 8.995E+02 1.360E+00 9.097E-04 2.369E-04 0.000E+00 1.147E-03 1.361E+00 5.893E+02  1.1496 0.99317
  9.000E+02 1.000E+03 1.377E+00 1.060E-03 3.208E-04 0.000E+00 1.381E-03 1.379E+00 6.623E+02  1.2459 0.99447
  1.000E+03 1.101E+03 1.393E+00 1.217E-03 4.152E-04 0.000E+00 1.632E-03 1.395E+00 7.344E+02  1.3359 0.99542
  1.200E+03 1.301E+03 1.422E+00 1.546E-03 6.334E-04 2.247E-05 2.202E-03 1.424E+00 8.763E+02  1.5002 0.99672
  1.400E+03 1.502E+03 1.447E+00 1.894E-03 8.873E-04 6.103E-05 2.842E-03 1.450E+00 1.016E+03  1.6476 0.99753
  1.700E+03 1.803E+03 1.478E+00 2.447E-03 1.327E-03 1.295E-04 3.904E-03 1.482E+00 1.220E+03  1.8440 0.99829
  2.000E+03 2.103E+03 1.505E+00 3.031E-03 1.831E-03 2.093E-04 5.071E-03 1.510E+00 1.421E+03  2.0176 0.99874
  2.500E+03 2.604E+03 1.541E+00 4.064E-03 2.790E-03 3.619E-04 7.217E-03 1.548E+00 1.748E+03  2.2692 0.99918
  3.000E+03 3.104E+03 1.571E+00 5.161E-03 3.880E-03 5.203E-04 9.561E-03 1.580E+00 2.067E+03  2.4858 0.99942
  3.500E+03 3.604E+03 1.595E+00 6.311E-03 5.081E-03 6.866E-04 1.208E-02 1.607E+00 2.381E+03  2.6766 0.99957
  4.000E+03 4.104E+03 1.616E+00 7.507E-03 6.389E-03 8.632E-04 1.476E-02 1.631E+00 2.690E+03  2.8474 0.99967
  4.500E+03 4.604E+03 1.635E+00 8.744E-03 7.790E-03 1.046E-03 1.758E-02 1.652E+00 2.995E+03  3.0022 0.99974
  5.000E+03 5.105E+03 1.651E+00 1.002E-02 9.269E-03 1.221E-03 2.051E-02 1.671E+00 3.296E+03  3.1439 0.99979
  5.500E+03 5.605E+03 1.665E+00 1.132E-02 1.082E-02 1.409E-03 2.355E-02 1.689E+00 3.593E+03  3.2746 0.99982
  6.000E+03 6.105E+03 1.678E+00 1.266E-02 1.243E-02 1.583E-03 2.668E-02 1.705E+00 3.888E+03  3.3961 0.99985
  7.000E+03 7.105E+03 1.701E+00 1.541E-02 1.584E-02 1.951E-03 3.320E-02 1.734E+00 4.469E+03  3.6161 0.99989
  8.000E+03 8.105E+03 1.720E+00 1.826E-02 1.945E-02 2.316E-03 4.003E-02 1.760E+00 5.042E+03  3.8115 0.99992
  9.000E+03 9.105E+03 1.737E+00 2.119E-02 2.324E-02 2.658E-03 4.709E-02 1.784E+00 5.606E+03  3.9875 0.99993
  1.000E+04 1.011E+04 1.752E+00 2.420E-02 2.719E-02 3.009E-03 5.440E-02 1.806E+00 6.163E+03  4.1478 0.99995
  1.200E+04 1.211E+04 1.776E+00 3.040E-02 3.551E-02 3.719E-03 6.963E-02 1.846E+00 7.258E+03  4.4312 0.99996
  1.400E+04 1.411E+04 1.797E+00 3.683E-02 4.429E-02 4.428E-03 8.554E-02 1.882E+00 8.331E+03  4.6768 0.99997
  1.700E+04 1.711E+04 1.822E+00 4.681E-02 5.819E-02 5.475E-03 1.105E-01 1.932E+00 9.905E+03  4.9934 0.99998
  2.000E+04 2.011E+04 1.842E+00 5.713E-02 7.281E-02 6.498E-03 1.364E-01 1.978E+00 1.144E+04  5.2645 0.99999
  2.500E+04 2.511E+04 1.868E+00 7.497E-02 9.844E-02 8.172E-03 1.816E-01 2.050E+00 1.392E+04  5.6452 0.99999
  3.000E+04 3.011E+04 1.889E+00 9.345E-02 1.253E-01 9.809E-03 2.286E-01 2.118E+00 1.632E+04  5.9633 0.99999
  3.500E+04 3.511E+04 1.906E+00 1.124E-01 1.532E-01 1.146E-02 2.771E-01 2.183E+00 1.865E+04  6.2369 1.00000
  4.000E+04 4.011E+04 1.921E+00 1.319E-01 1.820E-01 1.309E-02 3.269E-01 2.248E+00 2.091E+04  6.4771 1.00000
  4.500E+04 4.511E+04 1.933E+00 1.517E-01 2.114E-01 1.469E-02 3.778E-01 2.311E+00 2.310E+04  6.6914 1.00000
  5.000E+04 5.011E+04 1.944E+00 1.718E-01 2.414E-01 1.629E-02 4.295E-01 2.374E+00 2.523E+04  6.8850 1.00000
  5.500E+04 5.511E+04 1.954E+00 1.923E-01 2.720E-01 1.790E-02 4.821E-01 2.436E+00 2.731E+04  7.0615 1.00000
  6.000E+04 6.011E+04 1.963E+00 2.129E-01 3.030E-01 1.950E-02 5.354E-01 2.498E+00 2.934E+04  7.2238 1.00000
  7.000E+04 7.011E+04 1.978E+00 2.550E-01 3.661E-01 2.265E-02 6.438E-01 2.621E+00 3.325E+04  7.5139 1.00000
  8.000E+04 8.011E+04 1.991E+00 2.979E-01 4.306E-01 2.581E-02 7.543E-01 2.745E+00 3.698E+04  7.7677 1.00000
  9.000E+04 9.011E+04 2.002E+00 3.414E-01 4.961E-01 2.897E-02 8.665E-01 2.868E+00 4.054E+04  7.9934 1.00000
  1.000E+05 1.001E+05 2.012E+00 3.855E-01 5.626E-01 3.207E-02 9.802E-01 2.992E+00 4.396E+04  8.1966 1.00000
  1.200E+05 1.201E+05 2.028E+00 4.752E-01 6.977E-01 3.836E-02 1.211E+00 3.240E+00 5.039E+04  8.5510 1.00000
  1.400E+05 1.401E+05 2.042E+00 5.666E-01 8.352E-01 4.465E-02 1.447E+00 3.489E+00 5.634E+04  8.8531 1.00000
  1.700E+05 1.701E+05 2.059E+00 7.061E-01 1.045E+00 5.408E-02 1.805E+00 3.865E+00 6.452E+04  9.2363 1.00000
  2.000E+05 2.001E+05 2.074E+00 8.480E-01 1.258E+00 6.355E-02 2.169E+00 4.243E+00 7.194E+04  9.5591 1.00000
  2.500E+05 2.501E+05 2.093E+00 1.089E+00 1.618E+00 7.936E-02 2.786E+00 4.879E+00 8.295E+04 10.0042 1.00000
  3.000E+05 3.001E+05 2.109E+00 1.333E+00 1.983E+00 9.527E-02 3.412E+00 5.520E+00 9.261E+04 10.3687 1.00000
  3.500E+05 3.501E+05 2.122E+00 1.581E+00 2.351E+00 1.114E-01 4.044E+00 6.166E+00 1.012E+05 10.6769 1.00000
  4.000E+05 4.001E+05 2.134E+00 1.832E+00 2.723E+00 1.275E-01 4.682E+00 6.815E+00 1.089E+05 10.9438 1.00000
  4.500E+05 4.501E+05 2.144E+00 2.084E+00 3.096E+00 1.438E-01 5.324E+00 7.468E+00 1.159E+05 11.1794 1.00000
  5.000E+05 5.001E+05 2.153E+00 2.338E+00 3.471E+00 1.602E-01 5.970E+00 8.123E+00 1.224E+05 11.3900 1.00000
  5.500E+05 5.501E+05 2.161E+00 2.594E+00 3.848E+00 1.764E-01 6.619E+00 8.780E+00 1.283E+05 11.5806 1.00000
  6.000E+05 6.001E+05 2.169E+00 2.851E+00 4.226E+00 1.927E-01 7.270E+00 9.439E+00 1.338E+05 11.7546 1.00000
  7.000E+05 7.001E+05 2.182E+00 3.369E+00 4.986E+00 2.257E-01 8.580E+00 1.076E+01 1.437E+05 12.0629 1.00000
  8.000E+05 8.001E+05 2.194E+00 3.890E+00 5.749E+00 2.590E-01 9.898E+00 1.209E+01 1.525E+05 12.3299 1.00000
  9.000E+05 9.001E+05 2.204E+00 4.415E+00 6.514E+00 2.925E-01 1.122E+01 1.343E+01 1.604E+05 12.5654 1.00000
  1.000E+06 1.000E+06 2.214E+00 4.942E+00 7.282E+00 3.264E-01 1.255E+01 1.477E+01 1.675E+05 12.7761 1.00000
  1.200E+06 1.200E+06 2.230E+00 6.003E+00 8.824E+00 3.950E-01 1.522E+01 1.745E+01 1.800E+05 13.1407 1.00000
  1.400E+06 1.400E+06 2.244E+00 7.071E+00 1.037E+01 4.646E-01 1.791E+01 2.015E+01 1.907E+05 13.4490 1.00000
  1.700E+06 1.700E+06 2.261E+00 8.682E+00 1.270E+01 5.705E-01 2.195E+01 2.421E+01 2.043E+05 13.8373 1.00000
  2.000E+06 2.000E+06 2.276E+00 1.030E+01 1.503E+01 6.782E-01 2.601E+01 2.829E+01 2.158E+05 14.1623 1.00000
  2.500E+06 2.500E+06 2.296E+00 1.302E+01 1.894E+01 8.608E-01 3.281E+01 3.511E+01 2.318E+05 14.6086 1.00000
  3.000E+06 3.000E+06 2.313E+00 1.574E+01 2.285E+01 1.047E+00 3.964E+01 4.195E+01 2.448E+05 14.9732 1.00000
  3.500E+06 3.500E+06 2.327E+00 1.848E+01 2.676E+01 1.236E+00 4.648E+01 4.881E+01 2.559E+05 15.2815 1.00000
  4.000E+06 4.000E+06 2.340E+00 2.123E+01 3.069E+01 1.428E+00 5.334E+01 5.568E+01 2.655E+05 15.5485 1.00000
  4.500E+06 4.500E+06 2.351E+00 2.398E+01 3.462E+01 1.622E+00 6.021E+01 6.256E+01 2.740E+05 15.7841 1.00000
  5.000E+06 5.000E+06 2.360E+00 2.673E+01 3.855E+01 1.818E+00 6.710E+01 6.946E+01 2.816E+05 15.9948 1.00000
  5.500E+06 5.500E+06 2.369E+00 2.949E+01 4.248E+01 2.017E+00 7.399E+01 7.636E+01 2.885E+05 16.1854 1.00000
  6.000E+06 6.000E+06 2.378E+00 3.226E+01 4.641E+01 2.217E+00 8.089E+01 8.326E+01 2.948E+05 16.3595 1.00000
  7.000E+06 7.000E+06 2.392E+00 3.779E+01 5.429E+01 2.622E+00 9.470E+01 9.709E+01 3.059E+05 16.6677 1.00000
  8.000E+06 8.000E+06 2.405E+00 4.333E+01 6.217E+01 3.034E+00 1.085E+02 1.109E+02 3.156E+05 16.9348 1.00000
  9.000E+06 9.000E+06 2.416E+00 4.889E+01 7.006E+01 3.450E+00 1.224E+02 1.248E+02 3.241E+05 17.1704 1.00000
  1.000E+07 1.000E+07 2.427E+00 5.444E+01 7.795E+01 3.872E+00 1.363E+02 1.387E+02 3.317E+05 17.3811 1.00000
  1.200E+07 1.200E+07 2.444E+00 6.557E+01 9.373E+01 4.728E+00 1.640E+02 1.665E+02 3.449E+05 17.7457 1.00000
  1.400E+07 1.400E+07 2.460E+00 7.671E+01 1.095E+02 5.600E+00 1.918E+02 1.943E+02 3.561E+05 18.0540 1.00000
  1.700E+07 1.700E+07 2.479E+00 9.345E+01 1.332E+02 6.932E+00 2.336E+02 2.361E+02 3.701E+05 18.4423 1.00000
  2.000E+07 2.000E+07 2.495E+00 1.102E+02 1.569E+02 8.289E+00 2.754E+02 2.779E+02 3.819E+05 18.7674 1.00000
  2.500E+07 2.500E+07 2.517E+00 1.381E+02 1.965E+02 1.060E+01 3.452E+02 3.477E+02 3.981E+05 19.2137 1.00000
  3.000E+07 3.000E+07 2.536E+00 1.661E+02 2.360E+02 1.296E+01 4.151E+02 4.176E+02 4.113E+05 19.5783 1.00000
  3.500E+07 3.500E+07 2.552E+00 1.941E+02 2.756E+02 1.537E+01 4.850E+02 4.876E+02 4.224E+05 19.8866 1.00000
  4.000E+07 4.000E+07 2.566E+00 2.221E+02 3.152E+02 1.781E+01 5.550E+02 5.576E+02 4.320E+05 20.1537 1.00000
  4.500E+07 4.500E+07 2.578E+00 2.501E+02 3.547E+02 2.029E+01 6.251E+02 6.277E+02 4.404E+05 20.3892 1.00000
  5.000E+07 5.000E+07 2.589E+00 2.781E+02 3.943E+02 2.280E+01 6.952E+02 6.978E+02 4.480E+05 20.5999 1.00000
  5.500E+07 5.500E+07 2.599E+00 3.061E+02 4.339E+02 2.533E+01 7.653E+02 7.679E+02 4.548E+05 20.7906 1.00000
  6.000E+07 6.000E+07 2.608E+00 3.341E+02 4.735E+02 2.790E+01 8.355E+02 8.381E+02 4.611E+05 20.9646 1.00000
  7.000E+07 7.000E+07 2.624E+00 3.902E+02 5.526E+02 3.309E+01 9.759E+02 9.785E+02 4.722E+05 21.2729 1.00000
  8.000E+07 8.000E+07 2.638E+00 4.462E+02 6.318E+02 3.837E+01 1.116E+03 1.119E+03 4.817E+05 21.5400 1.00000
  9.000E+07 9.000E+07 2.651E+00 5.023E+02 7.110E+02 4.372E+01 1.257E+03 1.260E+03 4.902E+05 21.7755 1.00000
  1.000E+08 1.000E+08 2.662E+00 5.584E+02 7.901E+02 4.914E+01 1.398E+03 1.400E+03 4.977E+05 21.9862 1.00000
  1.200E+08 1.200E+08 2.682E+00 6.705E+02 9.485E+02 6.017E+01 1.679E+03 1.682E+03 5.108E+05 22.3509 1.00000
  1.400E+08 1.400E+08 2.699E+00 7.827E+02 1.107E+03 7.140E+01 1.961E+03 1.964E+03 5.218E+05 22.6592 1.00000
  1.700E+08 1.700E+08 2.720E+00 9.510E+02 1.344E+03 8.859E+01 2.384E+03 2.387E+03 5.358E+05 23.0475 1.00000
  2.000E+08 2.000E+08 2.739E+00 1.119E+03 1.582E+03 1.061E+02 2.807E+03 2.810E+03 5.474E+05 23.3725 1.00000
  2.500E+08 2.500E+08 2.764E+00 1.400E+03 1.978E+03 1.360E+02 3.514E+03 3.517E+03 5.634E+05 23.8188 1.00000
  3.000E+08 3.000E+08 2.784E+00 1.681E+03 2.374E+03 1.666E+02 4.221E+03 4.224E+03 5.764E+05 24.1835 1.00000
  3.500E+08 3.500E+08 2.802E+00 1.961E+03 2.770E+03 1.978E+02 4.929E+03 4.932E+03 5.874E+05 24.4918 1.00000
  4.000E+08 4.000E+08 2.817E+00 2.242E+03 3.166E+03 2.296E+02 5.637E+03 5.640E+03 5.969E+05 24.7588 1.00000
  4.500E+08 4.500E+08 2.831E+00 2.522E+03 3.562E+03 2.618E+02 6.346E+03 6.349E+03 6.053E+05 24.9944 1.00000
  5.000E+08 5.000E+08 2.843E+00 2.803E+03 3.958E+03 2.944E+02 7.055E+03 7.058E+03 6.128E+05 25.2051 1.00000
  5.500E+08 5.500E+08 2.854E+00 3.084E+03 4.354E+03 3.274E+02 7.765E+03 7.767E+03 6.195E+05 25.3957 1.00000
  6.000E+08 6.000E+08 2.864E+00 3.364E+03 4.749E+03 3.607E+02 8.475E+03 8.477E+03 6.257E+05 25.5698 1.00000
  7.000E+08 7.000E+08 2.883E+00 3.926E+03 5.541E+03 4.284E+02 9.895E+03 9.898E+03 6.366E+05 25.8781 1.00000
  8.000E+08 8.000E+08 2.899E+00 4.487E+03 6.333E+03 4.972E+02 1.132E+04 1.132E+04 6.461E+05 26.1451 1.00000
  9.000E+08 9.000E+08 2.913E+00 5.048E+03 7.125E+03 5.671E+02 1.274E+04 1.274E+04 6.544E+05 26.3807 1.00000
  1.000E+09 1.000E+09 2.925E+00 5.609E+03 7.917E+03 6.378E+02 1.416E+04 1.417E+04 6.619E+05 26.5914 1.00000
