 Incident particle is a Muon with M = 105.65839 MeV
 Index = 0: GelInPhotographicEmulsion
      Absorber with <Z/A> = 0.53967
 Sternheimer coef:  a     k=m_s   x_0    x_1    I[eV]   Cbar  delta0
                 0.1010  3.4418  0.1709  2.7058   74.8  3.2687 0.00

 *** Table generated with PUMAS v1.00 ***

      T         p     Ionization  brems     pair     photonuc  Radloss    dE/dx   CSDA Range  delta   beta
    [MeV]    [MeV/c]  -----------------------[MeV cm^2/g]------------------------  [g/cm^2]
  1.000E+00 1.457E+01 4.916E+01 7.235E-07 0.000E+00 0.000E+00 7.235E-07 4.916E+01 1.017E-02  0.0000 0.13661
  1.200E+00 1.597E+01 4.242E+01 8.287E-07 0.000E+00 0.000E+00 8.287E-07 4.242E+01 1.456E-02  0.0000 0.14944
  1.400E+00 1.726E+01 3.742E+01 9.293E-07 0.000E+00 0.000E+00 9.293E-07 3.742E+01 1.959E-02  0.0000 0.16119
  1.700E+00 1.903E+01 3.195E+01 1.073E-06 0.000E+00 0.000E+00 1.073E-06 3.195E+01 2.829E-02  0.0000 0.17725
  2.000E+00 2.066E+01 2.799E+01 1.209E-06 0.000E+00 0.000E+00 1.209E-06 2.799E+01 3.835E-02  0.0000 0.19186
  2.500E+00 2.312E+01 2.333E+01 1.422E-06 0.000E+00 0.000E+00 1.422E-06 2.333E+01 5.800E-02  0.0000 0.21376
  3.000E+00 2.536E+01 2.011E+01 1.622E-06 0.000E+00 0.000E+00 1.622E-06 2.011E+01 8.114E-02  0.0000 0.23336
  3.500E+00 2.742E+01 1.775E+01 1.810E-06 0.000E+00 0.000E+00 1.810E-06 1.775E+01 1.077E-01  0.0000 0.25120
  4.000E+00 2.935E+01 1.593E+01 1.990E-06 0.000E+00 0.000E+00 1.990E-06 1.593E+01 1.374E-01  0.0000 0.26763
  4.500E+00 3.116E+01 1.449E+01 2.161E-06 0.000E+00 0.000E+00 2.161E-06 1.449E+01 1.704E-01  0.0000 0.28290
  5.000E+00 3.289E+01 1.331E+01 2.325E-06 0.000E+00 0.000E+00 2.325E-06 1.331E+01 2.064E-01  0.0000 0.29720
  5.500E+00 3.453E+01 1.234E+01 2.482E-06 0.000E+00 0.000E+00 2.482E-06 1.234E+01 2.455E-01  0.0000 0.31066
  6.000E+00 3.611E+01 1.151E+01 2.635E-06 0.000E+00 0.000E+00 2.635E-06 1.151E+01 2.875E-01  0.0000 0.32339
  7.000E+00 3.909E+01 1.020E+01 2.925E-06 0.000E+00 0.000E+00 2.925E-06 1.020E+01 3.799E-01  0.0000 0.34700
  8.000E+00 4.189E+01 9.189E+00 3.198E-06 0.000E+00 0.000E+00 3.198E-06 9.189E+00 4.834E-01  0.0000 0.36854
  9.000E+00 4.453E+01 8.392E+00 3.458E-06 0.000E+00 0.000E+00 3.458E-06 8.392E+00 5.974E-01  0.0000 0.38836
  1.000E+01 4.704E+01 7.746E+00 3.706E-06 0.000E+00 0.000E+00 3.706E-06 7.746E+00 7.215E-01  0.0000 0.40675
  1.200E+01 5.177E+01 6.760E+00 4.172E-06 0.000E+00 0.000E+00 4.172E-06 6.760E+00 9.985E-01  0.0000 0.43998
  1.400E+01 5.616E+01 6.042E+00 4.606E-06 0.000E+00 0.000E+00 4.606E-06 6.042E+00 1.312E+00  0.0000 0.46937
  1.700E+01 6.230E+01 5.269E+00 5.213E-06 0.000E+00 0.000E+00 5.213E-06 5.269E+00 1.845E+00  0.0000 0.50792
  2.000E+01 6.802E+01 4.719E+00 5.778E-06 0.000E+00 0.000E+00 5.778E-06 4.719E+00 2.447E+00  0.0000 0.54129
  2.500E+01 7.686E+01 4.087E+00 6.657E-06 0.000E+00 0.000E+00 6.657E-06 4.087E+00 3.589E+00  0.0000 0.58827
  3.000E+01 8.509E+01 3.661E+00 7.480E-06 0.000E+00 0.000E+00 7.480E-06 3.661E+00 4.884E+00  0.0000 0.62720
  3.500E+01 9.285E+01 3.355E+00 8.267E-06 0.000E+00 0.000E+00 8.267E-06 3.355E+00 6.312E+00  0.0000 0.66011
  4.000E+01 1.003E+02 3.126E+00 9.029E-06 0.000E+00 0.000E+00 9.029E-06 3.126E+00 7.857E+00  0.0000 0.68834
  4.500E+01 1.074E+02 2.948E+00 9.776E-06 0.000E+00 0.000E+00 9.776E-06 2.948E+00 9.504E+00  0.0000 0.71286
  5.000E+01 1.143E+02 2.807E+00 1.051E-05 0.000E+00 0.000E+00 1.051E-05 2.807E+00 1.124E+01  0.0000 0.73434
  5.500E+01 1.210E+02 2.692E+00 1.124E-05 0.000E+00 0.000E+00 1.124E-05 2.692E+00 1.306E+01  0.0000 0.75332
  6.000E+01 1.276E+02 2.598E+00 1.197E-05 0.000E+00 0.000E+00 1.197E-05 2.598E+00 1.495E+01  0.0000 0.77019
  7.000E+01 1.403E+02 2.452E+00 1.343E-05 0.000E+00 0.000E+00 1.343E-05 2.452E+00 1.892E+01  0.0000 0.79887
  8.000E+01 1.527E+02 2.347E+00 1.490E-05 0.000E+00 0.000E+00 1.490E-05 2.347E+00 2.309E+01  0.0000 0.82227
  9.000E+01 1.647E+02 2.265E+00 1.638E-05 0.000E+00 0.000E+00 1.638E-05 2.265E+00 2.742E+01  0.0273 0.84166
  1.000E+02 1.764E+02 2.200E+00 1.788E-05 0.000E+00 0.000E+00 1.788E-05 2.200E+00 3.190E+01  0.0679 0.85794
  1.200E+02 1.994E+02 2.108E+00 2.097E-05 0.000E+00 0.000E+00 2.097E-05 2.108E+00 4.120E+01  0.1468 0.88361
  1.400E+02 2.218E+02 2.048E+00 2.416E-05 0.000E+00 0.000E+00 2.416E-05 2.048E+00 5.082E+01  0.2224 0.90278
  1.700E+02 2.546E+02 1.992E+00 2.916E-05 4.172E-14 0.000E+00 2.916E-05 1.992E+00 6.568E+01  0.3299 0.92363
  2.000E+02 2.868E+02 1.960E+00 3.440E-05 9.323E-12 0.000E+00 3.440E-05 1.960E+00 8.086E+01  0.4310 0.93835
  2.500E+02 3.396E+02 1.934E+00 4.364E-05 7.835E-08 0.000E+00 4.372E-05 1.934E+00 1.065E+02  0.5870 0.95485
  3.000E+02 3.917E+02 1.926E+00 5.347E-05 6.958E-07 0.000E+00 5.417E-05 1.926E+00 1.324E+02  0.7298 0.96548
  3.500E+02 4.432E+02 1.927E+00 6.384E-05 1.914E-06 0.000E+00 6.576E-05 1.927E+00 1.584E+02  0.8616 0.97274
  4.000E+02 4.945E+02 1.932E+00 7.471E-05 3.705E-06 0.000E+00 7.841E-05 1.932E+00 1.843E+02  0.9841 0.97793
  4.500E+02 5.455E+02 1.939E+00 8.603E-05 6.048E-06 0.000E+00 9.208E-05 1.939E+00 2.102E+02  1.0985 0.98176
  5.000E+02 5.964E+02 1.948E+00 9.777E-05 8.923E-06 0.000E+00 1.067E-04 1.948E+00 2.359E+02  1.2060 0.98467
  5.500E+02 6.471E+02 1.957E+00 1.099E-04 1.231E-05 0.000E+00 1.222E-04 1.957E+00 2.615E+02  1.3073 0.98693
  6.000E+02 6.977E+02 1.967E+00 1.224E-04 1.620E-05 0.000E+00 1.386E-04 1.967E+00 2.870E+02  1.4033 0.98873
  7.000E+02 7.987E+02 1.985E+00 1.485E-04 2.539E-05 0.000E+00 1.738E-04 1.986E+00 3.376E+02  1.5812 0.99136
  8.000E+02 8.995E+02 2.004E+00 1.757E-04 3.638E-05 0.000E+00 2.121E-04 2.004E+00 3.877E+02  1.7433 0.99317
  9.000E+02 1.000E+03 2.021E+00 2.041E-04 4.904E-05 0.000E+00 2.532E-04 2.021E+00 4.374E+02  1.8924 0.99447
  1.000E+03 1.101E+03 2.037E+00 2.336E-04 6.328E-05 0.000E+00 2.968E-04 2.037E+00 4.867E+02  2.0304 0.99542
  1.200E+03 1.301E+03 2.065E+00 2.952E-04 9.614E-05 2.256E-05 4.139E-04 2.066E+00 5.842E+02  2.2794 0.99672
  1.400E+03 1.502E+03 2.090E+00 3.601E-04 1.343E-04 6.182E-05 5.562E-04 2.091E+00 6.804E+02  2.4995 0.99753
  1.700E+03 1.803E+03 2.123E+00 4.627E-04 2.005E-04 1.327E-04 7.959E-04 2.123E+00 8.228E+02  2.7886 0.99829
  2.000E+03 2.103E+03 2.150E+00 5.709E-04 2.761E-04 2.165E-04 1.064E-03 2.151E+00 9.632E+02  3.0401 0.99874
  2.500E+03 2.604E+03 2.187E+00 7.617E-04 4.203E-04 3.791E-04 1.561E-03 2.189E+00 1.194E+03  3.3987 0.99918
  3.000E+03 3.104E+03 2.218E+00 9.636E-04 5.840E-04 5.505E-04 2.098E-03 2.220E+00 1.420E+03  3.7022 0.99942
  3.500E+03 3.604E+03 2.243E+00 1.175E-03 7.646E-04 7.327E-04 2.672E-03 2.246E+00 1.644E+03  3.9654 0.99957
  4.000E+03 4.104E+03 2.265E+00 1.395E-03 9.750E-04 9.277E-04 3.297E-03 2.268E+00 1.866E+03  4.1980 0.99967
  4.500E+03 4.604E+03 2.284E+00 1.621E-03 1.205E-03 1.131E-03 3.958E-03 2.288E+00 2.085E+03  4.4065 0.99974
  5.000E+03 5.105E+03 2.300E+00 1.855E-03 1.449E-03 1.327E-03 4.631E-03 2.305E+00 2.303E+03  4.5954 0.99979
  5.500E+03 5.605E+03 2.315E+00 2.094E-03 1.706E-03 1.538E-03 5.339E-03 2.321E+00 2.519E+03  4.7682 0.99982
  6.000E+03 6.105E+03 2.329E+00 2.339E-03 1.974E-03 1.735E-03 6.049E-03 2.335E+00 2.734E+03  4.9274 0.99985
  7.000E+03 7.105E+03 2.352E+00 2.844E-03 2.542E-03 2.154E-03 7.540E-03 2.360E+00 3.160E+03  5.2125 0.99989
  8.000E+03 8.105E+03 2.373E+00 3.366E-03 3.147E-03 2.570E-03 9.084E-03 2.382E+00 3.582E+03  5.4626 0.99992
  9.000E+03 9.105E+03 2.390E+00 3.904E-03 3.785E-03 2.962E-03 1.065E-02 2.401E+00 4.000E+03  5.6852 0.99993
  1.000E+04 1.011E+04 2.405E+00 4.456E-03 4.452E-03 3.368E-03 1.228E-02 2.418E+00 4.415E+03  5.8859 0.99995
  1.200E+04 1.211E+04 2.431E+00 5.596E-03 5.863E-03 4.192E-03 1.565E-02 2.447E+00 5.238E+03  6.2362 0.99996
  1.400E+04 1.411E+04 2.453E+00 6.778E-03 7.361E-03 5.019E-03 1.916E-02 2.472E+00 6.051E+03  6.5350 0.99997
  1.700E+04 1.711E+04 2.479E+00 8.617E-03 9.747E-03 6.248E-03 2.461E-02 2.504E+00 7.257E+03  6.9142 0.99998
  2.000E+04 2.011E+04 2.501E+00 1.052E-02 1.227E-02 7.457E-03 3.025E-02 2.531E+00 8.448E+03  7.2337 0.99999
  2.500E+04 2.511E+04 2.530E+00 1.383E-02 1.673E-02 9.447E-03 4.000E-02 2.570E+00 1.041E+04  7.6748 0.99999
  3.000E+04 3.011E+04 2.553E+00 1.725E-02 2.144E-02 1.141E-02 5.010E-02 2.603E+00 1.234E+04  8.0367 0.99999
  3.500E+04 3.511E+04 2.572E+00 2.079E-02 2.636E-02 1.339E-02 6.053E-02 2.633E+00 1.425E+04  8.3434 1.00000
  4.000E+04 4.011E+04 2.589E+00 2.441E-02 3.144E-02 1.535E-02 7.121E-02 2.660E+00 1.614E+04  8.6095 1.00000
  4.500E+04 4.511E+04 2.603E+00 2.811E-02 3.668E-02 1.729E-02 8.208E-02 2.685E+00 1.801E+04  8.8444 1.00000
  5.000E+04 5.011E+04 2.615E+00 3.187E-02 4.205E-02 1.924E-02 9.316E-02 2.708E+00 1.987E+04  9.0547 1.00000
  5.500E+04 5.511E+04 2.627E+00 3.570E-02 4.752E-02 2.120E-02 1.044E-01 2.731E+00 2.170E+04  9.2449 1.00000
  6.000E+04 6.011E+04 2.637E+00 3.958E-02 5.310E-02 2.314E-02 1.158E-01 2.753E+00 2.353E+04  9.4186 1.00000
  7.000E+04 7.011E+04 2.655E+00 4.749E-02 6.452E-02 2.699E-02 1.390E-01 2.794E+00 2.713E+04  9.7264 1.00000
  8.000E+04 8.011E+04 2.670E+00 5.557E-02 7.624E-02 3.086E-02 1.627E-01 2.833E+00 3.069E+04  9.9931 1.00000
  9.000E+04 9.011E+04 2.683E+00 6.379E-02 8.820E-02 3.474E-02 1.867E-01 2.870E+00 3.420E+04 10.2284 1.00000
  1.000E+05 1.001E+05 2.695E+00 7.214E-02 1.004E-01 3.855E-02 2.111E-01 2.906E+00 3.766E+04 10.4388 1.00000
  1.200E+05 1.201E+05 2.716E+00 8.916E-02 1.253E-01 4.630E-02 2.607E-01 2.977E+00 4.446E+04 10.8031 1.00000
  1.400E+05 1.401E+05 2.733E+00 1.065E-01 1.508E-01 5.407E-02 3.114E-01 3.044E+00 5.110E+04 11.1112 1.00000
  1.700E+05 1.701E+05 2.755E+00 1.332E-01 1.899E-01 6.574E-02 3.888E-01 3.143E+00 6.080E+04 11.4992 1.00000
  2.000E+05 2.001E+05 2.773E+00 1.603E-01 2.298E-01 7.749E-02 4.676E-01 3.240E+00 7.020E+04 11.8241 1.00000
  2.500E+05 2.501E+05 2.797E+00 2.066E-01 2.977E-01 9.714E-02 6.015E-01 3.399E+00 8.527E+04 12.2702 1.00000
  3.000E+05 3.001E+05 2.817E+00 2.538E-01 3.669E-01 1.170E-01 7.377E-01 3.555E+00 9.966E+04 12.6347 1.00000
  3.500E+05 3.501E+05 2.835E+00 3.018E-01 4.371E-01 1.370E-01 8.759E-01 3.710E+00 1.134E+05 12.9429 1.00000
  4.000E+05 4.001E+05 2.849E+00 3.504E-01 5.080E-01 1.572E-01 1.016E+00 3.865E+00 1.266E+05 13.2098 1.00000
  4.500E+05 4.501E+05 2.862E+00 3.995E-01 5.796E-01 1.775E-01 1.157E+00 4.019E+00 1.393E+05 13.4454 1.00000
  5.000E+05 5.001E+05 2.874E+00 4.491E-01 6.517E-01 1.980E-01 1.299E+00 4.173E+00 1.515E+05 13.6560 1.00000
  5.500E+05 5.501E+05 2.885E+00 4.990E-01 7.243E-01 2.183E-01 1.442E+00 4.326E+00 1.633E+05 13.8466 1.00000
  6.000E+05 6.001E+05 2.894E+00 5.494E-01 7.972E-01 2.388E-01 1.585E+00 4.480E+00 1.747E+05 14.0206 1.00000
  7.000E+05 7.001E+05 2.912E+00 6.509E-01 9.441E-01 2.801E-01 1.875E+00 4.787E+00 1.963E+05 14.3289 1.00000
  8.000E+05 8.001E+05 2.926E+00 7.534E-01 1.092E+00 3.218E-01 2.167E+00 5.094E+00 2.165E+05 14.5959 1.00000
  9.000E+05 9.001E+05 2.940E+00 8.567E-01 1.241E+00 3.640E-01 2.461E+00 5.401E+00 2.356E+05 14.8314 1.00000
  1.000E+06 1.000E+06 2.952E+00 9.608E-01 1.390E+00 4.065E-01 2.758E+00 5.709E+00 2.536E+05 15.0421 1.00000
  1.200E+06 1.200E+06 2.972E+00 1.171E+00 1.691E+00 4.926E-01 3.354E+00 6.326E+00 2.869E+05 15.4067 1.00000
  1.400E+06 1.400E+06 2.990E+00 1.382E+00 1.993E+00 5.800E-01 3.956E+00 6.945E+00 3.172E+05 15.7150 1.00000
  1.700E+06 1.700E+06 3.012E+00 1.703E+00 2.449E+00 7.131E-01 4.865E+00 7.877E+00 3.578E+05 16.1033 1.00000
  2.000E+06 2.000E+06 3.031E+00 2.026E+00 2.907E+00 8.483E-01 5.782E+00 8.812E+00 3.939E+05 16.4283 1.00000
  2.500E+06 2.500E+06 3.057E+00 2.569E+00 3.674E+00 1.078E+00 7.321E+00 1.038E+01 4.463E+05 16.8746 1.00000
  3.000E+06 3.000E+06 3.078E+00 3.116E+00 4.444E+00 1.312E+00 8.872E+00 1.195E+01 4.913E+05 17.2392 1.00000
  3.500E+06 3.500E+06 3.096E+00 3.666E+00 5.217E+00 1.550E+00 1.043E+01 1.353E+01 5.307E+05 17.5475 1.00000
  4.000E+06 4.000E+06 3.112E+00 4.218E+00 5.991E+00 1.791E+00 1.200E+01 1.511E+01 5.657E+05 17.8145 1.00000
  4.500E+06 4.500E+06 3.126E+00 4.773E+00 6.766E+00 2.036E+00 1.357E+01 1.670E+01 5.973E+05 18.0501 1.00000
  5.000E+06 5.000E+06 3.139E+00 5.329E+00 7.542E+00 2.283E+00 1.515E+01 1.829E+01 6.259E+05 18.2608 1.00000
  5.500E+06 5.500E+06 3.150E+00 5.886E+00 8.319E+00 2.532E+00 1.674E+01 1.989E+01 6.521E+05 18.4514 1.00000
  6.000E+06 6.000E+06 3.161E+00 6.445E+00 9.097E+00 2.784E+00 1.833E+01 2.149E+01 6.763E+05 18.6255 1.00000
  7.000E+06 7.000E+06 3.180E+00 7.566E+00 1.066E+01 3.295E+00 2.152E+01 2.469E+01 7.199E+05 18.9337 1.00000
  8.000E+06 8.000E+06 3.196E+00 8.689E+00 1.221E+01 3.812E+00 2.472E+01 2.791E+01 7.580E+05 19.2008 1.00000
  9.000E+06 9.000E+06 3.210E+00 9.815E+00 1.378E+01 4.337E+00 2.793E+01 3.114E+01 7.920E+05 19.4364 1.00000
  1.000E+07 1.000E+07 3.223E+00 1.094E+01 1.534E+01 4.868E+00 3.115E+01 3.437E+01 8.226E+05 19.6471 1.00000
  1.200E+07 1.200E+07 3.246E+00 1.321E+01 1.847E+01 5.946E+00 3.762E+01 4.086E+01 8.761E+05 20.0117 1.00000
  1.400E+07 1.400E+07 3.265E+00 1.547E+01 2.160E+01 7.044E+00 4.411E+01 4.738E+01 9.217E+05 20.3200 1.00000
  1.700E+07 1.700E+07 3.290E+00 1.888E+01 2.629E+01 8.721E+00 5.390E+01 5.719E+01 9.796E+05 20.7083 1.00000
  2.000E+07 2.000E+07 3.311E+00 2.229E+01 3.100E+01 1.043E+01 6.372E+01 6.703E+01 1.028E+06 21.0334 1.00000
  2.500E+07 2.500E+07 3.339E+00 2.799E+01 3.884E+01 1.334E+01 8.018E+01 8.351E+01 1.095E+06 21.4797 1.00000
  3.000E+07 3.000E+07 3.363E+00 3.370E+01 4.669E+01 1.632E+01 9.671E+01 1.001E+02 1.150E+06 21.8443 1.00000
  3.500E+07 3.500E+07 3.383E+00 3.942E+01 5.453E+01 1.935E+01 1.133E+02 1.167E+02 1.197E+06 22.1526 1.00000
  4.000E+07 4.000E+07 3.401E+00 4.514E+01 6.239E+01 2.242E+01 1.300E+02 1.334E+02 1.237E+06 22.4197 1.00000
  4.500E+07 4.500E+07 3.416E+00 5.087E+01 7.024E+01 2.554E+01 1.467E+02 1.501E+02 1.272E+06 22.6552 1.00000
  5.000E+07 5.000E+07 3.430E+00 5.660E+01 7.809E+01 2.870E+01 1.634E+02 1.668E+02 1.304E+06 22.8659 1.00000
  5.500E+07 5.500E+07 3.443E+00 6.233E+01 8.595E+01 3.190E+01 1.802E+02 1.836E+02 1.333E+06 23.0566 1.00000
  6.000E+07 6.000E+07 3.455E+00 6.806E+01 9.381E+01 3.513E+01 1.970E+02 2.004E+02 1.359E+06 23.2306 1.00000
  7.000E+07 7.000E+07 3.476E+00 7.953E+01 1.095E+02 4.167E+01 2.307E+02 2.342E+02 1.405E+06 23.5389 1.00000
  8.000E+07 8.000E+07 3.494E+00 9.101E+01 1.252E+02 4.832E+01 2.646E+02 2.681E+02 1.445E+06 23.8060 1.00000
  9.000E+07 9.000E+07 3.510E+00 1.025E+02 1.410E+02 5.506E+01 2.985E+02 3.020E+02 1.480E+06 24.0415 1.00000
  1.000E+08 1.000E+08 3.524E+00 1.140E+02 1.567E+02 6.189E+01 3.325E+02 3.361E+02 1.512E+06 24.2522 1.00000
  1.200E+08 1.200E+08 3.550E+00 1.370E+02 1.881E+02 7.578E+01 4.009E+02 4.044E+02 1.566E+06 24.6169 1.00000
  1.400E+08 1.400E+08 3.571E+00 1.599E+02 2.196E+02 8.993E+01 4.694E+02 4.730E+02 1.612E+06 24.9252 1.00000
  1.700E+08 1.700E+08 3.599E+00 1.944E+02 2.667E+02 1.116E+02 5.728E+02 5.764E+02 1.670E+06 25.3135 1.00000
  2.000E+08 2.000E+08 3.622E+00 2.289E+02 3.139E+02 1.337E+02 6.765E+02 6.802E+02 1.718E+06 25.6385 1.00000
  2.500E+08 2.500E+08 3.654E+00 2.865E+02 3.925E+02 1.713E+02 8.503E+02 8.540E+02 1.784E+06 26.0848 1.00000
  3.000E+08 3.000E+08 3.680E+00 3.440E+02 4.712E+02 2.099E+02 1.025E+03 1.029E+03 1.837E+06 26.4495 1.00000
  3.500E+08 3.500E+08 3.703E+00 4.015E+02 5.498E+02 2.492E+02 1.201E+03 1.204E+03 1.882E+06 26.7578 1.00000
  4.000E+08 4.000E+08 3.722E+00 4.591E+02 6.284E+02 2.892E+02 1.377E+03 1.380E+03 1.921E+06 27.0248 1.00000
  4.500E+08 4.500E+08 3.740E+00 5.166E+02 7.071E+02 3.297E+02 1.553E+03 1.557E+03 1.956E+06 27.2604 1.00000
  5.000E+08 5.000E+08 3.755E+00 5.742E+02 7.857E+02 3.708E+02 1.731E+03 1.734E+03 1.986E+06 27.4711 1.00000
  5.500E+08 5.500E+08 3.769E+00 6.317E+02 8.643E+02 4.124E+02 1.908E+03 1.912E+03 2.013E+06 27.6617 1.00000
  6.000E+08 6.000E+08 3.782E+00 6.893E+02 9.430E+02 4.544E+02 2.087E+03 2.090E+03 2.038E+06 27.8358 1.00000
  7.000E+08 7.000E+08 3.806E+00 8.044E+02 1.100E+03 5.396E+02 2.444E+03 2.448E+03 2.083E+06 28.1441 1.00000
  8.000E+08 8.000E+08 3.826E+00 9.195E+02 1.258E+03 6.263E+02 2.803E+03 2.807E+03 2.121E+06 28.4111 1.00000
  9.000E+08 9.000E+08 3.844E+00 1.035E+03 1.415E+03 7.143E+02 3.164E+03 3.168E+03 2.155E+06 28.6467 1.00000
  1.000E+09 1.000E+09 3.860E+00 1.150E+03 1.572E+03 8.034E+02 3.525E+03 3.529E+03 2.185E+06 28.8574 1.00000
