 Incident particle is a Muon with M = 105.65839 MeV
 Index = 0: Germanium
      Absorber with <Z/A> = 0.44059
 Sternheimer coef:  a     k=m_s   x_0    x_1    I[eV]   Cbar  delta0
                 0.0719  3.3306  0.3376  3.6096  350.0  5.1411 0.14

 *** Table generated with PUMAS v1.00 ***

      T         p     Ionization  brems     pair     photonuc  Radloss    dE/dx   CSDA Range  delta   beta
    [MeV]    [MeV/c]  -----------------------[MeV cm^2/g]------------------------  [g/cm^2]
  1.000E+00 1.457E+01 2.895E+01 2.620E-06 0.000E+00 0.000E+00 2.620E-06 2.895E+01 1.727E-02  0.0006 0.13661
  1.200E+00 1.597E+01 2.528E+01 3.011E-06 0.000E+00 0.000E+00 3.011E-06 2.528E+01 2.468E-02  0.0007 0.14944
  1.400E+00 1.726E+01 2.252E+01 3.384E-06 0.000E+00 0.000E+00 3.384E-06 2.252E+01 3.308E-02  0.0008 0.16119
  1.700E+00 1.903E+01 1.944E+01 3.911E-06 0.000E+00 0.000E+00 3.911E-06 1.944E+01 4.746E-02  0.0010 0.17725
  2.000E+00 2.066E+01 1.717E+01 4.408E-06 0.000E+00 0.000E+00 4.408E-06 1.717E+01 6.391E-02  0.0011 0.19186
  2.500E+00 2.312E+01 1.448E+01 5.182E-06 0.000E+00 0.000E+00 5.182E-06 1.448E+01 9.574E-02  0.0014 0.21376
  3.000E+00 2.536E+01 1.258E+01 5.901E-06 0.000E+00 0.000E+00 5.901E-06 1.258E+01 1.329E-01  0.0017 0.23336
  3.500E+00 2.742E+01 1.118E+01 6.574E-06 0.000E+00 0.000E+00 6.574E-06 1.118E+01 1.751E-01  0.0020 0.25120
  4.000E+00 2.935E+01 1.009E+01 7.210E-06 0.000E+00 0.000E+00 7.210E-06 1.009E+01 2.223E-01  0.0023 0.26763
  4.500E+00 3.116E+01 9.215E+00 7.813E-06 0.000E+00 0.000E+00 7.813E-06 9.215E+00 2.742E-01  0.0026 0.28290
  5.000E+00 3.289E+01 8.502E+00 8.389E-06 0.000E+00 0.000E+00 8.389E-06 8.502E+00 3.307E-01  0.0029 0.29720
  5.500E+00 3.453E+01 7.906E+00 8.940E-06 0.000E+00 0.000E+00 8.940E-06 7.906E+00 3.917E-01  0.0032 0.31066
  6.000E+00 3.611E+01 7.401E+00 9.469E-06 0.000E+00 0.000E+00 9.469E-06 7.401E+00 4.571E-01  0.0035 0.32339
  7.000E+00 3.909E+01 6.588E+00 1.047E-05 0.000E+00 0.000E+00 1.047E-05 6.588E+00 6.006E-01  0.0040 0.34700
  8.000E+00 4.189E+01 5.962E+00 1.141E-05 0.000E+00 0.000E+00 1.141E-05 5.962E+00 7.604E-01  0.0046 0.36854
  9.000E+00 4.453E+01 5.465E+00 1.230E-05 0.000E+00 0.000E+00 1.230E-05 5.465E+00 9.357E-01  0.0053 0.38836
  1.000E+01 4.704E+01 5.060E+00 1.314E-05 0.000E+00 0.000E+00 1.314E-05 5.060E+00 1.126E+00  0.0059 0.40675
  1.200E+01 5.177E+01 4.438E+00 1.471E-05 0.000E+00 0.000E+00 1.471E-05 4.438E+00 1.549E+00  0.0071 0.43998
  1.400E+01 5.616E+01 3.983E+00 1.616E-05 0.000E+00 0.000E+00 1.616E-05 3.983E+00 2.025E+00  0.0084 0.46937
  1.700E+01 6.230E+01 3.490E+00 1.819E-05 0.000E+00 0.000E+00 1.819E-05 3.490E+00 2.832E+00  0.0103 0.50792
  2.000E+01 6.802E+01 3.137E+00 2.006E-05 0.000E+00 0.000E+00 2.006E-05 3.137E+00 3.740E+00  0.0123 0.54129
  2.500E+01 7.686E+01 2.730E+00 2.296E-05 0.000E+00 0.000E+00 2.296E-05 2.730E+00 5.452E+00  0.0157 0.58827
  3.000E+01 8.509E+01 2.455E+00 2.568E-05 0.000E+00 0.000E+00 2.568E-05 2.455E+00 7.387E+00  0.0192 0.62720
  3.500E+01 9.285E+01 2.256E+00 2.828E-05 0.000E+00 0.000E+00 2.828E-05 2.257E+00 9.513E+00  0.0228 0.66011
  4.000E+01 1.003E+02 2.108E+00 3.080E-05 0.000E+00 0.000E+00 3.080E-05 2.108E+00 1.181E+01  0.0266 0.68834
  4.500E+01 1.074E+02 1.992E+00 3.328E-05 0.000E+00 0.000E+00 3.328E-05 1.992E+00 1.425E+01  0.0306 0.71286
  5.000E+01 1.143E+02 1.900E+00 3.573E-05 0.000E+00 0.000E+00 3.573E-05 1.900E+00 1.682E+01  0.0346 0.73434
  5.500E+01 1.210E+02 1.826E+00 3.817E-05 0.000E+00 0.000E+00 3.817E-05 1.826E+00 1.950E+01  0.0388 0.75332
  6.000E+01 1.276E+02 1.764E+00 4.060E-05 0.000E+00 0.000E+00 4.060E-05 1.764E+00 2.229E+01  0.0431 0.77019
  7.000E+01 1.403E+02 1.670E+00 4.548E-05 0.000E+00 0.000E+00 4.548E-05 1.670E+00 2.812E+01  0.0522 0.79887
  8.000E+01 1.527E+02 1.601E+00 5.042E-05 0.000E+00 0.000E+00 5.042E-05 1.601E+00 3.424E+01  0.0617 0.82227
  9.000E+01 1.647E+02 1.550E+00 5.543E-05 0.000E+00 0.000E+00 5.543E-05 1.550E+00 4.059E+01  0.0718 0.84166
  1.000E+02 1.764E+02 1.511E+00 6.052E-05 0.000E+00 0.000E+00 6.052E-05 1.511E+00 4.712E+01  0.0825 0.85794
  1.200E+02 1.994E+02 1.457E+00 7.101E-05 0.000E+00 0.000E+00 7.101E-05 1.457E+00 6.060E+01  0.1053 0.88361
  1.400E+02 2.218E+02 1.423E+00 8.190E-05 0.000E+00 0.000E+00 8.190E-05 1.423E+00 7.449E+01  0.1303 0.90278
  1.700E+02 2.546E+02 1.393E+00 9.902E-05 0.000E+00 0.000E+00 9.902E-05 1.394E+00 9.580E+01  0.1793 0.92363
  2.000E+02 2.868E+02 1.378E+00 1.170E-04 0.000E+00 0.000E+00 1.170E-04 1.378E+00 1.174E+02  0.2309 0.93835
  2.500E+02 3.396E+02 1.370E+00 1.490E-04 0.000E+00 0.000E+00 1.490E-04 1.370E+00 1.538E+02  0.3161 0.95485
  3.000E+02 3.917E+02 1.372E+00 1.831E-04 0.000E+00 0.000E+00 1.831E-04 1.373E+00 1.903E+02  0.3985 0.96548
  3.500E+02 4.432E+02 1.380E+00 2.192E-04 7.043E-06 0.000E+00 2.263E-04 1.380E+00 2.266E+02  0.4776 0.97274
  4.000E+02 4.945E+02 1.389E+00 2.572E-04 1.460E-05 0.000E+00 2.718E-04 1.389E+00 2.627E+02  0.5534 0.97793
  4.500E+02 5.455E+02 1.400E+00 2.968E-04 2.421E-05 0.000E+00 3.210E-04 1.400E+00 2.986E+02  0.6259 0.98176
  5.000E+02 5.964E+02 1.410E+00 3.380E-04 3.605E-05 0.000E+00 3.741E-04 1.411E+00 3.342E+02  0.6953 0.98467
  5.500E+02 6.471E+02 1.421E+00 3.807E-04 5.006E-05 0.000E+00 4.307E-04 1.422E+00 3.695E+02  0.7618 0.98693
  6.000E+02 6.977E+02 1.432E+00 4.247E-04 6.614E-05 0.000E+00 4.909E-04 1.432E+00 4.045E+02  0.8257 0.98873
  7.000E+02 7.987E+02 1.452E+00 5.167E-04 1.043E-04 0.000E+00 6.209E-04 1.453E+00 4.738E+02  0.9462 0.99136
  8.000E+02 8.995E+02 1.471E+00 6.132E-04 1.500E-04 0.000E+00 7.632E-04 1.472E+00 5.422E+02  1.0582 0.99317
  9.000E+02 1.000E+03 1.489E+00 7.139E-04 2.027E-04 0.000E+00 9.167E-04 1.489E+00 6.097E+02  1.1628 0.99447
  1.000E+03 1.101E+03 1.505E+00 8.185E-04 2.621E-04 0.000E+00 1.081E-03 1.506E+00 6.765E+02  1.2609 0.99542
  1.200E+03 1.301E+03 1.533E+00 1.038E-03 3.992E-04 2.249E-05 1.460E-03 1.535E+00 8.081E+02  1.4408 0.99672
  1.400E+03 1.502E+03 1.558E+00 1.270E-03 5.586E-04 6.118E-05 1.889E-03 1.560E+00 9.374E+02  1.6027 0.99753
  1.700E+03 1.803E+03 1.589E+00 1.637E-03 8.350E-04 1.301E-04 2.602E-03 1.592E+00 1.128E+03  1.8192 0.99829
  2.000E+03 2.103E+03 1.616E+00 2.025E-03 1.151E-03 2.106E-04 3.386E-03 1.619E+00 1.315E+03  2.0107 0.99874
  2.500E+03 2.604E+03 1.652E+00 2.709E-03 1.753E-03 3.650E-04 4.827E-03 1.657E+00 1.620E+03  2.2885 0.99918
  3.000E+03 3.104E+03 1.681E+00 3.434E-03 2.437E-03 5.256E-04 6.397E-03 1.687E+00 1.919E+03  2.5277 0.99942
  3.500E+03 3.604E+03 1.705E+00 4.194E-03 3.191E-03 6.946E-04 8.080E-03 1.713E+00 2.213E+03  2.7381 0.99957
  4.000E+03 4.104E+03 1.726E+00 4.983E-03 4.018E-03 8.744E-04 9.876E-03 1.736E+00 2.503E+03  2.9261 0.99967
  4.500E+03 4.604E+03 1.744E+00 5.799E-03 4.905E-03 1.061E-03 1.176E-02 1.756E+00 2.789E+03  3.0962 0.99974
  5.000E+03 5.105E+03 1.760E+00 6.638E-03 5.842E-03 1.239E-03 1.372E-02 1.774E+00 3.073E+03  3.2517 0.99979
  5.500E+03 5.605E+03 1.774E+00 7.498E-03 6.825E-03 1.431E-03 1.575E-02 1.790E+00 3.353E+03  3.3950 0.99982
  6.000E+03 6.105E+03 1.787E+00 8.378E-03 7.850E-03 1.609E-03 1.784E-02 1.805E+00 3.632E+03  3.5279 0.99985
  7.000E+03 7.105E+03 1.809E+00 1.019E-02 1.001E-02 1.986E-03 2.219E-02 1.832E+00 4.181E+03  3.7680 0.99989
  8.000E+03 8.105E+03 1.828E+00 1.206E-02 1.231E-02 2.359E-03 2.673E-02 1.855E+00 4.724E+03  3.9807 0.99992
  9.000E+03 9.105E+03 1.845E+00 1.399E-02 1.472E-02 2.709E-03 3.141E-02 1.876E+00 5.260E+03  4.1717 0.99993
  1.000E+04 1.011E+04 1.859E+00 1.596E-02 1.723E-02 3.070E-03 3.626E-02 1.895E+00 5.790E+03  4.3453 0.99995
  1.200E+04 1.211E+04 1.883E+00 2.004E-02 2.252E-02 3.799E-03 4.636E-02 1.930E+00 6.836E+03  4.6511 0.99996
  1.400E+04 1.411E+04 1.903E+00 2.425E-02 2.813E-02 4.528E-03 5.691E-02 1.960E+00 7.864E+03  4.9149 0.99997
  1.700E+04 1.711E+04 1.928E+00 3.080E-02 3.700E-02 5.605E-03 7.341E-02 2.001E+00 9.379E+03  5.2535 0.99998
  2.000E+04 2.011E+04 1.948E+00 3.758E-02 4.635E-02 6.659E-03 9.059E-02 2.038E+00 1.086E+04  5.5419 0.99999
  2.500E+04 2.511E+04 1.974E+00 4.928E-02 6.277E-02 8.386E-03 1.204E-01 2.094E+00 1.328E+04  5.9449 0.99999
  3.000E+04 3.011E+04 1.994E+00 6.139E-02 8.003E-02 1.008E-02 1.515E-01 2.146E+00 1.564E+04  6.2795 0.99999
  3.500E+04 3.511E+04 2.011E+00 7.384E-02 9.796E-02 1.178E-02 1.836E-01 2.195E+00 1.795E+04  6.5660 1.00000
  4.000E+04 4.011E+04 2.026E+00 8.659E-02 1.164E-01 1.347E-02 2.165E-01 2.242E+00 2.020E+04  6.8164 1.00000
  4.500E+04 4.511E+04 2.038E+00 9.958E-02 1.354E-01 1.513E-02 2.501E-01 2.288E+00 2.241E+04  7.0391 1.00000
  5.000E+04 5.011E+04 2.049E+00 1.128E-01 1.548E-01 1.678E-02 2.843E-01 2.333E+00 2.457E+04  7.2394 1.00000
  5.500E+04 5.511E+04 2.059E+00 1.262E-01 1.745E-01 1.845E-02 3.191E-01 2.378E+00 2.670E+04  7.4217 1.00000
  6.000E+04 6.011E+04 2.068E+00 1.398E-01 1.945E-01 2.010E-02 3.544E-01 2.422E+00 2.878E+04  7.5888 1.00000
  7.000E+04 7.011E+04 2.083E+00 1.674E-01 2.354E-01 2.337E-02 4.261E-01 2.509E+00 3.284E+04  7.8865 1.00000
  8.000E+04 8.011E+04 2.096E+00 1.955E-01 2.771E-01 2.665E-02 4.992E-01 2.595E+00 3.676E+04  8.1459 1.00000
  9.000E+04 9.011E+04 2.107E+00 2.240E-01 3.196E-01 2.993E-02 5.736E-01 2.681E+00 4.055E+04  8.3757 1.00000
  1.000E+05 1.001E+05 2.117E+00 2.530E-01 3.627E-01 3.314E-02 6.489E-01 2.766E+00 4.422E+04  8.5821 1.00000
  1.200E+05 1.201E+05 2.134E+00 3.119E-01 4.506E-01 3.968E-02 8.022E-01 2.937E+00 5.124E+04  8.9408 1.00000
  1.400E+05 1.401E+05 2.149E+00 3.720E-01 5.401E-01 4.621E-02 9.582E-01 3.107E+00 5.786E+04  9.2453 1.00000
  1.700E+05 1.701E+05 2.167E+00 4.637E-01 6.767E-01 5.600E-02 1.196E+00 3.363E+00 6.715E+04  9.6303 1.00000
  2.000E+05 2.001E+05 2.181E+00 5.570E-01 8.156E-01 6.585E-02 1.438E+00 3.620E+00 7.576E+04  9.9535 1.00000
  2.500E+05 2.501E+05 2.202E+00 7.153E-01 1.051E+00 8.229E-02 1.848E+00 4.050E+00 8.884E+04 10.3983 1.00000
  3.000E+05 3.001E+05 2.218E+00 8.764E-01 1.290E+00 9.885E-02 2.265E+00 4.483E+00 1.006E+05 10.7624 1.00000
  3.500E+05 3.501E+05 2.232E+00 1.040E+00 1.531E+00 1.156E-01 2.686E+00 4.918E+00 1.112E+05 11.0705 1.00000
  4.000E+05 4.001E+05 2.244E+00 1.205E+00 1.774E+00 1.324E-01 3.111E+00 5.355E+00 1.210E+05 11.3374 1.00000
  4.500E+05 4.501E+05 2.255E+00 1.371E+00 2.019E+00 1.493E-01 3.539E+00 5.794E+00 1.300E+05 11.5730 1.00000
  5.000E+05 5.001E+05 2.264E+00 1.539E+00 2.265E+00 1.664E-01 3.970E+00 6.234E+00 1.383E+05 11.7836 1.00000
  5.500E+05 5.501E+05 2.273E+00 1.708E+00 2.512E+00 1.833E-01 4.403E+00 6.676E+00 1.461E+05 11.9742 1.00000
  6.000E+05 6.001E+05 2.281E+00 1.877E+00 2.760E+00 2.003E-01 4.838E+00 7.119E+00 1.533E+05 12.1482 1.00000
  7.000E+05 7.001E+05 2.295E+00 2.219E+00 3.259E+00 2.346E-01 5.713E+00 8.008E+00 1.666E+05 12.4565 1.00000
  8.000E+05 8.001E+05 2.307E+00 2.564E+00 3.760E+00 2.693E-01 6.593E+00 8.900E+00 1.784E+05 12.7235 1.00000
  9.000E+05 9.001E+05 2.318E+00 2.911E+00 4.263E+00 3.043E-01 7.478E+00 9.796E+00 1.892E+05 12.9590 1.00000
  1.000E+06 1.000E+06 2.328E+00 3.259E+00 4.768E+00 3.396E-01 8.367E+00 1.069E+01 1.989E+05 13.1697 1.00000
  1.200E+06 1.200E+06 2.344E+00 3.961E+00 5.782E+00 4.110E-01 1.015E+01 1.250E+01 2.163E+05 13.5343 1.00000
  1.400E+06 1.400E+06 2.359E+00 4.667E+00 6.800E+00 4.835E-01 1.195E+01 1.431E+01 2.313E+05 13.8426 1.00000
  1.700E+06 1.700E+06 2.377E+00 5.734E+00 8.332E+00 5.939E-01 1.466E+01 1.704E+01 2.506E+05 14.2309 1.00000
  2.000E+06 2.000E+06 2.392E+00 6.807E+00 9.869E+00 7.060E-01 1.738E+01 1.977E+01 2.670E+05 14.5559 1.00000
  2.500E+06 2.500E+06 2.413E+00 8.606E+00 1.244E+01 8.964E-01 2.194E+01 2.435E+01 2.899E+05 15.0022 1.00000
  3.000E+06 3.000E+06 2.431E+00 1.041E+01 1.501E+01 1.090E+00 2.652E+01 2.895E+01 3.088E+05 15.3668 1.00000
  3.500E+06 3.500E+06 2.446E+00 1.223E+01 1.760E+01 1.287E+00 3.111E+01 3.356E+01 3.249E+05 15.6751 1.00000
  4.000E+06 4.000E+06 2.459E+00 1.405E+01 2.018E+01 1.487E+00 3.572E+01 3.818E+01 3.389E+05 15.9421 1.00000
  4.500E+06 4.500E+06 2.470E+00 1.588E+01 2.277E+01 1.690E+00 4.034E+01 4.281E+01 3.512E+05 16.1777 1.00000
  5.000E+06 5.000E+06 2.481E+00 1.771E+01 2.536E+01 1.894E+00 4.496E+01 4.744E+01 3.624E+05 16.3884 1.00000
  5.500E+06 5.500E+06 2.490E+00 1.954E+01 2.795E+01 2.101E+00 4.959E+01 5.208E+01 3.724E+05 16.5790 1.00000
  6.000E+06 6.000E+06 2.498E+00 2.138E+01 3.055E+01 2.310E+00 5.423E+01 5.673E+01 3.816E+05 16.7531 1.00000
  7.000E+06 7.000E+06 2.514E+00 2.505E+01 3.574E+01 2.732E+00 6.352E+01 6.604E+01 3.980E+05 17.0613 1.00000
  8.000E+06 8.000E+06 2.527E+00 2.873E+01 4.094E+01 3.161E+00 7.283E+01 7.536E+01 4.122E+05 17.3284 1.00000
  9.000E+06 9.000E+06 2.539E+00 3.242E+01 4.614E+01 3.595E+00 8.216E+01 8.470E+01 4.248E+05 17.5640 1.00000
  1.000E+07 1.000E+07 2.550E+00 3.612E+01 5.134E+01 4.035E+00 9.149E+01 9.404E+01 4.360E+05 17.7747 1.00000
  1.200E+07 1.200E+07 2.568E+00 4.351E+01 6.175E+01 4.927E+00 1.102E+02 1.128E+02 4.555E+05 18.1393 1.00000
  1.400E+07 1.400E+07 2.584E+00 5.092E+01 7.217E+01 5.836E+00 1.289E+02 1.315E+02 4.720E+05 18.4476 1.00000
  1.700E+07 1.700E+07 2.604E+00 6.205E+01 8.781E+01 7.224E+00 1.571E+02 1.597E+02 4.928E+05 18.8359 1.00000
  2.000E+07 2.000E+07 2.621E+00 7.318E+01 1.035E+02 8.639E+00 1.853E+02 1.879E+02 5.101E+05 19.1610 1.00000
  2.500E+07 2.500E+07 2.644E+00 9.177E+01 1.295E+02 1.105E+01 2.323E+02 2.350E+02 5.341E+05 19.6073 1.00000
  3.000E+07 3.000E+07 2.663E+00 1.104E+02 1.556E+02 1.351E+01 2.795E+02 2.822E+02 5.536E+05 19.9719 1.00000
  3.500E+07 3.500E+07 2.680E+00 1.290E+02 1.817E+02 1.602E+01 3.267E+02 3.294E+02 5.700E+05 20.2802 1.00000
  4.000E+07 4.000E+07 2.694E+00 1.476E+02 2.078E+02 1.857E+01 3.740E+02 3.767E+02 5.842E+05 20.5473 1.00000
  4.500E+07 4.500E+07 2.707E+00 1.662E+02 2.339E+02 2.115E+01 4.213E+02 4.240E+02 5.968E+05 20.7828 1.00000
  5.000E+07 5.000E+07 2.718E+00 1.849E+02 2.600E+02 2.376E+01 4.687E+02 4.714E+02 6.080E+05 20.9935 1.00000
  5.500E+07 5.500E+07 2.729E+00 2.035E+02 2.862E+02 2.641E+01 5.161E+02 5.188E+02 6.181E+05 21.1842 1.00000
  6.000E+07 6.000E+07 2.738E+00 2.221E+02 3.123E+02 2.908E+01 5.635E+02 5.662E+02 6.273E+05 21.3582 1.00000
  7.000E+07 7.000E+07 2.755E+00 2.594E+02 3.645E+02 3.449E+01 6.584E+02 6.612E+02 6.437E+05 21.6665 1.00000
  8.000E+07 8.000E+07 2.770E+00 2.967E+02 4.167E+02 4.000E+01 7.535E+02 7.563E+02 6.579E+05 21.9336 1.00000
  9.000E+07 9.000E+07 2.783E+00 3.341E+02 4.690E+02 4.558E+01 8.486E+02 8.514E+02 6.704E+05 22.1691 1.00000
  1.000E+08 1.000E+08 2.795E+00 3.714E+02 5.212E+02 5.123E+01 9.438E+02 9.466E+02 6.815E+05 22.3798 1.00000
  1.200E+08 1.200E+08 2.816E+00 4.460E+02 6.257E+02 6.272E+01 1.134E+03 1.137E+03 7.009E+05 22.7445 1.00000
  1.400E+08 1.400E+08 2.833E+00 5.207E+02 7.302E+02 7.443E+01 1.325E+03 1.328E+03 7.172E+05 23.0528 1.00000
  1.700E+08 1.700E+08 2.856E+00 6.327E+02 8.870E+02 9.235E+01 1.612E+03 1.615E+03 7.378E+05 23.4411 1.00000
  2.000E+08 2.000E+08 2.875E+00 7.447E+02 1.044E+03 1.106E+02 1.899E+03 1.902E+03 7.550E+05 23.7661 1.00000
  2.500E+08 2.500E+08 2.901E+00 9.315E+02 1.305E+03 1.418E+02 2.378E+03 2.381E+03 7.786E+05 24.2124 1.00000
  3.000E+08 3.000E+08 2.922E+00 1.118E+03 1.566E+03 1.737E+02 2.858E+03 2.861E+03 7.979E+05 24.5771 1.00000
  3.500E+08 3.500E+08 2.941E+00 1.305E+03 1.828E+03 2.062E+02 3.339E+03 3.342E+03 8.141E+05 24.8854 1.00000
  4.000E+08 4.000E+08 2.957E+00 1.492E+03 2.089E+03 2.393E+02 3.820E+03 3.823E+03 8.281E+05 25.1524 1.00000
  4.500E+08 4.500E+08 2.971E+00 1.679E+03 2.350E+03 2.729E+02 4.301E+03 4.304E+03 8.404E+05 25.3880 1.00000
  5.000E+08 5.000E+08 2.984E+00 1.865E+03 2.611E+03 3.069E+02 4.784E+03 4.786E+03 8.515E+05 25.5987 1.00000
  5.500E+08 5.500E+08 2.995E+00 2.052E+03 2.873E+03 3.413E+02 5.266E+03 5.269E+03 8.614E+05 25.7893 1.00000
  6.000E+08 6.000E+08 3.006E+00 2.239E+03 3.134E+03 3.760E+02 5.749E+03 5.752E+03 8.705E+05 25.9634 1.00000
  7.000E+08 7.000E+08 3.025E+00 2.612E+03 3.656E+03 4.466E+02 6.715E+03 6.718E+03 8.867E+05 26.2717 1.00000
  8.000E+08 8.000E+08 3.041E+00 2.986E+03 4.179E+03 5.183E+02 7.683E+03 7.686E+03 9.006E+05 26.5387 1.00000
  9.000E+08 9.000E+08 3.056E+00 3.360E+03 4.701E+03 5.911E+02 8.652E+03 8.655E+03 9.129E+05 26.7743 1.00000
  1.000E+09 1.000E+09 3.069E+00 3.733E+03 5.224E+03 6.649E+02 9.622E+03 9.625E+03 9.239E+05 26.9850 1.00000
