 Incident particle is a Muon with M = 105.65839 MeV
 Index = 0: Glutamine
      Absorber with <Z/A> = 0.53366
 Sternheimer coef:  a     k=m_s   x_0    x_1    I[eV]   Cbar  delta0
                 0.1193  3.3254  0.1347  2.6301   73.3  3.1167 0.00

 *** Table generated with PUMAS v1.00 ***

      T         p     Ionization  brems     pair     photonuc  Radloss    dE/dx   CSDA Range  delta   beta
    [MeV]    [MeV/c]  -----------------------[MeV cm^2/g]------------------------  [g/cm^2]
  1.000E+00 1.457E+01 4.879E+01 7.153E-07 0.000E+00 0.000E+00 7.153E-07 4.879E+01 1.025E-02  0.0000 0.13661
  1.200E+00 1.597E+01 4.209E+01 8.194E-07 0.000E+00 0.000E+00 8.194E-07 4.209E+01 1.467E-02  0.0000 0.14944
  1.400E+00 1.726E+01 3.714E+01 9.188E-07 0.000E+00 0.000E+00 9.188E-07 3.714E+01 1.974E-02  0.0000 0.16119
  1.700E+00 1.903E+01 3.170E+01 1.061E-06 0.000E+00 0.000E+00 1.061E-06 3.170E+01 2.851E-02  0.0000 0.17725
  2.000E+00 2.066E+01 2.776E+01 1.195E-06 0.000E+00 0.000E+00 1.195E-06 2.776E+01 3.865E-02  0.0000 0.19186
  2.500E+00 2.312E+01 2.314E+01 1.406E-06 0.000E+00 0.000E+00 1.406E-06 2.314E+01 5.845E-02  0.0000 0.21376
  3.000E+00 2.536E+01 1.995E+01 1.604E-06 0.000E+00 0.000E+00 1.604E-06 1.995E+01 8.179E-02  0.0000 0.23336
  3.500E+00 2.742E+01 1.760E+01 1.790E-06 0.000E+00 0.000E+00 1.790E-06 1.760E+01 1.085E-01  0.0000 0.25120
  4.000E+00 2.935E+01 1.580E+01 1.968E-06 0.000E+00 0.000E+00 1.968E-06 1.580E+01 1.386E-01  0.0000 0.26763
  4.500E+00 3.116E+01 1.437E+01 2.137E-06 0.000E+00 0.000E+00 2.137E-06 1.437E+01 1.718E-01  0.0000 0.28290
  5.000E+00 3.289E+01 1.320E+01 2.299E-06 0.000E+00 0.000E+00 2.299E-06 1.320E+01 2.081E-01  0.0000 0.29720
  5.500E+00 3.453E+01 1.223E+01 2.455E-06 0.000E+00 0.000E+00 2.455E-06 1.223E+01 2.475E-01  0.0000 0.31066
  6.000E+00 3.611E+01 1.142E+01 2.606E-06 0.000E+00 0.000E+00 2.606E-06 1.142E+01 2.898E-01  0.0000 0.32339
  7.000E+00 3.909E+01 1.011E+01 2.893E-06 0.000E+00 0.000E+00 2.893E-06 1.011E+01 3.831E-01  0.0000 0.34700
  8.000E+00 4.189E+01 9.111E+00 3.164E-06 0.000E+00 0.000E+00 3.164E-06 9.111E+00 4.874E-01  0.0000 0.36854
  9.000E+00 4.453E+01 8.321E+00 3.421E-06 0.000E+00 0.000E+00 3.421E-06 8.321E+00 6.024E-01  0.0000 0.38836
  1.000E+01 4.704E+01 7.680E+00 3.666E-06 0.000E+00 0.000E+00 3.666E-06 7.680E+00 7.276E-01  0.0000 0.40675
  1.200E+01 5.177E+01 6.702E+00 4.127E-06 0.000E+00 0.000E+00 4.127E-06 6.702E+00 1.007E+00  0.0000 0.43998
  1.400E+01 5.616E+01 5.990E+00 4.557E-06 0.000E+00 0.000E+00 4.557E-06 5.990E+00 1.323E+00  0.0000 0.46937
  1.700E+01 6.230E+01 5.223E+00 5.158E-06 0.000E+00 0.000E+00 5.158E-06 5.223E+00 1.861E+00  0.0000 0.50792
  2.000E+01 6.802E+01 4.678E+00 5.718E-06 0.000E+00 0.000E+00 5.718E-06 4.678E+00 2.469E+00  0.0000 0.54129
  2.500E+01 7.686E+01 4.051E+00 6.587E-06 0.000E+00 0.000E+00 6.587E-06 4.051E+00 3.620E+00  0.0000 0.58827
  3.000E+01 8.509E+01 3.628E+00 7.402E-06 0.000E+00 0.000E+00 7.402E-06 3.628E+00 4.926E+00  0.0000 0.62720
  3.500E+01 9.285E+01 3.325E+00 8.181E-06 0.000E+00 0.000E+00 8.181E-06 3.325E+00 6.367E+00  0.0000 0.66011
  4.000E+01 1.003E+02 3.098E+00 8.936E-06 0.000E+00 0.000E+00 8.936E-06 3.098E+00 7.926E+00  0.0000 0.68834
  4.500E+01 1.074E+02 2.922E+00 9.675E-06 0.000E+00 0.000E+00 9.675E-06 2.922E+00 9.588E+00  0.0000 0.71286
  5.000E+01 1.143E+02 2.782E+00 1.040E-05 0.000E+00 0.000E+00 1.040E-05 2.782E+00 1.134E+01  0.0000 0.73434
  5.500E+01 1.210E+02 2.668E+00 1.113E-05 0.000E+00 0.000E+00 1.113E-05 2.668E+00 1.318E+01  0.0000 0.75332
  6.000E+01 1.276E+02 2.575E+00 1.185E-05 0.000E+00 0.000E+00 1.185E-05 2.575E+00 1.509E+01  0.0000 0.77019
  7.000E+01 1.403E+02 2.430E+00 1.329E-05 0.000E+00 0.000E+00 1.329E-05 2.430E+00 1.909E+01  0.0000 0.79887
  8.000E+01 1.527E+02 2.322E+00 1.474E-05 0.000E+00 0.000E+00 1.474E-05 2.322E+00 2.330E+01  0.0330 0.82227
  9.000E+01 1.647E+02 2.238E+00 1.621E-05 0.000E+00 0.000E+00 1.621E-05 2.238E+00 2.768E+01  0.0792 0.84166
  1.000E+02 1.764E+02 2.173E+00 1.770E-05 0.000E+00 0.000E+00 1.770E-05 2.173E+00 3.222E+01  0.1242 0.85794
  1.200E+02 1.994E+02 2.082E+00 2.075E-05 0.000E+00 0.000E+00 2.075E-05 2.082E+00 4.162E+01  0.2104 0.88361
  1.400E+02 2.218E+02 2.022E+00 2.391E-05 0.000E+00 0.000E+00 2.391E-05 2.022E+00 5.137E+01  0.2920 0.90278
  1.700E+02 2.546E+02 1.966E+00 2.886E-05 4.230E-14 0.000E+00 2.886E-05 1.966E+00 6.642E+01  0.4067 0.92363
  2.000E+02 2.868E+02 1.934E+00 3.404E-05 9.452E-12 0.000E+00 3.404E-05 1.934E+00 8.180E+01  0.5135 0.93835
  2.500E+02 3.396E+02 1.908E+00 4.319E-05 7.782E-08 0.000E+00 4.326E-05 1.908E+00 1.078E+02  0.6769 0.95485
  3.000E+02 3.917E+02 1.900E+00 5.292E-05 6.884E-07 0.000E+00 5.360E-05 1.900E+00 1.341E+02  0.8254 0.96548
  3.500E+02 4.432E+02 1.900E+00 6.318E-05 1.892E-06 0.000E+00 6.507E-05 1.900E+00 1.604E+02  0.9617 0.97274
  4.000E+02 4.945E+02 1.905E+00 7.393E-05 3.662E-06 0.000E+00 7.759E-05 1.905E+00 1.867E+02  1.0878 0.97793
  4.500E+02 5.455E+02 1.912E+00 8.513E-05 5.976E-06 0.000E+00 9.110E-05 1.912E+00 2.129E+02  1.2054 0.98176
  5.000E+02 5.964E+02 1.920E+00 9.675E-05 8.816E-06 0.000E+00 1.056E-04 1.920E+00 2.390E+02  1.3155 0.98467
  5.500E+02 6.471E+02 1.929E+00 1.088E-04 1.216E-05 0.000E+00 1.209E-04 1.929E+00 2.650E+02  1.4191 0.98693
  6.000E+02 6.977E+02 1.939E+00 1.211E-04 1.600E-05 0.000E+00 1.371E-04 1.939E+00 2.908E+02  1.5171 0.98873
  7.000E+02 7.987E+02 1.957E+00 1.469E-04 2.508E-05 0.000E+00 1.720E-04 1.957E+00 3.422E+02  1.6983 0.99136
  8.000E+02 8.995E+02 1.975E+00 1.739E-04 3.593E-05 0.000E+00 2.098E-04 1.975E+00 3.930E+02  1.8631 0.99317
  9.000E+02 1.000E+03 1.991E+00 2.020E-04 4.844E-05 0.000E+00 2.504E-04 1.992E+00 4.434E+02  2.0144 0.99447
  1.000E+03 1.101E+03 2.007E+00 2.311E-04 6.251E-05 0.000E+00 2.936E-04 2.007E+00 4.935E+02  2.1543 0.99542
  1.200E+03 1.301E+03 2.035E+00 2.920E-04 9.496E-05 2.256E-05 4.095E-04 2.036E+00 5.924E+02  2.4062 0.99672
  1.400E+03 1.502E+03 2.060E+00 3.562E-04 1.327E-04 6.182E-05 5.507E-04 2.060E+00 6.901E+02  2.6287 0.99753
  1.700E+03 1.803E+03 2.092E+00 4.577E-04 1.980E-04 1.327E-04 7.884E-04 2.092E+00 8.345E+02  2.9204 0.99829
  2.000E+03 2.103E+03 2.118E+00 5.647E-04 2.727E-04 2.165E-04 1.054E-03 2.119E+00 9.770E+02  3.1740 0.99874
  2.500E+03 2.604E+03 2.155E+00 7.534E-04 4.151E-04 3.790E-04 1.547E-03 2.157E+00 1.211E+03  3.5350 0.99918
  3.000E+03 3.104E+03 2.185E+00 9.530E-04 5.768E-04 5.502E-04 2.080E-03 2.187E+00 1.441E+03  3.8403 0.99942
  3.500E+03 3.604E+03 2.210E+00 1.162E-03 7.551E-04 7.322E-04 2.649E-03 2.212E+00 1.668E+03  4.1049 0.99957
  4.000E+03 4.104E+03 2.231E+00 1.379E-03 9.630E-04 9.271E-04 3.269E-03 2.234E+00 1.893E+03  4.3387 0.99967
  4.500E+03 4.604E+03 2.250E+00 1.604E-03 1.190E-03 1.130E-03 3.924E-03 2.254E+00 2.116E+03  4.5481 0.99974
  5.000E+03 5.105E+03 2.266E+00 1.834E-03 1.432E-03 1.326E-03 4.592E-03 2.271E+00 2.337E+03  4.7379 0.99979
  5.500E+03 5.605E+03 2.281E+00 2.071E-03 1.685E-03 1.537E-03 5.293E-03 2.286E+00 2.557E+03  4.9113 0.99982
  6.000E+03 6.105E+03 2.294E+00 2.313E-03 1.950E-03 1.734E-03 5.997E-03 2.300E+00 2.775E+03  5.0711 0.99985
  7.000E+03 7.105E+03 2.318E+00 2.812E-03 2.511E-03 2.152E-03 7.475E-03 2.325E+00 3.207E+03  5.3573 0.99989
  8.000E+03 8.105E+03 2.338E+00 3.329E-03 3.109E-03 2.567E-03 9.005E-03 2.347E+00 3.635E+03  5.6082 0.99992
  9.000E+03 9.105E+03 2.355E+00 3.861E-03 3.739E-03 2.959E-03 1.056E-02 2.365E+00 4.060E+03  5.8316 0.99993
  1.000E+04 1.011E+04 2.370E+00 4.406E-03 4.398E-03 3.364E-03 1.217E-02 2.382E+00 4.481E+03  6.0329 0.99995
  1.200E+04 1.211E+04 2.396E+00 5.533E-03 5.791E-03 4.187E-03 1.551E-02 2.411E+00 5.315E+03  6.3842 0.99996
  1.400E+04 1.411E+04 2.417E+00 6.702E-03 7.272E-03 5.014E-03 1.899E-02 2.436E+00 6.141E+03  6.6838 0.99997
  1.700E+04 1.711E+04 2.443E+00 8.520E-03 9.629E-03 6.241E-03 2.439E-02 2.467E+00 7.364E+03  7.0639 0.99998
  2.000E+04 2.011E+04 2.464E+00 1.041E-02 1.212E-02 7.448E-03 2.998E-02 2.494E+00 8.574E+03  7.3840 0.99999
  2.500E+04 2.511E+04 2.493E+00 1.367E-02 1.653E-02 9.435E-03 3.963E-02 2.532E+00 1.056E+04  7.8258 0.99999
  3.000E+04 3.011E+04 2.516E+00 1.706E-02 2.118E-02 1.139E-02 4.963E-02 2.565E+00 1.253E+04  8.1882 0.99999
  3.500E+04 3.511E+04 2.534E+00 2.055E-02 2.604E-02 1.337E-02 5.996E-02 2.594E+00 1.446E+04  8.4952 1.00000
  4.000E+04 4.011E+04 2.551E+00 2.413E-02 3.107E-02 1.533E-02 7.053E-02 2.621E+00 1.638E+04  8.7614 1.00000
  4.500E+04 4.511E+04 2.565E+00 2.779E-02 3.624E-02 1.727E-02 8.129E-02 2.646E+00 1.828E+04  8.9964 1.00000
  5.000E+04 5.011E+04 2.577E+00 3.151E-02 4.154E-02 1.921E-02 9.226E-02 2.669E+00 2.016E+04  9.2067 1.00000
  5.500E+04 5.511E+04 2.588E+00 3.529E-02 4.695E-02 2.116E-02 1.034E-01 2.692E+00 2.203E+04  9.3969 1.00000
  6.000E+04 6.011E+04 2.598E+00 3.913E-02 5.247E-02 2.310E-02 1.147E-01 2.713E+00 2.388E+04  9.5706 1.00000
  7.000E+04 7.011E+04 2.616E+00 4.695E-02 6.375E-02 2.695E-02 1.376E-01 2.754E+00 2.754E+04  9.8784 1.00000
  8.000E+04 8.011E+04 2.631E+00 5.493E-02 7.533E-02 3.081E-02 1.611E-01 2.792E+00 3.114E+04 10.1451 1.00000
  9.000E+04 9.011E+04 2.644E+00 6.306E-02 8.715E-02 3.468E-02 1.849E-01 2.829E+00 3.470E+04 10.3804 1.00000
  1.000E+05 1.001E+05 2.656E+00 7.132E-02 9.919E-02 3.848E-02 2.090E-01 2.865E+00 3.821E+04 10.5908 1.00000
  1.200E+05 1.201E+05 2.676E+00 8.814E-02 1.238E-01 4.622E-02 2.582E-01 2.935E+00 4.511E+04 10.9551 1.00000
  1.400E+05 1.401E+05 2.694E+00 1.053E-01 1.490E-01 5.397E-02 3.083E-01 3.002E+00 5.185E+04 11.2632 1.00000
  1.700E+05 1.701E+05 2.715E+00 1.317E-01 1.876E-01 6.562E-02 3.849E-01 3.100E+00 6.169E+04 11.6512 1.00000
  2.000E+05 2.001E+05 2.733E+00 1.585E-01 2.271E-01 7.734E-02 4.630E-01 3.196E+00 7.122E+04 11.9761 1.00000
  2.500E+05 2.501E+05 2.757E+00 2.043E-01 2.942E-01 9.696E-02 5.954E-01 3.352E+00 8.650E+04 12.4222 1.00000
  3.000E+05 3.001E+05 2.777E+00 2.510E-01 3.626E-01 1.167E-01 7.303E-01 3.507E+00 1.011E+05 12.7867 1.00000
  3.500E+05 3.501E+05 2.794E+00 2.984E-01 4.320E-01 1.368E-01 8.671E-01 3.661E+00 1.150E+05 13.0949 1.00000
  4.000E+05 4.001E+05 2.808E+00 3.464E-01 5.021E-01 1.569E-01 1.005E+00 3.814E+00 1.284E+05 13.3618 1.00000
  4.500E+05 4.501E+05 2.821E+00 3.949E-01 5.729E-01 1.772E-01 1.145E+00 3.966E+00 1.413E+05 13.5974 1.00000
  5.000E+05 5.001E+05 2.833E+00 4.440E-01 6.442E-01 1.976E-01 1.286E+00 4.119E+00 1.537E+05 13.8080 1.00000
  5.500E+05 5.501E+05 2.843E+00 4.934E-01 7.159E-01 2.179E-01 1.427E+00 4.271E+00 1.656E+05 13.9986 1.00000
  6.000E+05 6.001E+05 2.853E+00 5.431E-01 7.880E-01 2.383E-01 1.569E+00 4.422E+00 1.771E+05 14.1726 1.00000
  7.000E+05 7.001E+05 2.870E+00 6.435E-01 9.332E-01 2.795E-01 1.856E+00 4.726E+00 1.990E+05 14.4809 1.00000
  8.000E+05 8.001E+05 2.885E+00 7.449E-01 1.079E+00 3.212E-01 2.145E+00 5.030E+00 2.195E+05 14.7479 1.00000
  9.000E+05 9.001E+05 2.898E+00 8.470E-01 1.227E+00 3.632E-01 2.437E+00 5.335E+00 2.388E+05 14.9834 1.00000
  1.000E+06 1.000E+06 2.910E+00 9.499E-01 1.374E+00 4.057E-01 2.730E+00 5.639E+00 2.570E+05 15.1941 1.00000
  1.200E+06 1.200E+06 2.930E+00 1.157E+00 1.671E+00 4.916E-01 3.321E+00 6.251E+00 2.908E+05 15.5587 1.00000
  1.400E+06 1.400E+06 2.947E+00 1.367E+00 1.970E+00 5.788E-01 3.916E+00 6.863E+00 3.213E+05 15.8670 1.00000
  1.700E+06 1.700E+06 2.969E+00 1.684E+00 2.421E+00 7.116E-01 4.816E+00 7.786E+00 3.625E+05 16.2553 1.00000
  2.000E+06 2.000E+06 2.988E+00 2.003E+00 2.874E+00 8.466E-01 5.724E+00 8.712E+00 3.989E+05 16.5803 1.00000
  2.500E+06 2.500E+06 3.014E+00 2.540E+00 3.632E+00 1.076E+00 7.248E+00 1.026E+01 4.520E+05 17.0266 1.00000
  3.000E+06 3.000E+06 3.035E+00 3.081E+00 4.394E+00 1.309E+00 8.784E+00 1.182E+01 4.975E+05 17.3912 1.00000
  3.500E+06 3.500E+06 3.053E+00 3.625E+00 5.157E+00 1.547E+00 1.033E+01 1.338E+01 5.374E+05 17.6995 1.00000
  4.000E+06 4.000E+06 3.068E+00 4.171E+00 5.922E+00 1.787E+00 1.188E+01 1.495E+01 5.728E+05 17.9665 1.00000
  4.500E+06 4.500E+06 3.082E+00 4.719E+00 6.689E+00 2.031E+00 1.344E+01 1.652E+01 6.046E+05 18.2021 1.00000
  5.000E+06 5.000E+06 3.095E+00 5.269E+00 7.457E+00 2.278E+00 1.500E+01 1.810E+01 6.336E+05 18.4128 1.00000
  5.500E+06 5.500E+06 3.106E+00 5.821E+00 8.225E+00 2.527E+00 1.657E+01 1.968E+01 6.601E+05 18.6034 1.00000
  6.000E+06 6.000E+06 3.117E+00 6.373E+00 8.994E+00 2.778E+00 1.815E+01 2.126E+01 6.845E+05 18.7775 1.00000
  7.000E+06 7.000E+06 3.135E+00 7.481E+00 1.053E+01 3.288E+00 2.130E+01 2.444E+01 7.285E+05 19.0857 1.00000
  8.000E+06 8.000E+06 3.151E+00 8.592E+00 1.208E+01 3.804E+00 2.447E+01 2.762E+01 7.671E+05 19.3528 1.00000
  9.000E+06 9.000E+06 3.166E+00 9.706E+00 1.362E+01 4.328E+00 2.765E+01 3.082E+01 8.014E+05 19.5884 1.00000
  1.000E+07 1.000E+07 3.178E+00 1.082E+01 1.516E+01 4.858E+00 3.084E+01 3.402E+01 8.323E+05 19.7991 1.00000
  1.200E+07 1.200E+07 3.201E+00 1.306E+01 1.826E+01 5.933E+00 3.725E+01 4.045E+01 8.864E+05 20.1637 1.00000
  1.400E+07 1.400E+07 3.220E+00 1.530E+01 2.135E+01 7.029E+00 4.368E+01 4.690E+01 9.325E+05 20.4720 1.00000
  1.700E+07 1.700E+07 3.244E+00 1.867E+01 2.600E+01 8.702E+00 5.337E+01 5.661E+01 9.910E+05 20.8603 1.00000
  2.000E+07 2.000E+07 3.265E+00 2.205E+01 3.065E+01 1.041E+01 6.310E+01 6.637E+01 1.040E+06 21.1854 1.00000
  2.500E+07 2.500E+07 3.293E+00 2.768E+01 3.840E+01 1.331E+01 7.940E+01 8.269E+01 1.108E+06 21.6317 1.00000
  3.000E+07 3.000E+07 3.316E+00 3.333E+01 4.616E+01 1.628E+01 9.577E+01 9.909E+01 1.163E+06 21.9963 1.00000
  3.500E+07 3.500E+07 3.336E+00 3.898E+01 5.392E+01 1.930E+01 1.122E+02 1.155E+02 1.210E+06 22.3046 1.00000
  4.000E+07 4.000E+07 3.354E+00 4.464E+01 6.168E+01 2.238E+01 1.287E+02 1.321E+02 1.251E+06 22.5717 1.00000
  4.500E+07 4.500E+07 3.369E+00 5.030E+01 6.945E+01 2.549E+01 1.452E+02 1.486E+02 1.287E+06 22.8072 1.00000
  5.000E+07 5.000E+07 3.383E+00 5.597E+01 7.721E+01 2.864E+01 1.618E+02 1.652E+02 1.319E+06 23.0179 1.00000
  5.500E+07 5.500E+07 3.396E+00 6.164E+01 8.498E+01 3.183E+01 1.784E+02 1.818E+02 1.347E+06 23.2086 1.00000
  6.000E+07 6.000E+07 3.407E+00 6.731E+01 9.275E+01 3.505E+01 1.951E+02 1.985E+02 1.374E+06 23.3826 1.00000
  7.000E+07 7.000E+07 3.428E+00 7.865E+01 1.083E+02 4.158E+01 2.285E+02 2.319E+02 1.421E+06 23.6909 1.00000
  8.000E+07 8.000E+07 3.446E+00 9.000E+01 1.238E+02 4.822E+01 2.620E+02 2.655E+02 1.461E+06 23.9580 1.00000
  9.000E+07 9.000E+07 3.462E+00 1.014E+02 1.394E+02 5.495E+01 2.957E+02 2.991E+02 1.496E+06 24.1935 1.00000
  1.000E+08 1.000E+08 3.476E+00 1.127E+02 1.549E+02 6.176E+01 3.294E+02 3.329E+02 1.528E+06 24.4042 1.00000
  1.200E+08 1.200E+08 3.501E+00 1.354E+02 1.860E+02 7.562E+01 3.971E+02 4.006E+02 1.583E+06 24.7689 1.00000
  1.400E+08 1.400E+08 3.522E+00 1.582E+02 2.171E+02 8.974E+01 4.650E+02 4.685E+02 1.630E+06 25.0772 1.00000
  1.700E+08 1.700E+08 3.549E+00 1.923E+02 2.637E+02 1.113E+02 5.674E+02 5.709E+02 1.688E+06 25.4655 1.00000
  2.000E+08 2.000E+08 3.572E+00 2.264E+02 3.104E+02 1.334E+02 6.702E+02 6.738E+02 1.736E+06 25.7905 1.00000
  2.500E+08 2.500E+08 3.604E+00 2.833E+02 3.881E+02 1.710E+02 8.424E+02 8.460E+02 1.803E+06 26.2368 1.00000
  3.000E+08 3.000E+08 3.630E+00 3.402E+02 4.659E+02 2.094E+02 1.015E+03 1.019E+03 1.857E+06 26.6015 1.00000
  3.500E+08 3.500E+08 3.652E+00 3.971E+02 5.436E+02 2.487E+02 1.189E+03 1.193E+03 1.903E+06 26.9098 1.00000
  4.000E+08 4.000E+08 3.672E+00 4.540E+02 6.214E+02 2.885E+02 1.364E+03 1.368E+03 1.942E+06 27.1768 1.00000
  4.500E+08 4.500E+08 3.689E+00 5.109E+02 6.991E+02 3.290E+02 1.539E+03 1.543E+03 1.976E+06 27.4124 1.00000
  5.000E+08 5.000E+08 3.704E+00 5.678E+02 7.769E+02 3.700E+02 1.715E+03 1.718E+03 2.007E+06 27.6231 1.00000
  5.500E+08 5.500E+08 3.718E+00 6.247E+02 8.546E+02 4.115E+02 1.891E+03 1.895E+03 2.035E+06 27.8137 1.00000
  6.000E+08 6.000E+08 3.731E+00 6.817E+02 9.324E+02 4.534E+02 2.067E+03 2.071E+03 2.060E+06 27.9878 1.00000
  7.000E+08 7.000E+08 3.754E+00 7.955E+02 1.088E+03 5.385E+02 2.422E+03 2.426E+03 2.105E+06 28.2961 1.00000
  8.000E+08 8.000E+08 3.774E+00 9.094E+02 1.243E+03 6.250E+02 2.778E+03 2.781E+03 2.143E+06 28.5631 1.00000
  9.000E+08 9.000E+08 3.792E+00 1.023E+03 1.399E+03 7.128E+02 3.135E+03 3.139E+03 2.177E+06 28.7987 1.00000
  1.000E+09 1.000E+09 3.808E+00 1.137E+03 1.554E+03 8.017E+02 3.493E+03 3.497E+03 2.208E+06 29.0094 1.00000
