 Incident particle is a Muon with M = 105.65839 MeV
 Index = 0: Glycerol
      Absorber with <Z/A> = 0.54286
 Sternheimer coef:  a     k=m_s   x_0    x_1    I[eV]   Cbar  delta0
                 0.1017  3.4481  0.1653  2.6862   72.6  3.2267 0.00

 *** Table generated with PUMAS v1.00 ***

      T         p     Ionization  brems     pair     photonuc  Radloss    dE/dx   CSDA Range  delta   beta
    [MeV]    [MeV/c]  -----------------------[MeV cm^2/g]------------------------  [g/cm^2]
  1.000E+00 1.457E+01 4.972E+01 7.275E-07 0.000E+00 0.000E+00 7.275E-07 4.972E+01 1.006E-02  0.0000 0.13661
  1.200E+00 1.597E+01 4.289E+01 8.333E-07 0.000E+00 0.000E+00 8.333E-07 4.289E+01 1.440E-02  0.0000 0.14944
  1.400E+00 1.726E+01 3.784E+01 9.344E-07 0.000E+00 0.000E+00 9.344E-07 3.784E+01 1.937E-02  0.0000 0.16119
  1.700E+00 1.903E+01 3.230E+01 1.079E-06 0.000E+00 0.000E+00 1.079E-06 3.230E+01 2.798E-02  0.0000 0.17725
  2.000E+00 2.066E+01 2.829E+01 1.215E-06 0.000E+00 0.000E+00 1.215E-06 2.829E+01 3.793E-02  0.0000 0.19186
  2.500E+00 2.312E+01 2.358E+01 1.430E-06 0.000E+00 0.000E+00 1.430E-06 2.358E+01 5.737E-02  0.0000 0.21376
  3.000E+00 2.536E+01 2.032E+01 1.631E-06 0.000E+00 0.000E+00 1.631E-06 2.032E+01 8.028E-02  0.0000 0.23336
  3.500E+00 2.742E+01 1.793E+01 1.820E-06 0.000E+00 0.000E+00 1.820E-06 1.793E+01 1.065E-01  0.0000 0.25120
  4.000E+00 2.935E+01 1.609E+01 2.001E-06 0.000E+00 0.000E+00 2.001E-06 1.609E+01 1.360E-01  0.0000 0.26763
  4.500E+00 3.116E+01 1.463E+01 2.173E-06 0.000E+00 0.000E+00 2.173E-06 1.463E+01 1.686E-01  0.0000 0.28290
  5.000E+00 3.289E+01 1.345E+01 2.338E-06 0.000E+00 0.000E+00 2.338E-06 1.345E+01 2.043E-01  0.0000 0.29720
  5.500E+00 3.453E+01 1.246E+01 2.496E-06 0.000E+00 0.000E+00 2.496E-06 1.246E+01 2.430E-01  0.0000 0.31066
  6.000E+00 3.611E+01 1.163E+01 2.649E-06 0.000E+00 0.000E+00 2.649E-06 1.163E+01 2.845E-01  0.0000 0.32339
  7.000E+00 3.909E+01 1.030E+01 2.941E-06 0.000E+00 0.000E+00 2.941E-06 1.030E+01 3.761E-01  0.0000 0.34700
  8.000E+00 4.189E+01 9.280E+00 3.216E-06 0.000E+00 0.000E+00 3.216E-06 9.280E+00 4.785E-01  0.0000 0.36854
  9.000E+00 4.453E+01 8.475E+00 3.477E-06 0.000E+00 0.000E+00 3.477E-06 8.475E+00 5.914E-01  0.0000 0.38836
  1.000E+01 4.704E+01 7.822E+00 3.726E-06 0.000E+00 0.000E+00 3.726E-06 7.822E+00 7.143E-01  0.0000 0.40675
  1.200E+01 5.177E+01 6.826E+00 4.195E-06 0.000E+00 0.000E+00 4.195E-06 6.826E+00 9.886E-01  0.0000 0.43998
  1.400E+01 5.616E+01 6.101E+00 4.632E-06 0.000E+00 0.000E+00 4.632E-06 6.101E+00 1.299E+00  0.0000 0.46937
  1.700E+01 6.230E+01 5.319E+00 5.242E-06 0.000E+00 0.000E+00 5.242E-06 5.319E+00 1.827E+00  0.0000 0.50792
  2.000E+01 6.802E+01 4.764E+00 5.810E-06 0.000E+00 0.000E+00 5.810E-06 4.764E+00 2.424E+00  0.0000 0.54129
  2.500E+01 7.686E+01 4.125E+00 6.693E-06 0.000E+00 0.000E+00 6.693E-06 4.125E+00 3.555E+00  0.0000 0.58827
  3.000E+01 8.509E+01 3.695E+00 7.521E-06 0.000E+00 0.000E+00 7.521E-06 3.695E+00 4.837E+00  0.0000 0.62720
  3.500E+01 9.285E+01 3.386E+00 8.312E-06 0.000E+00 0.000E+00 8.312E-06 3.386E+00 6.252E+00  0.0000 0.66011
  4.000E+01 1.003E+02 3.155E+00 9.079E-06 0.000E+00 0.000E+00 9.079E-06 3.155E+00 7.783E+00  0.0000 0.68834
  4.500E+01 1.074E+02 2.975E+00 9.830E-06 0.000E+00 0.000E+00 9.830E-06 2.975E+00 9.415E+00  0.0000 0.71286
  5.000E+01 1.143E+02 2.833E+00 1.057E-05 0.000E+00 0.000E+00 1.057E-05 2.833E+00 1.114E+01  0.0000 0.73434
  5.500E+01 1.210E+02 2.717E+00 1.131E-05 0.000E+00 0.000E+00 1.131E-05 2.717E+00 1.294E+01  0.0000 0.75332
  6.000E+01 1.276E+02 2.622E+00 1.204E-05 0.000E+00 0.000E+00 1.204E-05 2.622E+00 1.481E+01  0.0000 0.77019
  7.000E+01 1.403E+02 2.475E+00 1.350E-05 0.000E+00 0.000E+00 1.350E-05 2.475E+00 1.874E+01  0.0000 0.79887
  8.000E+01 1.527E+02 2.368E+00 1.498E-05 0.000E+00 0.000E+00 1.498E-05 2.368E+00 2.287E+01  0.0000 0.82227
  9.000E+01 1.647E+02 2.284E+00 1.647E-05 0.000E+00 0.000E+00 1.647E-05 2.284E+00 2.717E+01  0.0352 0.84166
  1.000E+02 1.764E+02 2.218E+00 1.798E-05 0.000E+00 0.000E+00 1.798E-05 2.219E+00 3.162E+01  0.0762 0.85794
  1.200E+02 1.994E+02 2.126E+00 2.109E-05 0.000E+00 0.000E+00 2.109E-05 2.126E+00 4.083E+01  0.1559 0.88361
  1.400E+02 2.218E+02 2.065E+00 2.430E-05 0.000E+00 0.000E+00 2.430E-05 2.065E+00 5.038E+01  0.2323 0.90278
  1.700E+02 2.546E+02 2.008E+00 2.932E-05 4.297E-14 0.000E+00 2.932E-05 2.008E+00 6.511E+01  0.3409 0.92363
  2.000E+02 2.868E+02 1.976E+00 3.459E-05 9.602E-12 0.000E+00 3.459E-05 1.976E+00 8.017E+01  0.4430 0.93835
  2.500E+02 3.396E+02 1.950E+00 4.388E-05 7.897E-08 0.000E+00 4.396E-05 1.950E+00 1.056E+02  0.6004 0.95485
  3.000E+02 3.917E+02 1.941E+00 5.377E-05 6.999E-07 0.000E+00 5.447E-05 1.941E+00 1.313E+02  0.7444 0.96548
  3.500E+02 4.432E+02 1.942E+00 6.420E-05 1.924E-06 0.000E+00 6.612E-05 1.942E+00 1.571E+02  0.8773 0.97274
  4.000E+02 4.945E+02 1.947E+00 7.512E-05 3.725E-06 0.000E+00 7.885E-05 1.947E+00 1.828E+02  1.0007 0.97793
  4.500E+02 5.455E+02 1.954E+00 8.650E-05 6.081E-06 0.000E+00 9.259E-05 1.954E+00 2.084E+02  1.1160 0.98176
  5.000E+02 5.964E+02 1.963E+00 9.831E-05 8.972E-06 0.000E+00 1.073E-04 1.963E+00 2.340E+02  1.2243 0.98467
  5.500E+02 6.471E+02 1.972E+00 1.105E-04 1.238E-05 0.000E+00 1.229E-04 1.972E+00 2.594E+02  1.3264 0.98693
  6.000E+02 6.977E+02 1.982E+00 1.231E-04 1.629E-05 0.000E+00 1.394E-04 1.982E+00 2.847E+02  1.4230 0.98873
  7.000E+02 7.987E+02 2.000E+00 1.493E-04 2.553E-05 0.000E+00 1.748E-04 2.001E+00 3.349E+02  1.6022 0.99136
  8.000E+02 8.995E+02 2.019E+00 1.767E-04 3.658E-05 0.000E+00 2.133E-04 2.019E+00 3.847E+02  1.7654 0.99317
  9.000E+02 1.000E+03 2.036E+00 2.053E-04 4.931E-05 0.000E+00 2.546E-04 2.036E+00 4.340E+02  1.9154 0.99447
  1.000E+03 1.101E+03 2.052E+00 2.348E-04 6.363E-05 0.000E+00 2.985E-04 2.052E+00 4.829E+02  2.0543 0.99542
  1.200E+03 1.301E+03 2.080E+00 2.968E-04 9.667E-05 2.256E-05 4.160E-04 2.081E+00 5.797E+02  2.3047 0.99672
  1.400E+03 1.502E+03 2.106E+00 3.621E-04 1.351E-04 6.182E-05 5.589E-04 2.106E+00 6.752E+02  2.5261 0.99753
  1.700E+03 1.803E+03 2.138E+00 4.653E-04 2.016E-04 1.327E-04 7.996E-04 2.139E+00 8.166E+02  2.8167 0.99829
  2.000E+03 2.103E+03 2.165E+00 5.741E-04 2.776E-04 2.165E-04 1.068E-03 2.166E+00 9.560E+02  3.0695 0.99874
  2.500E+03 2.604E+03 2.203E+00 7.659E-04 4.226E-04 3.792E-04 1.568E-03 2.204E+00 1.185E+03  3.4298 0.99918
  3.000E+03 3.104E+03 2.233E+00 9.689E-04 5.872E-04 5.506E-04 2.107E-03 2.235E+00 1.410E+03  3.7345 0.99942
  3.500E+03 3.604E+03 2.258E+00 1.181E-03 7.688E-04 7.327E-04 2.683E-03 2.261E+00 1.633E+03  3.9988 0.99957
  4.000E+03 4.104E+03 2.280E+00 1.402E-03 9.804E-04 9.279E-04 3.310E-03 2.283E+00 1.853E+03  4.2323 0.99967
  4.500E+03 4.604E+03 2.299E+00 1.630E-03 1.212E-03 1.131E-03 3.974E-03 2.303E+00 2.071E+03  4.4416 0.99974
  5.000E+03 5.105E+03 2.316E+00 1.865E-03 1.457E-03 1.327E-03 4.650E-03 2.321E+00 2.287E+03  4.6311 0.99979
  5.500E+03 5.605E+03 2.331E+00 2.106E-03 1.715E-03 1.538E-03 5.360E-03 2.336E+00 2.502E+03  4.8044 0.99982
  6.000E+03 6.105E+03 2.345E+00 2.352E-03 1.985E-03 1.736E-03 6.073E-03 2.351E+00 2.715E+03  4.9641 0.99985
  7.000E+03 7.105E+03 2.368E+00 2.860E-03 2.556E-03 2.154E-03 7.570E-03 2.376E+00 3.138E+03  5.2501 0.99989
  8.000E+03 8.105E+03 2.388E+00 3.385E-03 3.165E-03 2.571E-03 9.120E-03 2.397E+00 3.557E+03  5.5007 0.99992
  9.000E+03 9.105E+03 2.406E+00 3.926E-03 3.806E-03 2.963E-03 1.069E-02 2.417E+00 3.973E+03  5.7239 0.99993
  1.000E+04 1.011E+04 2.421E+00 4.481E-03 4.477E-03 3.369E-03 1.233E-02 2.434E+00 4.385E+03  5.9250 0.99995
  1.200E+04 1.211E+04 2.447E+00 5.627E-03 5.895E-03 4.193E-03 1.571E-02 2.463E+00 5.202E+03  6.2760 0.99996
  1.400E+04 1.411E+04 2.469E+00 6.815E-03 7.402E-03 5.021E-03 1.924E-02 2.488E+00 6.010E+03  6.5753 0.99997
  1.700E+04 1.711E+04 2.496E+00 8.665E-03 9.801E-03 6.250E-03 2.472E-02 2.520E+00 7.208E+03  6.9551 0.99998
  2.000E+04 2.011E+04 2.517E+00 1.058E-02 1.234E-02 7.459E-03 3.038E-02 2.548E+00 8.392E+03  7.2749 0.99999
  2.500E+04 2.511E+04 2.547E+00 1.390E-02 1.682E-02 9.450E-03 4.017E-02 2.587E+00 1.034E+04  7.7164 0.99999
  3.000E+04 3.011E+04 2.570E+00 1.735E-02 2.156E-02 1.141E-02 5.032E-02 2.620E+00 1.226E+04  8.0785 0.99999
  3.500E+04 3.511E+04 2.589E+00 2.090E-02 2.650E-02 1.339E-02 6.080E-02 2.650E+00 1.416E+04  8.3853 1.00000
  4.000E+04 4.011E+04 2.605E+00 2.454E-02 3.162E-02 1.536E-02 7.152E-02 2.677E+00 1.604E+04  8.6515 1.00000
  4.500E+04 4.511E+04 2.620E+00 2.826E-02 3.688E-02 1.730E-02 8.245E-02 2.702E+00 1.789E+04  8.8864 1.00000
  5.000E+04 5.011E+04 2.632E+00 3.205E-02 4.228E-02 1.925E-02 9.357E-02 2.726E+00 1.974E+04  9.0967 1.00000
  5.500E+04 5.511E+04 2.643E+00 3.590E-02 4.779E-02 2.120E-02 1.049E-01 2.748E+00 2.156E+04  9.2869 1.00000
  6.000E+04 6.011E+04 2.654E+00 3.980E-02 5.340E-02 2.315E-02 1.163E-01 2.770E+00 2.338E+04  9.4606 1.00000
  7.000E+04 7.011E+04 2.672E+00 4.775E-02 6.488E-02 2.700E-02 1.396E-01 2.811E+00 2.696E+04  9.7684 1.00000
  8.000E+04 8.011E+04 2.687E+00 5.588E-02 7.666E-02 3.088E-02 1.634E-01 2.851E+00 3.049E+04 10.0351 1.00000
  9.000E+04 9.011E+04 2.701E+00 6.414E-02 8.869E-02 3.475E-02 1.876E-01 2.888E+00 3.398E+04 10.2704 1.00000
  1.000E+05 1.001E+05 2.713E+00 7.254E-02 1.009E-01 3.856E-02 2.120E-01 2.925E+00 3.742E+04 10.4808 1.00000
  1.200E+05 1.201E+05 2.733E+00 8.965E-02 1.260E-01 4.632E-02 2.620E-01 2.995E+00 4.418E+04 10.8451 1.00000
  1.400E+05 1.401E+05 2.751E+00 1.071E-01 1.516E-01 5.409E-02 3.128E-01 3.064E+00 5.078E+04 11.1532 1.00000
  1.700E+05 1.701E+05 2.772E+00 1.339E-01 1.909E-01 6.577E-02 3.906E-01 3.163E+00 6.042E+04 11.5412 1.00000
  2.000E+05 2.001E+05 2.791E+00 1.612E-01 2.311E-01 7.752E-02 4.698E-01 3.260E+00 6.976E+04 11.8661 1.00000
  2.500E+05 2.501E+05 2.815E+00 2.078E-01 2.993E-01 9.719E-02 6.043E-01 3.420E+00 8.474E+04 12.3122 1.00000
  3.000E+05 3.001E+05 2.836E+00 2.552E-01 3.689E-01 1.170E-01 7.412E-01 3.577E+00 9.904E+04 12.6767 1.00000
  3.500E+05 3.501E+05 2.853E+00 3.035E-01 4.395E-01 1.371E-01 8.801E-01 3.733E+00 1.127E+05 12.9849 1.00000
  4.000E+05 4.001E+05 2.868E+00 3.523E-01 5.108E-01 1.573E-01 1.020E+00 3.888E+00 1.259E+05 13.2518 1.00000
  4.500E+05 4.501E+05 2.881E+00 4.017E-01 5.828E-01 1.776E-01 1.162E+00 4.043E+00 1.385E+05 13.4874 1.00000
  5.000E+05 5.001E+05 2.892E+00 4.515E-01 6.553E-01 1.981E-01 1.305E+00 4.197E+00 1.506E+05 13.6980 1.00000
  5.500E+05 5.501E+05 2.903E+00 5.018E-01 7.283E-01 2.184E-01 1.449E+00 4.352E+00 1.623E+05 13.8886 1.00000
  6.000E+05 6.001E+05 2.913E+00 5.524E-01 8.017E-01 2.389E-01 1.593E+00 4.506E+00 1.736E+05 14.0626 1.00000
  7.000E+05 7.001E+05 2.930E+00 6.545E-01 9.493E-01 2.802E-01 1.884E+00 4.814E+00 1.951E+05 14.3709 1.00000
  8.000E+05 8.001E+05 2.945E+00 7.576E-01 1.098E+00 3.220E-01 2.178E+00 5.123E+00 2.152E+05 14.6379 1.00000
  9.000E+05 9.001E+05 2.959E+00 8.615E-01 1.248E+00 3.641E-01 2.473E+00 5.432E+00 2.342E+05 14.8734 1.00000
  1.000E+06 1.000E+06 2.971E+00 9.661E-01 1.398E+00 4.067E-01 2.771E+00 5.741E+00 2.521E+05 15.0841 1.00000
  1.200E+06 1.200E+06 2.991E+00 1.177E+00 1.700E+00 4.929E-01 3.370E+00 6.362E+00 2.852E+05 15.4487 1.00000
  1.400E+06 1.400E+06 3.009E+00 1.390E+00 2.004E+00 5.803E-01 3.975E+00 6.984E+00 3.153E+05 15.7570 1.00000
  1.700E+06 1.700E+06 3.031E+00 1.712E+00 2.463E+00 7.134E-01 4.888E+00 7.920E+00 3.557E+05 16.1453 1.00000
  2.000E+06 2.000E+06 3.050E+00 2.037E+00 2.923E+00 8.488E-01 5.809E+00 8.859E+00 3.916E+05 16.4703 1.00000
  2.500E+06 2.500E+06 3.076E+00 2.583E+00 3.694E+00 1.079E+00 7.356E+00 1.043E+01 4.438E+05 16.9166 1.00000
  3.000E+06 3.000E+06 3.098E+00 3.133E+00 4.469E+00 1.313E+00 8.914E+00 1.201E+01 4.885E+05 17.2812 1.00000
  3.500E+06 3.500E+06 3.116E+00 3.686E+00 5.245E+00 1.551E+00 1.048E+01 1.360E+01 5.277E+05 17.5895 1.00000
  4.000E+06 4.000E+06 3.132E+00 4.242E+00 6.023E+00 1.792E+00 1.206E+01 1.519E+01 5.626E+05 17.8565 1.00000
  4.500E+06 4.500E+06 3.146E+00 4.799E+00 6.803E+00 2.037E+00 1.364E+01 1.678E+01 5.939E+05 18.0921 1.00000
  5.000E+06 5.000E+06 3.159E+00 5.358E+00 7.584E+00 2.284E+00 1.523E+01 1.838E+01 6.224E+05 18.3028 1.00000
  5.500E+06 5.500E+06 3.170E+00 5.919E+00 8.365E+00 2.534E+00 1.682E+01 1.999E+01 6.485E+05 18.4934 1.00000
  6.000E+06 6.000E+06 3.181E+00 6.481E+00 9.147E+00 2.786E+00 1.841E+01 2.159E+01 6.726E+05 18.6675 1.00000
  7.000E+06 7.000E+06 3.200E+00 7.607E+00 1.071E+01 3.296E+00 2.162E+01 2.482E+01 7.159E+05 18.9757 1.00000
  8.000E+06 8.000E+06 3.216E+00 8.737E+00 1.228E+01 3.814E+00 2.483E+01 2.805E+01 7.539E+05 19.2428 1.00000
  9.000E+06 9.000E+06 3.231E+00 9.869E+00 1.385E+01 4.339E+00 2.806E+01 3.129E+01 7.877E+05 19.4784 1.00000
  1.000E+07 1.000E+07 3.244E+00 1.100E+01 1.542E+01 4.871E+00 3.130E+01 3.454E+01 8.181E+05 19.6891 1.00000
  1.200E+07 1.200E+07 3.267E+00 1.328E+01 1.857E+01 5.949E+00 3.779E+01 4.106E+01 8.715E+05 20.0537 1.00000
  1.400E+07 1.400E+07 3.286E+00 1.556E+01 2.171E+01 7.047E+00 4.432E+01 4.760E+01 9.168E+05 20.3620 1.00000
  1.700E+07 1.700E+07 3.311E+00 1.898E+01 2.644E+01 8.726E+00 5.415E+01 5.746E+01 9.744E+05 20.7503 1.00000
  2.000E+07 2.000E+07 3.332E+00 2.242E+01 3.117E+01 1.044E+01 6.402E+01 6.735E+01 1.023E+06 21.0754 1.00000
  2.500E+07 2.500E+07 3.361E+00 2.815E+01 3.905E+01 1.335E+01 8.055E+01 8.391E+01 1.090E+06 21.5217 1.00000
  3.000E+07 3.000E+07 3.384E+00 3.389E+01 4.694E+01 1.632E+01 9.715E+01 1.005E+02 1.144E+06 21.8863 1.00000
  3.500E+07 3.500E+07 3.405E+00 3.964E+01 5.483E+01 1.936E+01 1.138E+02 1.172E+02 1.191E+06 22.1946 1.00000
  4.000E+07 4.000E+07 3.422E+00 4.539E+01 6.273E+01 2.244E+01 1.306E+02 1.340E+02 1.231E+06 22.4617 1.00000
  4.500E+07 4.500E+07 3.438E+00 5.115E+01 7.062E+01 2.556E+01 1.473E+02 1.508E+02 1.266E+06 22.6972 1.00000
  5.000E+07 5.000E+07 3.452E+00 5.691E+01 7.852E+01 2.872E+01 1.641E+02 1.676E+02 1.297E+06 22.9079 1.00000
  5.500E+07 5.500E+07 3.465E+00 6.267E+01 8.642E+01 3.192E+01 1.810E+02 1.845E+02 1.326E+06 23.0986 1.00000
  6.000E+07 6.000E+07 3.477E+00 6.843E+01 9.432E+01 3.515E+01 1.979E+02 2.014E+02 1.352E+06 23.2726 1.00000
  7.000E+07 7.000E+07 3.498E+00 7.997E+01 1.101E+02 4.169E+01 2.318E+02 2.353E+02 1.398E+06 23.5809 1.00000
  8.000E+07 8.000E+07 3.516E+00 9.151E+01 1.259E+02 4.835E+01 2.658E+02 2.693E+02 1.438E+06 23.8480 1.00000
  9.000E+07 9.000E+07 3.532E+00 1.031E+02 1.417E+02 5.509E+01 2.999E+02 3.034E+02 1.473E+06 24.0835 1.00000
  1.000E+08 1.000E+08 3.547E+00 1.146E+02 1.575E+02 6.193E+01 3.341E+02 3.376E+02 1.504E+06 24.2942 1.00000
  1.200E+08 1.200E+08 3.572E+00 1.377E+02 1.891E+02 7.582E+01 4.027E+02 4.062E+02 1.558E+06 24.6589 1.00000
  1.400E+08 1.400E+08 3.594E+00 1.608E+02 2.208E+02 8.998E+01 4.716E+02 4.752E+02 1.604E+06 24.9672 1.00000
  1.700E+08 1.700E+08 3.621E+00 1.955E+02 2.682E+02 1.116E+02 5.753E+02 5.790E+02 1.661E+06 25.3555 1.00000
  2.000E+08 2.000E+08 3.645E+00 2.302E+02 3.156E+02 1.338E+02 6.796E+02 6.832E+02 1.709E+06 25.6805 1.00000
  2.500E+08 2.500E+08 3.677E+00 2.880E+02 3.947E+02 1.714E+02 8.541E+02 8.578E+02 1.775E+06 26.1268 1.00000
  3.000E+08 3.000E+08 3.703E+00 3.459E+02 4.738E+02 2.100E+02 1.030E+03 1.033E+03 1.828E+06 26.4915 1.00000
  3.500E+08 3.500E+08 3.726E+00 4.037E+02 5.528E+02 2.493E+02 1.206E+03 1.210E+03 1.873E+06 26.7998 1.00000
  4.000E+08 4.000E+08 3.746E+00 4.616E+02 6.319E+02 2.893E+02 1.383E+03 1.386E+03 1.912E+06 27.0668 1.00000
  4.500E+08 4.500E+08 3.763E+00 5.194E+02 7.109E+02 3.299E+02 1.560E+03 1.564E+03 1.946E+06 27.3024 1.00000
  5.000E+08 5.000E+08 3.779E+00 5.773E+02 7.900E+02 3.710E+02 1.738E+03 1.742E+03 1.976E+06 27.5131 1.00000
  5.500E+08 5.500E+08 3.793E+00 6.351E+02 8.691E+02 4.126E+02 1.917E+03 1.921E+03 2.004E+06 27.7037 1.00000
  6.000E+08 6.000E+08 3.806E+00 6.930E+02 9.481E+02 4.546E+02 2.096E+03 2.100E+03 2.028E+06 27.8778 1.00000
  7.000E+08 7.000E+08 3.830E+00 8.088E+02 1.106E+03 5.399E+02 2.455E+03 2.459E+03 2.073E+06 28.1861 1.00000
  8.000E+08 8.000E+08 3.850E+00 9.245E+02 1.264E+03 6.266E+02 2.816E+03 2.819E+03 2.111E+06 28.4531 1.00000
  9.000E+08 9.000E+08 3.868E+00 1.040E+03 1.423E+03 7.147E+02 3.177E+03 3.181E+03 2.144E+06 28.6887 1.00000
  1.000E+09 1.000E+09 3.885E+00 1.156E+03 1.581E+03 8.039E+02 3.541E+03 3.544E+03 2.174E+06 28.8994 1.00000
