 Incident particle is a Muon with M = 105.65839 MeV
 Index = 0: Gold
      Absorber with <Z/A> = 0.40108
 Sternheimer coef:  a     k=m_s   x_0    x_1    I[eV]   Cbar  delta0
                 0.0976  3.1101  0.2021  3.6979  790.0  5.5747 0.14

 *** Table generated with PUMAS v1.00 ***

      T         p     Ionization  brems     pair     photonuc  Radloss    dE/dx   CSDA Range  delta   beta
    [MeV]    [MeV/c]  -----------------------[MeV cm^2/g]------------------------  [g/cm^2]
  1.000E+00 1.457E+01 2.098E+01 5.452E-06 0.000E+00 0.000E+00 5.452E-06 2.098E+01 2.383E-02  0.0010 0.13661
  1.200E+00 1.597E+01 1.852E+01 6.261E-06 0.000E+00 0.000E+00 6.261E-06 1.852E+01 3.400E-02  0.0013 0.14944
  1.400E+00 1.726E+01 1.664E+01 7.027E-06 0.000E+00 0.000E+00 7.027E-06 1.664E+01 4.541E-02  0.0015 0.16119
  1.700E+00 1.903E+01 1.450E+01 8.108E-06 0.000E+00 0.000E+00 8.108E-06 1.450E+01 6.477E-02  0.0018 0.17725
  2.000E+00 2.066E+01 1.291E+01 9.123E-06 0.000E+00 0.000E+00 9.123E-06 1.291E+01 8.673E-02  0.0021 0.19186
  2.500E+00 2.312E+01 1.098E+01 1.069E-05 0.000E+00 0.000E+00 1.069E-05 1.098E+01 1.289E-01  0.0026 0.21376
  3.000E+00 2.536E+01 9.612E+00 1.215E-05 0.000E+00 0.000E+00 1.215E-05 9.612E+00 1.776E-01  0.0032 0.23336
  3.500E+00 2.742E+01 8.583E+00 1.350E-05 0.000E+00 0.000E+00 1.350E-05 8.583E+00 2.328E-01  0.0037 0.25120
  4.000E+00 2.935E+01 7.780E+00 1.477E-05 0.000E+00 0.000E+00 1.477E-05 7.780E+00 2.940E-01  0.0043 0.26763
  4.500E+00 3.116E+01 7.134E+00 1.597E-05 0.000E+00 0.000E+00 1.597E-05 7.134E+00 3.612E-01  0.0048 0.28290
  5.000E+00 3.289E+01 6.602E+00 1.712E-05 0.000E+00 0.000E+00 1.712E-05 6.602E+00 4.341E-01  0.0053 0.29720
  5.500E+00 3.453E+01 6.156E+00 1.821E-05 0.000E+00 0.000E+00 1.821E-05 6.156E+00 5.126E-01  0.0059 0.31066
  6.000E+00 3.611E+01 5.776E+00 1.925E-05 0.000E+00 0.000E+00 1.925E-05 5.776E+00 5.965E-01  0.0064 0.32339
  7.000E+00 3.909E+01 5.163E+00 2.123E-05 0.000E+00 0.000E+00 2.123E-05 5.163E+00 7.799E-01  0.0076 0.34700
  8.000E+00 4.189E+01 4.688E+00 2.306E-05 0.000E+00 0.000E+00 2.306E-05 4.688E+00 9.834E-01  0.0087 0.36854
  9.000E+00 4.453E+01 4.308E+00 2.479E-05 0.000E+00 0.000E+00 2.479E-05 4.308E+00 1.206E+00  0.0098 0.38836
  1.000E+01 4.704E+01 3.998E+00 2.643E-05 0.000E+00 0.000E+00 2.643E-05 3.998E+00 1.447E+00  0.0109 0.40675
  1.200E+01 5.177E+01 3.520E+00 2.948E-05 0.000E+00 0.000E+00 2.948E-05 3.520E+00 1.981E+00  0.0133 0.43998
  1.400E+01 5.616E+01 3.169E+00 3.229E-05 0.000E+00 0.000E+00 3.229E-05 3.169E+00 2.581E+00  0.0156 0.46937
  1.700E+01 6.230E+01 2.786E+00 3.619E-05 0.000E+00 0.000E+00 3.619E-05 2.786E+00 3.593E+00  0.0192 0.50792
  2.000E+01 6.802E+01 2.511E+00 3.979E-05 0.000E+00 0.000E+00 3.979E-05 2.511E+00 4.729E+00  0.0229 0.54129
  2.500E+01 7.686E+01 2.193E+00 4.537E-05 0.000E+00 0.000E+00 4.537E-05 2.193E+00 6.864E+00  0.0292 0.58827
  3.000E+01 8.509E+01 1.977E+00 5.060E-05 0.000E+00 0.000E+00 5.060E-05 1.977E+00 9.268E+00  0.0358 0.62720
  3.500E+01 9.285E+01 1.821E+00 5.561E-05 0.000E+00 0.000E+00 5.561E-05 1.821E+00 1.191E+01  0.0426 0.66011
  4.000E+01 1.003E+02 1.704E+00 6.047E-05 0.000E+00 0.000E+00 6.047E-05 1.704E+00 1.475E+01  0.0497 0.68834
  4.500E+01 1.074E+02 1.613E+00 6.526E-05 0.000E+00 0.000E+00 6.526E-05 1.613E+00 1.776E+01  0.0570 0.71286
  5.000E+01 1.143E+02 1.540E+00 7.001E-05 0.000E+00 0.000E+00 7.001E-05 1.540E+00 2.094E+01  0.0646 0.73434
  5.500E+01 1.210E+02 1.482E+00 7.473E-05 0.000E+00 0.000E+00 7.473E-05 1.482E+00 2.425E+01  0.0724 0.75332
  6.000E+01 1.276E+02 1.433E+00 7.945E-05 0.000E+00 0.000E+00 7.945E-05 1.433E+00 2.768E+01  0.0805 0.77019
  7.000E+01 1.403E+02 1.358E+00 8.896E-05 0.000E+00 0.000E+00 8.896E-05 1.358E+00 3.485E+01  0.0974 0.79887
  8.000E+01 1.527E+02 1.304E+00 9.858E-05 0.000E+00 0.000E+00 9.858E-05 1.304E+00 4.236E+01  0.1152 0.82227
  9.000E+01 1.647E+02 1.264E+00 1.084E-04 0.000E+00 0.000E+00 1.084E-04 1.264E+00 5.015E+01  0.1341 0.84166
  1.000E+02 1.764E+02 1.234E+00 1.184E-04 0.000E+00 0.000E+00 1.184E-04 1.234E+00 5.816E+01  0.1493 0.85794
  1.200E+02 1.994E+02 1.192E+00 1.390E-04 0.000E+00 0.000E+00 1.390E-04 1.193E+00 7.465E+01  0.1741 0.88361
  1.400E+02 2.218E+02 1.167E+00 1.604E-04 0.000E+00 0.000E+00 1.604E-04 1.167E+00 9.160E+01  0.2015 0.90278
  1.700E+02 2.546E+02 1.146E+00 1.942E-04 0.000E+00 0.000E+00 1.942E-04 1.146E+00 1.175E+02  0.2449 0.92363
  2.000E+02 2.868E+02 1.137E+00 2.299E-04 0.000E+00 0.000E+00 2.299E-04 1.137E+00 1.438E+02  0.2893 0.93835
  2.500E+02 3.396E+02 1.134E+00 2.932E-04 0.000E+00 0.000E+00 2.932E-04 1.134E+00 1.878E+02  0.3632 0.95485
  3.000E+02 3.917E+02 1.139E+00 3.611E-04 0.000E+00 0.000E+00 3.611E-04 1.140E+00 2.318E+02  0.4354 0.96548
  3.500E+02 4.432E+02 1.148E+00 4.331E-04 0.000E+00 0.000E+00 4.331E-04 1.149E+00 2.755E+02  0.5051 0.97274
  4.000E+02 4.945E+02 1.159E+00 5.090E-04 0.000E+00 0.000E+00 5.090E-04 1.159E+00 3.188E+02  0.5720 0.97793
  4.500E+02 5.455E+02 1.169E+00 5.884E-04 0.000E+00 0.000E+00 5.884E-04 1.170E+00 3.618E+02  0.6364 0.98176
  5.000E+02 5.964E+02 1.180E+00 6.711E-04 7.279E-05 0.000E+00 7.439E-04 1.181E+00 4.043E+02  0.6981 0.98467
  5.500E+02 6.471E+02 1.191E+00 7.568E-04 1.074E-04 0.000E+00 8.642E-04 1.192E+00 4.465E+02  0.7575 0.98693
  6.000E+02 6.977E+02 1.202E+00 8.455E-04 1.433E-04 0.000E+00 9.888E-04 1.203E+00 4.882E+02  0.8146 0.98873
  7.000E+02 7.987E+02 1.221E+00 1.031E-03 2.276E-04 0.000E+00 1.258E-03 1.223E+00 5.707E+02  0.9227 0.99136
  8.000E+02 8.995E+02 1.240E+00 1.226E-03 3.286E-04 0.000E+00 1.554E-03 1.241E+00 6.519E+02  1.0234 0.99317
  9.000E+02 1.000E+03 1.256E+00 1.430E-03 4.453E-04 0.000E+00 1.875E-03 1.258E+00 7.319E+02  1.1178 0.99447
  1.000E+03 1.101E+03 1.272E+00 1.642E-03 5.767E-04 0.000E+00 2.218E-03 1.274E+00 8.109E+02  1.2066 0.99542
  1.200E+03 1.301E+03 1.299E+00 2.087E-03 8.805E-04 2.245E-05 2.990E-03 1.302E+00 9.661E+02  1.3699 0.99672
  1.400E+03 1.502E+03 1.323E+00 2.559E-03 1.234E-03 6.084E-05 3.854E-03 1.327E+00 1.118E+03  1.5174 0.99753
  1.700E+03 1.803E+03 1.353E+00 3.309E-03 1.847E-03 1.288E-04 5.284E-03 1.358E+00 1.342E+03  1.7152 0.99829
  2.000E+03 2.103E+03 1.378E+00 4.102E-03 2.548E-03 2.076E-04 6.857E-03 1.385E+00 1.561E+03  1.8909 0.99874
  2.500E+03 2.604E+03 1.412E+00 5.506E-03 3.885E-03 3.580E-04 9.748E-03 1.422E+00 1.917E+03  2.1467 0.99918
  3.000E+03 3.104E+03 1.440E+00 6.997E-03 5.402E-03 5.134E-04 1.291E-02 1.453E+00 2.265E+03  2.3678 0.99942
  3.500E+03 3.604E+03 1.463E+00 8.561E-03 7.074E-03 6.762E-04 1.631E-02 1.479E+00 2.606E+03  2.5629 0.99957
  4.000E+03 4.104E+03 1.483E+00 1.019E-02 8.891E-03 8.486E-04 1.993E-02 1.502E+00 2.942E+03  2.7378 0.99967
  4.500E+03 4.604E+03 1.500E+00 1.187E-02 1.083E-02 1.027E-03 2.373E-02 1.523E+00 3.272E+03  2.8964 0.99974
  5.000E+03 5.105E+03 1.515E+00 1.361E-02 1.288E-02 1.197E-03 2.769E-02 1.543E+00 3.598E+03  3.0417 0.99979
  5.500E+03 5.605E+03 1.528E+00 1.539E-02 1.503E-02 1.380E-03 3.180E-02 1.560E+00 3.921E+03  3.1757 0.99982
  6.000E+03 6.105E+03 1.541E+00 1.721E-02 1.727E-02 1.549E-03 3.603E-02 1.577E+00 4.239E+03  3.3003 0.99985
  7.000E+03 7.105E+03 1.562E+00 2.096E-02 2.199E-02 1.906E-03 4.485E-02 1.607E+00 4.868E+03  3.5260 0.99989
  8.000E+03 8.105E+03 1.580E+00 2.484E-02 2.699E-02 2.260E-03 5.409E-02 1.634E+00 5.485E+03  3.7264 0.99992
  9.000E+03 9.105E+03 1.595E+00 2.884E-02 3.224E-02 2.590E-03 6.366E-02 1.659E+00 6.092E+03  3.9068 0.99993
  1.000E+04 1.011E+04 1.609E+00 3.293E-02 3.770E-02 2.929E-03 7.357E-02 1.683E+00 6.691E+03  4.0711 0.99995
  1.200E+04 1.211E+04 1.632E+00 4.140E-02 4.920E-02 3.615E-03 9.421E-02 1.726E+00 7.864E+03  4.3613 0.99996
  1.400E+04 1.411E+04 1.651E+00 5.016E-02 6.134E-02 4.298E-03 1.158E-01 1.767E+00 9.009E+03  4.6123 0.99997
  1.700E+04 1.711E+04 1.674E+00 6.378E-02 8.054E-02 5.304E-03 1.496E-01 1.824E+00 1.068E+04  4.9356 0.99998
  2.000E+04 2.011E+04 1.693E+00 7.787E-02 1.007E-01 6.286E-03 1.849E-01 1.878E+00 1.230E+04  5.2119 0.99999
  2.500E+04 2.511E+04 1.718E+00 1.022E-01 1.361E-01 7.890E-03 2.462E-01 1.964E+00 1.491E+04  5.5991 0.99999
  3.000E+04 3.011E+04 1.737E+00 1.274E-01 1.731E-01 9.457E-03 3.100E-01 2.047E+00 1.740E+04  5.9219 0.99999
  3.500E+04 3.511E+04 1.753E+00 1.534E-01 2.116E-01 1.103E-02 3.759E-01 2.129E+00 1.980E+04  6.1989 1.00000
  4.000E+04 4.011E+04 1.767E+00 1.799E-01 2.511E-01 1.259E-02 4.436E-01 2.211E+00 2.210E+04  6.4417 1.00000
  4.500E+04 4.511E+04 1.779E+00 2.069E-01 2.916E-01 1.412E-02 5.126E-01 2.291E+00 2.432E+04  6.6580 1.00000
  5.000E+04 5.011E+04 1.789E+00 2.344E-01 3.328E-01 1.565E-02 5.829E-01 2.372E+00 2.647E+04  6.8531 1.00000
  5.500E+04 5.511E+04 1.798E+00 2.623E-01 3.748E-01 1.718E-02 6.542E-01 2.452E+00 2.854E+04  7.0307 1.00000
  6.000E+04 6.011E+04 1.806E+00 2.905E-01 4.174E-01 1.870E-02 7.266E-01 2.533E+00 3.055E+04  7.1939 1.00000
  7.000E+04 7.011E+04 1.821E+00 3.479E-01 5.041E-01 2.170E-02 8.737E-01 2.694E+00 3.438E+04  7.4851 1.00000
  8.000E+04 8.011E+04 1.833E+00 4.063E-01 5.925E-01 2.471E-02 1.024E+00 2.856E+00 3.798E+04  7.7394 1.00000
  9.000E+04 9.011E+04 1.843E+00 4.657E-01 6.824E-01 2.771E-02 1.176E+00 3.019E+00 4.139E+04  7.9651 1.00000
  1.000E+05 1.001E+05 1.853E+00 5.259E-01 7.734E-01 3.065E-02 1.330E+00 3.183E+00 4.462E+04  8.1682 1.00000
  1.200E+05 1.201E+05 1.869E+00 6.482E-01 9.585E-01 3.662E-02 1.643E+00 3.512E+00 5.061E+04  8.5218 1.00000
  1.400E+05 1.401E+05 1.882E+00 7.727E-01 1.147E+00 4.259E-02 1.962E+00 3.844E+00 5.606E+04  8.8227 1.00000
  1.700E+05 1.701E+05 1.898E+00 9.629E-01 1.434E+00 5.152E-02 2.448E+00 4.346E+00 6.341E+04  9.2039 1.00000
  2.000E+05 2.001E+05 1.912E+00 1.156E+00 1.725E+00 6.050E-02 2.941E+00 4.853E+00 6.995E+04  9.5247 1.00000
  2.500E+05 2.501E+05 1.930E+00 1.484E+00 2.217E+00 7.547E-02 3.776E+00 5.707E+00 7.948E+04  9.9671 1.00000
  3.000E+05 3.001E+05 1.946E+00 1.817E+00 2.715E+00 9.053E-02 4.623E+00 6.568E+00 8.767E+04 10.3299 1.00000
  3.500E+05 3.501E+05 1.958E+00 2.154E+00 3.218E+00 1.058E-01 5.478E+00 7.436E+00 9.484E+04 10.6373 1.00000
  4.000E+05 4.001E+05 1.969E+00 2.495E+00 3.724E+00 1.211E-01 6.341E+00 8.310E+00 1.012E+05 10.9040 1.00000
  4.500E+05 4.501E+05 1.979E+00 2.839E+00 4.234E+00 1.364E-01 7.209E+00 9.188E+00 1.069E+05 11.1394 1.00000
  5.000E+05 5.001E+05 1.988E+00 3.185E+00 4.745E+00 1.519E-01 8.082E+00 1.007E+01 1.121E+05 11.3500 1.00000
  5.500E+05 5.501E+05 1.996E+00 3.532E+00 5.259E+00 1.672E-01 8.959E+00 1.095E+01 1.169E+05 11.5406 1.00000
  6.000E+05 6.001E+05 2.003E+00 3.882E+00 5.775E+00 1.827E-01 9.839E+00 1.184E+01 1.213E+05 11.7146 1.00000
  7.000E+05 7.001E+05 2.016E+00 4.586E+00 6.810E+00 2.138E-01 1.161E+01 1.362E+01 1.292E+05 12.0229 1.00000
  8.000E+05 8.001E+05 2.027E+00 5.295E+00 7.849E+00 2.452E-01 1.339E+01 1.542E+01 1.361E+05 12.2899 1.00000
  9.000E+05 9.001E+05 2.036E+00 6.008E+00 8.892E+00 2.770E-01 1.518E+01 1.721E+01 1.423E+05 12.5254 1.00000
  1.000E+06 1.000E+06 2.045E+00 6.724E+00 9.938E+00 3.090E-01 1.697E+01 1.902E+01 1.478E+05 12.7361 1.00000
  1.200E+06 1.200E+06 2.061E+00 8.165E+00 1.204E+01 3.738E-01 2.058E+01 2.264E+01 1.575E+05 13.1007 1.00000
  1.400E+06 1.400E+06 2.074E+00 9.615E+00 1.414E+01 4.394E-01 2.420E+01 2.627E+01 1.657E+05 13.4090 1.00000
  1.700E+06 1.700E+06 2.090E+00 1.180E+01 1.731E+01 5.395E-01 2.965E+01 3.174E+01 1.761E+05 13.7973 1.00000
  2.000E+06 2.000E+06 2.104E+00 1.400E+01 2.049E+01 6.411E-01 3.513E+01 3.724E+01 1.849E+05 14.1223 1.00000
  2.500E+06 2.500E+06 2.124E+00 1.768E+01 2.580E+01 8.135E-01 4.430E+01 4.642E+01 1.970E+05 14.5686 1.00000
  3.000E+06 3.000E+06 2.139E+00 2.138E+01 3.112E+01 9.891E-01 5.349E+01 5.563E+01 2.069E+05 14.9332 1.00000
  3.500E+06 3.500E+06 2.153E+00 2.510E+01 3.645E+01 1.168E+00 6.272E+01 6.487E+01 2.152E+05 15.2415 1.00000
  4.000E+06 4.000E+06 2.165E+00 2.882E+01 4.179E+01 1.349E+00 7.196E+01 7.412E+01 2.224E+05 15.5085 1.00000
  4.500E+06 4.500E+06 2.175E+00 3.255E+01 4.713E+01 1.532E+00 8.121E+01 8.339E+01 2.288E+05 15.7441 1.00000
  5.000E+06 5.000E+06 2.185E+00 3.629E+01 5.247E+01 1.717E+00 9.048E+01 9.266E+01 2.345E+05 15.9548 1.00000
  5.500E+06 5.500E+06 2.193E+00 4.003E+01 5.782E+01 1.904E+00 9.976E+01 1.019E+02 2.396E+05 16.1454 1.00000
  6.000E+06 6.000E+06 2.201E+00 4.377E+01 6.318E+01 2.093E+00 1.090E+02 1.112E+02 2.443E+05 16.3195 1.00000
  7.000E+06 7.000E+06 2.215E+00 5.128E+01 7.389E+01 2.476E+00 1.276E+02 1.299E+02 2.527E+05 16.6277 1.00000
  8.000E+06 8.000E+06 2.227E+00 5.879E+01 8.461E+01 2.864E+00 1.463E+02 1.485E+02 2.599E+05 16.8948 1.00000
  9.000E+06 9.000E+06 2.238E+00 6.632E+01 9.533E+01 3.257E+00 1.649E+02 1.671E+02 2.663E+05 17.1304 1.00000
  1.000E+07 1.000E+07 2.247E+00 7.385E+01 1.061E+02 3.655E+00 1.836E+02 1.858E+02 2.720E+05 17.3411 1.00000
  1.200E+07 1.200E+07 2.264E+00 8.893E+01 1.275E+02 4.463E+00 2.209E+02 2.232E+02 2.818E+05 17.7057 1.00000
  1.400E+07 1.400E+07 2.279E+00 1.040E+02 1.490E+02 5.285E+00 2.583E+02 2.606E+02 2.901E+05 18.0140 1.00000
  1.700E+07 1.700E+07 2.297E+00 1.267E+02 1.812E+02 6.542E+00 3.145E+02 3.168E+02 3.006E+05 18.4023 1.00000
  2.000E+07 2.000E+07 2.312E+00 1.494E+02 2.135E+02 7.823E+00 3.707E+02 3.730E+02 3.094E+05 18.7274 1.00000
  2.500E+07 2.500E+07 2.334E+00 1.872E+02 2.672E+02 1.000E+01 4.645E+02 4.668E+02 3.214E+05 19.1737 1.00000
  3.000E+07 3.000E+07 2.351E+00 2.251E+02 3.210E+02 1.223E+01 5.583E+02 5.607E+02 3.313E+05 19.5383 1.00000
  3.500E+07 3.500E+07 2.366E+00 2.630E+02 3.748E+02 1.450E+01 6.523E+02 6.546E+02 3.395E+05 19.8466 1.00000
  4.000E+07 4.000E+07 2.379E+00 3.009E+02 4.286E+02 1.681E+01 7.463E+02 7.487E+02 3.467E+05 20.1137 1.00000
  4.500E+07 4.500E+07 2.391E+00 3.388E+02 4.824E+02 1.914E+01 8.403E+02 8.427E+02 3.530E+05 20.3492 1.00000
  5.000E+07 5.000E+07 2.401E+00 3.768E+02 5.362E+02 2.151E+01 9.344E+02 9.368E+02 3.586E+05 20.5599 1.00000
  5.500E+07 5.500E+07 2.411E+00 4.147E+02 5.900E+02 2.390E+01 1.029E+03 1.031E+03 3.637E+05 20.7506 1.00000
  6.000E+07 6.000E+07 2.419E+00 4.527E+02 6.438E+02 2.632E+01 1.123E+03 1.125E+03 3.684E+05 20.9246 1.00000
  7.000E+07 7.000E+07 2.435E+00 5.286E+02 7.514E+02 3.122E+01 1.311E+03 1.314E+03 3.766E+05 21.2329 1.00000
  8.000E+07 8.000E+07 2.448E+00 6.045E+02 8.590E+02 3.620E+01 1.500E+03 1.502E+03 3.838E+05 21.5000 1.00000
  9.000E+07 9.000E+07 2.460E+00 6.804E+02 9.667E+02 4.125E+01 1.688E+03 1.691E+03 3.900E+05 21.7355 1.00000
  1.000E+08 1.000E+08 2.471E+00 7.564E+02 1.074E+03 4.637E+01 1.877E+03 1.879E+03 3.957E+05 21.9462 1.00000
  1.200E+08 1.200E+08 2.490E+00 9.083E+02 1.290E+03 5.677E+01 2.255E+03 2.257E+03 4.054E+05 22.3109 1.00000
  1.400E+08 1.400E+08 2.506E+00 1.060E+03 1.505E+03 6.737E+01 2.632E+03 2.635E+03 4.136E+05 22.6192 1.00000
  1.700E+08 1.700E+08 2.526E+00 1.288E+03 1.828E+03 8.359E+01 3.199E+03 3.202E+03 4.240E+05 23.0075 1.00000
  2.000E+08 2.000E+08 2.543E+00 1.516E+03 2.151E+03 1.001E+02 3.767E+03 3.769E+03 4.327E+05 23.3325 1.00000
  2.500E+08 2.500E+08 2.567E+00 1.896E+03 2.689E+03 1.284E+02 4.713E+03 4.716E+03 4.446E+05 23.7788 1.00000
  3.000E+08 3.000E+08 2.587E+00 2.276E+03 3.227E+03 1.572E+02 5.660E+03 5.663E+03 4.543E+05 24.1435 1.00000
  3.500E+08 3.500E+08 2.603E+00 2.656E+03 3.765E+03 1.867E+02 6.608E+03 6.611E+03 4.625E+05 24.4518 1.00000
  4.000E+08 4.000E+08 2.618E+00 3.036E+03 4.304E+03 2.166E+02 7.556E+03 7.559E+03 4.696E+05 24.7188 1.00000
  4.500E+08 4.500E+08 2.631E+00 3.416E+03 4.842E+03 2.470E+02 8.505E+03 8.507E+03 4.759E+05 24.9544 1.00000
  5.000E+08 5.000E+08 2.643E+00 3.796E+03 5.380E+03 2.777E+02 9.454E+03 9.456E+03 4.814E+05 25.1651 1.00000
  5.500E+08 5.500E+08 2.653E+00 4.176E+03 5.918E+03 3.089E+02 1.040E+04 1.041E+04 4.865E+05 25.3557 1.00000
  6.000E+08 6.000E+08 2.663E+00 4.556E+03 6.457E+03 3.403E+02 1.135E+04 1.136E+04 4.911E+05 25.5298 1.00000
  7.000E+08 7.000E+08 2.680E+00 5.316E+03 7.533E+03 4.042E+02 1.325E+04 1.326E+04 4.993E+05 25.8381 1.00000
  8.000E+08 8.000E+08 2.695E+00 6.076E+03 8.609E+03 4.691E+02 1.515E+04 1.516E+04 5.063E+05 26.1051 1.00000
  9.000E+08 9.000E+08 2.709E+00 6.836E+03 9.686E+03 5.350E+02 1.706E+04 1.706E+04 5.126E+05 26.3407 1.00000
  1.000E+09 1.000E+09 2.721E+00 7.596E+03 1.076E+04 6.018E+02 1.896E+04 1.896E+04 5.181E+05 26.5514 1.00000
