 Incident particle is a Muon with M = 105.65839 MeV
 Index = 0: HeavymetInATLASCalorimeter
      Absorber with <Z/A> = 0.40594
 Sternheimer coef:  a     k=m_s   x_0    x_1    I[eV]   Cbar  delta0
                 0.1551  2.8447  0.2167  3.4960  727.0  5.4059 0.14

 *** Table generated with PUMAS v1.00 ***

      T         p     Ionization  brems     pair     photonuc  Radloss    dE/dx   CSDA Range  delta   beta
    [MeV]    [MeV/c]  -----------------------[MeV cm^2/g]------------------------  [g/cm^2]
  1.000E+00 1.457E+01 2.179E+01 5.021E-06 0.000E+00 0.000E+00 5.021E-06 2.179E+01 2.295E-02  0.0010 0.13661
  1.200E+00 1.597E+01 1.921E+01 5.766E-06 0.000E+00 0.000E+00 5.766E-06 1.921E+01 3.274E-02  0.0012 0.14944
  1.400E+00 1.726E+01 1.724E+01 6.472E-06 0.000E+00 0.000E+00 6.472E-06 1.724E+01 4.375E-02  0.0014 0.16119
  1.700E+00 1.903E+01 1.501E+01 7.470E-06 0.000E+00 0.000E+00 7.470E-06 1.501E+01 6.245E-02  0.0017 0.17725
  2.000E+00 2.066E+01 1.335E+01 8.406E-06 0.000E+00 0.000E+00 8.406E-06 1.335E+01 8.368E-02  0.0020 0.19186
  2.500E+00 2.312E+01 1.134E+01 9.857E-06 0.000E+00 0.000E+00 9.857E-06 1.134E+01 1.245E-01  0.0025 0.21376
  3.000E+00 2.536E+01 9.919E+00 1.120E-05 0.000E+00 0.000E+00 1.120E-05 9.919E+00 1.717E-01  0.0030 0.23336
  3.500E+00 2.742E+01 8.852E+00 1.245E-05 0.000E+00 0.000E+00 1.245E-05 8.852E+00 2.251E-01  0.0035 0.25120
  4.000E+00 2.935E+01 8.019E+00 1.362E-05 0.000E+00 0.000E+00 1.362E-05 8.019E+00 2.846E-01  0.0040 0.26763
  4.500E+00 3.116E+01 7.350E+00 1.474E-05 0.000E+00 0.000E+00 1.474E-05 7.350E+00 3.498E-01  0.0045 0.28290
  5.000E+00 3.289E+01 6.800E+00 1.579E-05 0.000E+00 0.000E+00 1.579E-05 6.800E+00 4.205E-01  0.0050 0.29720
  5.500E+00 3.453E+01 6.339E+00 1.681E-05 0.000E+00 0.000E+00 1.681E-05 6.339E+00 4.967E-01  0.0055 0.31066
  6.000E+00 3.611E+01 5.946E+00 1.777E-05 0.000E+00 0.000E+00 1.777E-05 5.946E+00 5.782E-01  0.0060 0.32339
  7.000E+00 3.909E+01 5.312E+00 1.960E-05 0.000E+00 0.000E+00 1.960E-05 5.312E+00 7.565E-01  0.0071 0.34700
  8.000E+00 4.189E+01 4.821E+00 2.130E-05 0.000E+00 0.000E+00 2.130E-05 4.821E+00 9.543E-01  0.0081 0.36854
  9.000E+00 4.453E+01 4.430E+00 2.291E-05 0.000E+00 0.000E+00 2.291E-05 4.430E+00 1.171E+00  0.0092 0.38836
  1.000E+01 4.704E+01 4.109E+00 2.442E-05 0.000E+00 0.000E+00 2.442E-05 4.109E+00 1.405E+00  0.0102 0.40675
  1.200E+01 5.177E+01 3.617E+00 2.725E-05 0.000E+00 0.000E+00 2.725E-05 3.617E+00 1.925E+00  0.0124 0.43998
  1.400E+01 5.616E+01 3.254E+00 2.986E-05 0.000E+00 0.000E+00 2.986E-05 3.254E+00 2.509E+00  0.0146 0.46937
  1.700E+01 6.230E+01 2.860E+00 3.348E-05 0.000E+00 0.000E+00 3.348E-05 2.860E+00 3.494E+00  0.0179 0.50792
  2.000E+01 6.802E+01 2.577E+00 3.682E-05 0.000E+00 0.000E+00 3.682E-05 2.577E+00 4.601E+00  0.0214 0.54129
  2.500E+01 7.686E+01 2.250E+00 4.200E-05 0.000E+00 0.000E+00 4.200E-05 2.250E+00 6.682E+00  0.0273 0.58827
  3.000E+01 8.509E+01 2.028E+00 4.685E-05 0.000E+00 0.000E+00 4.685E-05 2.028E+00 9.026E+00  0.0335 0.62720
  3.500E+01 9.285E+01 1.867E+00 5.150E-05 0.000E+00 0.000E+00 5.150E-05 1.868E+00 1.160E+01  0.0399 0.66011
  4.000E+01 1.003E+02 1.747E+00 5.602E-05 0.000E+00 0.000E+00 5.602E-05 1.747E+00 1.437E+01  0.0465 0.68834
  4.500E+01 1.074E+02 1.653E+00 6.046E-05 0.000E+00 0.000E+00 6.046E-05 1.653E+00 1.731E+01  0.0533 0.71286
  5.000E+01 1.143E+02 1.579E+00 6.486E-05 0.000E+00 0.000E+00 6.486E-05 1.579E+00 2.041E+01  0.0604 0.73434
  5.500E+01 1.210E+02 1.518E+00 6.924E-05 0.000E+00 0.000E+00 6.924E-05 1.518E+00 2.364E+01  0.0677 0.75332
  6.000E+01 1.276E+02 1.468E+00 7.362E-05 0.000E+00 0.000E+00 7.362E-05 1.468E+00 2.699E+01  0.0753 0.77019
  7.000E+01 1.403E+02 1.392E+00 8.243E-05 0.000E+00 0.000E+00 8.243E-05 1.392E+00 3.398E+01  0.0910 0.79887
  8.000E+01 1.527E+02 1.336E+00 9.136E-05 0.000E+00 0.000E+00 9.136E-05 1.336E+00 4.132E+01  0.1077 0.82227
  9.000E+01 1.647E+02 1.295E+00 1.004E-04 0.000E+00 0.000E+00 1.004E-04 1.295E+00 4.892E+01  0.1254 0.84166
  1.000E+02 1.764E+02 1.263E+00 1.097E-04 0.000E+00 0.000E+00 1.097E-04 1.263E+00 5.674E+01  0.1444 0.85794
  1.200E+02 1.994E+02 1.219E+00 1.288E-04 0.000E+00 0.000E+00 1.288E-04 1.220E+00 7.286E+01  0.1832 0.88361
  1.400E+02 2.218E+02 1.192E+00 1.486E-04 0.000E+00 0.000E+00 1.486E-04 1.193E+00 8.944E+01  0.2221 0.90278
  1.700E+02 2.546E+02 1.170E+00 1.799E-04 0.000E+00 0.000E+00 1.799E-04 1.170E+00 1.148E+02  0.2793 0.92363
  2.000E+02 2.868E+02 1.159E+00 2.129E-04 0.000E+00 0.000E+00 2.129E-04 1.159E+00 1.406E+02  0.3348 0.93835
  2.500E+02 3.396E+02 1.155E+00 2.715E-04 0.000E+00 0.000E+00 2.715E-04 1.155E+00 1.838E+02  0.4231 0.95485
  3.000E+02 3.917E+02 1.160E+00 3.343E-04 2.634E-08 0.000E+00 3.344E-04 1.160E+00 2.270E+02  0.5063 0.96548
  3.500E+02 4.432E+02 1.168E+00 4.010E-04 3.474E-07 0.000E+00 4.013E-04 1.168E+00 2.699E+02  0.5848 0.97274
  4.000E+02 4.945E+02 1.178E+00 4.711E-04 6.956E-07 0.000E+00 4.718E-04 1.178E+00 3.126E+02  0.6589 0.97793
  4.500E+02 5.455E+02 1.188E+00 5.445E-04 1.174E-05 0.000E+00 5.562E-04 1.189E+00 3.548E+02  0.7292 0.98176
  5.000E+02 5.964E+02 1.199E+00 6.209E-04 6.889E-05 0.000E+00 6.898E-04 1.200E+00 3.967E+02  0.7961 0.98467
  5.500E+02 6.471E+02 1.210E+00 7.002E-04 9.884E-05 0.000E+00 7.990E-04 1.210E+00 4.382E+02  0.8598 0.98693
  6.000E+02 6.977E+02 1.220E+00 7.821E-04 1.316E-04 0.000E+00 9.136E-04 1.221E+00 4.793E+02  0.9207 0.98873
  7.000E+02 7.987E+02 1.240E+00 9.532E-04 2.087E-04 0.000E+00 1.162E-03 1.241E+00 5.606E+02  1.0351 0.99136
  8.000E+02 8.995E+02 1.258E+00 1.133E-03 3.012E-04 0.000E+00 1.435E-03 1.259E+00 6.406E+02  1.1408 0.99317
  9.000E+02 1.000E+03 1.274E+00 1.322E-03 4.080E-04 0.000E+00 1.730E-03 1.276E+00 7.194E+02  1.2392 0.99447
  1.000E+03 1.101E+03 1.290E+00 1.517E-03 5.284E-04 0.000E+00 2.046E-03 1.292E+00 7.973E+02  1.3313 0.99542
  1.200E+03 1.301E+03 1.317E+00 1.929E-03 8.065E-04 2.245E-05 2.758E-03 1.320E+00 9.505E+02  1.4998 0.99672
  1.400E+03 1.502E+03 1.341E+00 2.364E-03 1.130E-03 6.089E-05 3.555E-03 1.344E+00 1.101E+03  1.6511 0.99753
  1.700E+03 1.803E+03 1.371E+00 3.056E-03 1.691E-03 1.289E-04 4.876E-03 1.376E+00 1.321E+03  1.8530 0.99829
  2.000E+03 2.103E+03 1.396E+00 3.788E-03 2.333E-03 2.080E-04 6.328E-03 1.402E+00 1.537E+03  2.0316 0.99874
  2.500E+03 2.604E+03 1.430E+00 5.082E-03 3.556E-03 3.589E-04 8.997E-03 1.439E+00 1.889E+03  2.2905 0.99918
  3.000E+03 3.104E+03 1.458E+00 6.457E-03 4.945E-03 5.149E-04 1.192E-02 1.470E+00 2.233E+03  2.5136 0.99942
  3.500E+03 3.604E+03 1.482E+00 7.899E-03 6.476E-03 6.784E-04 1.505E-02 1.497E+00 2.570E+03  2.7100 0.99957
  4.000E+03 4.104E+03 1.502E+00 9.399E-03 8.140E-03 8.518E-04 1.839E-02 1.520E+00 2.901E+03  2.8858 0.99967
  4.500E+03 4.604E+03 1.519E+00 1.095E-02 9.920E-03 1.031E-03 2.190E-02 1.541E+00 3.228E+03  3.0451 0.99974
  5.000E+03 5.105E+03 1.534E+00 1.255E-02 1.180E-02 1.202E-03 2.555E-02 1.560E+00 3.551E+03  3.1908 0.99979
  5.500E+03 5.605E+03 1.548E+00 1.419E-02 1.377E-02 1.386E-03 2.934E-02 1.577E+00 3.869E+03  3.3252 0.99982
  6.000E+03 6.105E+03 1.560E+00 1.587E-02 1.582E-02 1.556E-03 3.324E-02 1.594E+00 4.185E+03  3.4500 0.99985
  7.000E+03 7.105E+03 1.582E+00 1.932E-02 2.014E-02 1.916E-03 4.138E-02 1.623E+00 4.807E+03  3.6759 0.99989
  8.000E+03 8.105E+03 1.600E+00 2.290E-02 2.473E-02 2.272E-03 4.990E-02 1.650E+00 5.418E+03  3.8765 0.99992
  9.000E+03 9.105E+03 1.616E+00 2.658E-02 2.954E-02 2.605E-03 5.872E-02 1.674E+00 6.019E+03  4.0570 0.99993
  1.000E+04 1.011E+04 1.630E+00 3.035E-02 3.455E-02 2.947E-03 6.785E-02 1.697E+00 6.613E+03  4.2212 0.99995
  1.200E+04 1.211E+04 1.653E+00 3.815E-02 4.509E-02 3.637E-03 8.688E-02 1.740E+00 7.776E+03  4.5114 0.99996
  1.400E+04 1.411E+04 1.672E+00 4.622E-02 5.623E-02 4.326E-03 1.068E-01 1.779E+00 8.913E+03  4.7625 0.99997
  1.700E+04 1.711E+04 1.696E+00 5.876E-02 7.384E-02 5.341E-03 1.379E-01 1.833E+00 1.057E+04  5.0857 0.99998
  2.000E+04 2.011E+04 1.714E+00 7.174E-02 9.235E-02 6.332E-03 1.704E-01 1.885E+00 1.219E+04  5.3621 0.99999
  2.500E+04 2.511E+04 1.740E+00 9.415E-02 1.248E-01 7.951E-03 2.269E-01 1.967E+00 1.479E+04  5.7495 0.99999
  3.000E+04 3.011E+04 1.759E+00 1.174E-01 1.588E-01 9.534E-03 2.857E-01 2.045E+00 1.728E+04  6.0726 0.99999
  3.500E+04 3.511E+04 1.776E+00 1.412E-01 1.941E-01 1.113E-02 3.465E-01 2.122E+00 1.968E+04  6.3500 1.00000
  4.000E+04 4.011E+04 1.789E+00 1.657E-01 2.304E-01 1.270E-02 4.088E-01 2.198E+00 2.200E+04  6.5933 1.00000
  4.500E+04 4.511E+04 1.801E+00 1.905E-01 2.676E-01 1.424E-02 4.724E-01 2.273E+00 2.423E+04  6.8101 1.00000
  5.000E+04 5.011E+04 1.811E+00 2.158E-01 3.055E-01 1.579E-02 5.371E-01 2.349E+00 2.640E+04  7.0057 1.00000
  5.500E+04 5.511E+04 1.821E+00 2.415E-01 3.441E-01 1.734E-02 6.029E-01 2.424E+00 2.849E+04  7.1838 1.00000
  6.000E+04 6.011E+04 1.829E+00 2.675E-01 3.832E-01 1.887E-02 6.696E-01 2.498E+00 3.053E+04  7.3475 1.00000
  7.000E+04 7.011E+04 1.843E+00 3.204E-01 4.629E-01 2.191E-02 8.051E-01 2.648E+00 3.441E+04  7.6397 1.00000
  8.000E+04 8.011E+04 1.856E+00 3.742E-01 5.441E-01 2.494E-02 9.433E-01 2.799E+00 3.809E+04  7.8950 1.00000
  9.000E+04 9.011E+04 1.866E+00 4.289E-01 6.268E-01 2.798E-02 1.084E+00 2.950E+00 4.157E+04  8.1217 1.00000
  1.000E+05 1.001E+05 1.876E+00 4.843E-01 7.105E-01 3.095E-02 1.226E+00 3.101E+00 4.488E+04  8.3257 1.00000
  1.200E+05 1.201E+05 1.892E+00 5.969E-01 8.807E-01 3.700E-02 1.515E+00 3.406E+00 5.104E+04  8.6810 1.00000
  1.400E+05 1.401E+05 1.905E+00 7.116E-01 1.054E+00 4.303E-02 1.809E+00 3.713E+00 5.667E+04  8.9834 1.00000
  1.700E+05 1.701E+05 1.922E+00 8.867E-01 1.318E+00 5.207E-02 2.257E+00 4.178E+00 6.430E+04  9.3666 1.00000
  2.000E+05 2.001E+05 1.935E+00 1.065E+00 1.586E+00 6.115E-02 2.712E+00 4.647E+00 7.111E+04  9.6889 1.00000
  2.500E+05 2.501E+05 1.954E+00 1.367E+00 2.038E+00 7.631E-02 3.482E+00 5.435E+00 8.109E+04 10.1333 1.00000
  3.000E+05 3.001E+05 1.969E+00 1.674E+00 2.497E+00 9.155E-02 4.262E+00 6.231E+00 8.970E+04 10.4975 1.00000
  3.500E+05 3.501E+05 1.982E+00 1.984E+00 2.960E+00 1.070E-01 5.051E+00 7.033E+00 9.727E+04 10.8057 1.00000
  4.000E+05 4.001E+05 1.993E+00 2.298E+00 3.426E+00 1.225E-01 5.847E+00 7.840E+00 1.040E+05 11.0726 1.00000
  4.500E+05 4.501E+05 2.003E+00 2.615E+00 3.895E+00 1.380E-01 6.648E+00 8.651E+00 1.101E+05 11.3082 1.00000
  5.000E+05 5.001E+05 2.012E+00 2.934E+00 4.367E+00 1.537E-01 7.454E+00 9.465E+00 1.156E+05 11.5188 1.00000
  5.500E+05 5.501E+05 2.020E+00 3.254E+00 4.840E+00 1.692E-01 8.263E+00 1.028E+01 1.207E+05 11.7094 1.00000
  6.000E+05 6.001E+05 2.027E+00 3.577E+00 5.314E+00 1.848E-01 9.076E+00 1.110E+01 1.254E+05 11.8834 1.00000
  7.000E+05 7.001E+05 2.040E+00 4.225E+00 6.268E+00 2.164E-01 1.071E+01 1.275E+01 1.338E+05 12.1917 1.00000
  8.000E+05 8.001E+05 2.051E+00 4.879E+00 7.225E+00 2.482E-01 1.235E+01 1.440E+01 1.412E+05 12.4587 1.00000
  9.000E+05 9.001E+05 2.061E+00 5.536E+00 8.186E+00 2.803E-01 1.400E+01 1.606E+01 1.478E+05 12.6942 1.00000
  1.000E+06 1.000E+06 2.070E+00 6.196E+00 9.149E+00 3.127E-01 1.566E+01 1.773E+01 1.537E+05 12.9049 1.00000
  1.200E+06 1.200E+06 2.085E+00 7.525E+00 1.108E+01 3.783E-01 1.899E+01 2.107E+01 1.641E+05 13.2695 1.00000
  1.400E+06 1.400E+06 2.099E+00 8.861E+00 1.302E+01 4.448E-01 2.233E+01 2.443E+01 1.729E+05 13.5778 1.00000
  1.700E+06 1.700E+06 2.115E+00 1.088E+01 1.594E+01 5.461E-01 2.737E+01 2.948E+01 1.842E+05 13.9661 1.00000
  2.000E+06 2.000E+06 2.130E+00 1.291E+01 1.887E+01 6.490E-01 3.242E+01 3.455E+01 1.936E+05 14.2911 1.00000
  2.500E+06 2.500E+06 2.149E+00 1.630E+01 2.376E+01 8.236E-01 4.089E+01 4.304E+01 2.066E+05 14.7374 1.00000
  3.000E+06 3.000E+06 2.165E+00 1.971E+01 2.866E+01 1.002E+00 4.938E+01 5.155E+01 2.173E+05 15.1020 1.00000
  3.500E+06 3.500E+06 2.179E+00 2.314E+01 3.358E+01 1.182E+00 5.790E+01 6.008E+01 2.263E+05 15.4103 1.00000
  4.000E+06 4.000E+06 2.191E+00 2.657E+01 3.849E+01 1.366E+00 6.643E+01 6.862E+01 2.341E+05 15.6773 1.00000
  4.500E+06 4.500E+06 2.201E+00 3.001E+01 4.342E+01 1.551E+00 7.498E+01 7.718E+01 2.410E+05 15.9129 1.00000
  5.000E+06 5.000E+06 2.211E+00 3.346E+01 4.834E+01 1.739E+00 8.354E+01 8.575E+01 2.472E+05 16.1236 1.00000
  5.500E+06 5.500E+06 2.219E+00 3.691E+01 5.327E+01 1.929E+00 9.211E+01 9.433E+01 2.527E+05 16.3142 1.00000
  6.000E+06 6.000E+06 2.227E+00 4.036E+01 5.820E+01 2.120E+00 1.007E+02 1.029E+02 2.578E+05 16.4883 1.00000
  7.000E+06 7.000E+06 2.241E+00 4.729E+01 6.807E+01 2.507E+00 1.179E+02 1.201E+02 2.668E+05 16.7965 1.00000
  8.000E+06 8.000E+06 2.254E+00 5.422E+01 7.795E+01 2.900E+00 1.351E+02 1.373E+02 2.746E+05 17.0636 1.00000
  9.000E+06 9.000E+06 2.265E+00 6.116E+01 8.783E+01 3.299E+00 1.523E+02 1.546E+02 2.815E+05 17.2992 1.00000
  1.000E+07 1.000E+07 2.274E+00 6.810E+01 9.772E+01 3.702E+00 1.695E+02 1.718E+02 2.876E+05 17.5099 1.00000
  1.200E+07 1.200E+07 2.291E+00 8.201E+01 1.175E+02 4.520E+00 2.040E+02 2.063E+02 2.983E+05 17.8745 1.00000
  1.400E+07 1.400E+07 2.306E+00 9.594E+01 1.373E+02 5.353E+00 2.386E+02 2.409E+02 3.073E+05 18.1828 1.00000
  1.700E+07 1.700E+07 2.324E+00 1.169E+02 1.670E+02 6.626E+00 2.905E+02 2.928E+02 3.187E+05 18.5711 1.00000
  2.000E+07 2.000E+07 2.340E+00 1.378E+02 1.967E+02 7.923E+00 3.424E+02 3.448E+02 3.281E+05 18.8962 1.00000
  2.500E+07 2.500E+07 2.362E+00 1.727E+02 2.463E+02 1.013E+01 4.291E+02 4.314E+02 3.412E+05 19.3425 1.00000
  3.000E+07 3.000E+07 2.379E+00 2.076E+02 2.958E+02 1.239E+01 5.158E+02 5.182E+02 3.518E+05 19.7071 1.00000
  3.500E+07 3.500E+07 2.395E+00 2.426E+02 3.454E+02 1.469E+01 6.027E+02 6.051E+02 3.608E+05 20.0154 1.00000
  4.000E+07 4.000E+07 2.408E+00 2.776E+02 3.949E+02 1.702E+01 6.896E+02 6.920E+02 3.685E+05 20.2825 1.00000
  4.500E+07 4.500E+07 2.420E+00 3.126E+02 4.445E+02 1.939E+01 7.765E+02 7.789E+02 3.753E+05 20.5180 1.00000
  5.000E+07 5.000E+07 2.430E+00 3.476E+02 4.941E+02 2.179E+01 8.635E+02 8.659E+02 3.814E+05 20.7287 1.00000
  5.500E+07 5.500E+07 2.440E+00 3.826E+02 5.437E+02 2.421E+01 9.505E+02 9.529E+02 3.869E+05 20.9194 1.00000
  6.000E+07 6.000E+07 2.448E+00 4.176E+02 5.933E+02 2.666E+01 1.038E+03 1.040E+03 3.920E+05 21.0934 1.00000
  7.000E+07 7.000E+07 2.464E+00 4.876E+02 6.925E+02 3.162E+01 1.212E+03 1.214E+03 4.009E+05 21.4017 1.00000
  8.000E+07 8.000E+07 2.478E+00 5.577E+02 7.916E+02 3.667E+01 1.386E+03 1.388E+03 4.086E+05 21.6688 1.00000
  9.000E+07 9.000E+07 2.490E+00 6.277E+02 8.908E+02 4.179E+01 1.560E+03 1.563E+03 4.154E+05 21.9043 1.00000
  1.000E+08 1.000E+08 2.501E+00 6.978E+02 9.900E+02 4.697E+01 1.735E+03 1.737E+03 4.215E+05 22.1150 1.00000
  1.200E+08 1.200E+08 2.520E+00 8.380E+02 1.188E+03 5.750E+01 2.084E+03 2.086E+03 4.320E+05 22.4797 1.00000
  1.400E+08 1.400E+08 2.536E+00 9.781E+02 1.387E+03 6.824E+01 2.433E+03 2.436E+03 4.409E+05 22.7880 1.00000
  1.700E+08 1.700E+08 2.557E+00 1.188E+03 1.684E+03 8.466E+01 2.958E+03 2.960E+03 4.522E+05 23.1763 1.00000
  2.000E+08 2.000E+08 2.574E+00 1.399E+03 1.982E+03 1.014E+02 3.482E+03 3.485E+03 4.615E+05 23.5013 1.00000
  2.500E+08 2.500E+08 2.598E+00 1.749E+03 2.478E+03 1.300E+02 4.357E+03 4.360E+03 4.744E+05 23.9476 1.00000
  3.000E+08 3.000E+08 2.618E+00 2.100E+03 2.974E+03 1.592E+02 5.233E+03 5.236E+03 4.849E+05 24.3123 1.00000
  3.500E+08 3.500E+08 2.635E+00 2.450E+03 3.470E+03 1.891E+02 6.110E+03 6.112E+03 4.938E+05 24.6206 1.00000
  4.000E+08 4.000E+08 2.650E+00 2.801E+03 3.966E+03 2.194E+02 6.987E+03 6.989E+03 5.015E+05 24.8876 1.00000
  4.500E+08 4.500E+08 2.663E+00 3.152E+03 4.462E+03 2.501E+02 7.864E+03 7.867E+03 5.082E+05 25.1232 1.00000
  5.000E+08 5.000E+08 2.674E+00 3.502E+03 4.958E+03 2.813E+02 8.742E+03 8.745E+03 5.143E+05 25.3339 1.00000
  5.500E+08 5.500E+08 2.685E+00 3.853E+03 5.454E+03 3.128E+02 9.620E+03 9.623E+03 5.197E+05 25.5245 1.00000
  6.000E+08 6.000E+08 2.695E+00 4.203E+03 5.951E+03 3.447E+02 1.050E+04 1.050E+04 5.247E+05 25.6986 1.00000
  7.000E+08 7.000E+08 2.712E+00 4.905E+03 6.943E+03 4.094E+02 1.226E+04 1.226E+04 5.335E+05 26.0069 1.00000
  8.000E+08 8.000E+08 2.728E+00 5.606E+03 7.935E+03 4.751E+02 1.402E+04 1.402E+04 5.412E+05 26.2739 1.00000
  9.000E+08 9.000E+08 2.741E+00 6.307E+03 8.927E+03 5.419E+02 1.578E+04 1.578E+04 5.479E+05 26.5095 1.00000
  1.000E+09 1.000E+09 2.753E+00 7.009E+03 9.919E+03 6.095E+02 1.754E+04 1.754E+04 5.539E+05 26.7202 1.00000
