 Incident particle is a Muon with M = 105.65839 MeV
 Index = 0: Holmium
      Absorber with <Z/A> = 0.40623
 Sternheimer coef:  a     k=m_s   x_0    x_1    I[eV]   Cbar  delta0
                 0.2464  2.5726  0.0761  3.4782  650.0  5.9587 0.14

 *** Table generated with PUMAS v1.00 ***

      T         p     Ionization  brems     pair     photonuc  Radloss    dE/dx   CSDA Range  delta   beta
    [MeV]    [MeV/c]  -----------------------[MeV cm^2/g]------------------------  [g/cm^2]
  1.000E+00 1.457E+01 2.255E+01 4.748E-06 0.000E+00 0.000E+00 4.748E-06 2.255E+01 2.217E-02  0.0019 0.13661
  1.200E+00 1.597E+01 1.985E+01 5.453E-06 0.000E+00 0.000E+00 5.453E-06 1.985E+01 3.165E-02  0.0023 0.14944
  1.400E+00 1.726E+01 1.778E+01 6.122E-06 0.000E+00 0.000E+00 6.122E-06 1.778E+01 4.231E-02  0.0026 0.16119
  1.700E+00 1.903E+01 1.546E+01 7.067E-06 0.000E+00 0.000E+00 7.067E-06 1.546E+01 6.045E-02  0.0032 0.17725
  2.000E+00 2.066E+01 1.373E+01 7.954E-06 0.000E+00 0.000E+00 7.954E-06 1.373E+01 8.107E-02  0.0038 0.19186
  2.500E+00 2.312E+01 1.165E+01 9.329E-06 0.000E+00 0.000E+00 9.329E-06 1.165E+01 1.207E-01  0.0047 0.21376
  3.000E+00 2.536E+01 1.018E+01 1.060E-05 0.000E+00 0.000E+00 1.060E-05 1.018E+01 1.667E-01  0.0057 0.23336
  3.500E+00 2.742E+01 9.076E+00 1.179E-05 0.000E+00 0.000E+00 1.179E-05 9.076E+00 2.188E-01  0.0066 0.25120
  4.000E+00 2.935E+01 8.217E+00 1.290E-05 0.000E+00 0.000E+00 1.290E-05 8.217E+00 2.768E-01  0.0076 0.26763
  4.500E+00 3.116E+01 7.527E+00 1.396E-05 0.000E+00 0.000E+00 1.396E-05 7.527E+00 3.405E-01  0.0086 0.28290
  5.000E+00 3.289E+01 6.960E+00 1.496E-05 0.000E+00 0.000E+00 1.496E-05 6.960E+00 4.096E-01  0.0096 0.29720
  5.500E+00 3.453E+01 6.485E+00 1.592E-05 0.000E+00 0.000E+00 1.592E-05 6.485E+00 4.841E-01  0.0105 0.31066
  6.000E+00 3.611E+01 6.080E+00 1.684E-05 0.000E+00 0.000E+00 1.684E-05 6.080E+00 5.637E-01  0.0115 0.32339
  7.000E+00 3.909E+01 5.428E+00 1.858E-05 0.000E+00 0.000E+00 1.858E-05 5.428E+00 7.381E-01  0.0135 0.34700
  8.000E+00 4.189E+01 4.924E+00 2.020E-05 0.000E+00 0.000E+00 2.020E-05 4.924E+00 9.317E-01  0.0155 0.36854
  9.000E+00 4.453E+01 4.522E+00 2.172E-05 0.000E+00 0.000E+00 2.172E-05 4.522E+00 1.144E+00  0.0175 0.38836
  1.000E+01 4.704E+01 4.193E+00 2.317E-05 0.000E+00 0.000E+00 2.317E-05 4.193E+00 1.374E+00  0.0195 0.40675
  1.200E+01 5.177E+01 3.688E+00 2.586E-05 0.000E+00 0.000E+00 2.586E-05 3.688E+00 1.883E+00  0.0237 0.43998
  1.400E+01 5.616E+01 3.316E+00 2.834E-05 0.000E+00 0.000E+00 2.834E-05 3.316E+00 2.456E+00  0.0279 0.46937
  1.700E+01 6.230E+01 2.912E+00 3.178E-05 0.000E+00 0.000E+00 3.178E-05 2.912E+00 3.423E+00  0.0343 0.50792
  2.000E+01 6.802E+01 2.623E+00 3.497E-05 0.000E+00 0.000E+00 3.497E-05 2.623E+00 4.510E+00  0.0409 0.54129
  2.500E+01 7.686E+01 2.287E+00 3.990E-05 0.000E+00 0.000E+00 3.990E-05 2.287E+00 6.556E+00  0.0522 0.58827
  3.000E+01 8.509E+01 2.060E+00 4.452E-05 0.000E+00 0.000E+00 4.452E-05 2.060E+00 8.863E+00  0.0639 0.62720
  3.500E+01 9.285E+01 1.896E+00 4.894E-05 0.000E+00 0.000E+00 4.894E-05 1.896E+00 1.140E+01  0.0762 0.66011
  4.000E+01 1.003E+02 1.772E+00 5.324E-05 0.000E+00 0.000E+00 5.324E-05 1.772E+00 1.412E+01  0.0888 0.68834
  4.500E+01 1.074E+02 1.676E+00 5.747E-05 0.000E+00 0.000E+00 5.747E-05 1.676E+00 1.703E+01  0.1019 0.71286
  5.000E+01 1.143E+02 1.599E+00 6.165E-05 0.000E+00 0.000E+00 6.165E-05 1.599E+00 2.008E+01  0.1154 0.73434
  5.500E+01 1.210E+02 1.537E+00 6.582E-05 0.000E+00 0.000E+00 6.582E-05 1.537E+00 2.327E+01  0.1294 0.75332
  6.000E+01 1.276E+02 1.486E+00 6.999E-05 0.000E+00 0.000E+00 6.999E-05 1.486E+00 2.658E+01  0.1426 0.77019
  7.000E+01 1.403E+02 1.408E+00 7.836E-05 0.000E+00 0.000E+00 7.836E-05 1.408E+00 3.349E+01  0.1554 0.79887
  8.000E+01 1.527E+02 1.352E+00 8.685E-05 0.000E+00 0.000E+00 8.685E-05 1.352E+00 4.074E+01  0.1696 0.82227
  9.000E+01 1.647E+02 1.310E+00 9.548E-05 0.000E+00 0.000E+00 9.548E-05 1.310E+00 4.826E+01  0.1847 0.84166
  1.000E+02 1.764E+02 1.278E+00 1.043E-04 0.000E+00 0.000E+00 1.043E-04 1.278E+00 5.599E+01  0.2002 0.85794
  1.200E+02 1.994E+02 1.234E+00 1.224E-04 0.000E+00 0.000E+00 1.224E-04 1.234E+00 7.191E+01  0.2321 0.88361
  1.400E+02 2.218E+02 1.207E+00 1.413E-04 0.000E+00 0.000E+00 1.413E-04 1.207E+00 8.829E+01  0.2643 0.90278
  1.700E+02 2.546E+02 1.185E+00 1.710E-04 0.000E+00 0.000E+00 1.710E-04 1.185E+00 1.134E+02  0.3122 0.92363
  2.000E+02 2.868E+02 1.174E+00 2.023E-04 0.000E+00 0.000E+00 2.023E-04 1.174E+00 1.388E+02  0.3591 0.93835
  2.500E+02 3.396E+02 1.171E+00 2.580E-04 0.000E+00 0.000E+00 2.580E-04 1.171E+00 1.815E+02  0.4341 0.95485
  3.000E+02 3.917E+02 1.175E+00 3.176E-04 0.000E+00 0.000E+00 3.176E-04 1.176E+00 2.241E+02  0.5053 0.96548
  3.500E+02 4.432E+02 1.184E+00 3.808E-04 0.000E+00 0.000E+00 3.808E-04 1.185E+00 2.664E+02  0.5728 0.97274
  4.000E+02 4.945E+02 1.195E+00 4.474E-04 0.000E+00 0.000E+00 4.474E-04 1.195E+00 3.085E+02  0.6368 0.97793
  4.500E+02 5.455E+02 1.206E+00 5.170E-04 3.696E-05 0.000E+00 5.540E-04 1.206E+00 3.501E+02  0.6977 0.98176
  5.000E+02 5.964E+02 1.217E+00 5.895E-04 6.615E-05 0.000E+00 6.557E-04 1.218E+00 3.914E+02  0.7558 0.98467
  5.500E+02 6.471E+02 1.228E+00 6.647E-04 9.348E-05 0.000E+00 7.582E-04 1.229E+00 4.322E+02  0.8114 0.98693
  6.000E+02 6.977E+02 1.239E+00 7.424E-04 1.241E-04 0.000E+00 8.665E-04 1.240E+00 4.728E+02  0.8646 0.98873
  7.000E+02 7.987E+02 1.259E+00 9.047E-04 1.967E-04 0.000E+00 1.101E-03 1.260E+00 5.528E+02  0.9648 0.99136
  8.000E+02 8.995E+02 1.278E+00 1.075E-03 2.838E-04 0.000E+00 1.359E-03 1.279E+00 6.315E+02  1.0578 0.99317
  9.000E+02 1.000E+03 1.296E+00 1.254E-03 3.843E-04 0.000E+00 1.638E-03 1.297E+00 7.091E+02  1.1445 0.99447
  1.000E+03 1.101E+03 1.312E+00 1.439E-03 4.976E-04 0.000E+00 1.937E-03 1.313E+00 7.858E+02  1.2260 0.99542
  1.200E+03 1.301E+03 1.340E+00 1.829E-03 7.593E-04 2.246E-05 2.611E-03 1.343E+00 9.364E+02  1.3755 0.99672
  1.400E+03 1.502E+03 1.365E+00 2.242E-03 1.064E-03 6.090E-05 3.367E-03 1.368E+00 1.084E+03  1.5102 0.99753
  1.700E+03 1.803E+03 1.396E+00 2.897E-03 1.592E-03 1.290E-04 4.618E-03 1.401E+00 1.301E+03  1.6908 0.99829
  2.000E+03 2.103E+03 1.422E+00 3.590E-03 2.195E-03 2.082E-04 5.994E-03 1.428E+00 1.513E+03  1.8511 0.99874
  2.500E+03 2.604E+03 1.458E+00 4.816E-03 3.347E-03 3.592E-04 8.522E-03 1.467E+00 1.858E+03  2.0847 0.99918
  3.000E+03 3.104E+03 1.488E+00 6.117E-03 4.654E-03 5.155E-04 1.129E-02 1.499E+00 2.196E+03  2.2868 0.99942
  3.500E+03 3.604E+03 1.512E+00 7.482E-03 6.094E-03 6.794E-04 1.426E-02 1.526E+00 2.526E+03  2.4654 0.99957
  4.000E+03 4.104E+03 1.533E+00 8.902E-03 7.661E-03 8.531E-04 1.742E-02 1.550E+00 2.851E+03  2.6258 0.99967
  4.500E+03 4.604E+03 1.551E+00 1.037E-02 9.336E-03 1.033E-03 2.074E-02 1.572E+00 3.171E+03  2.7715 0.99974
  5.000E+03 5.105E+03 1.567E+00 1.188E-02 1.111E-02 1.204E-03 2.419E-02 1.591E+00 3.488E+03  2.9051 0.99979
  5.500E+03 5.605E+03 1.582E+00 1.343E-02 1.296E-02 1.388E-03 2.778E-02 1.609E+00 3.800E+03  3.0287 0.99982
  6.000E+03 6.105E+03 1.595E+00 1.502E-02 1.489E-02 1.559E-03 3.147E-02 1.626E+00 4.109E+03  3.1436 0.99985
  7.000E+03 7.105E+03 1.617E+00 1.829E-02 1.896E-02 1.920E-03 3.918E-02 1.656E+00 4.719E+03  3.3523 0.99989
  8.000E+03 8.105E+03 1.636E+00 2.167E-02 2.328E-02 2.277E-03 4.723E-02 1.683E+00 5.317E+03  3.5381 0.99992
  9.000E+03 9.105E+03 1.653E+00 2.516E-02 2.781E-02 2.610E-03 5.558E-02 1.708E+00 5.907E+03  3.7058 0.99993
  1.000E+04 1.011E+04 1.667E+00 2.873E-02 3.254E-02 2.954E-03 6.422E-02 1.732E+00 6.489E+03  3.8588 0.99995
  1.200E+04 1.211E+04 1.692E+00 3.610E-02 4.247E-02 3.646E-03 8.221E-02 1.774E+00 7.630E+03  4.1300 0.99996
  1.400E+04 1.411E+04 1.712E+00 4.373E-02 5.296E-02 4.337E-03 1.010E-01 1.813E+00 8.745E+03  4.3655 0.99997
  1.700E+04 1.711E+04 1.737E+00 5.559E-02 6.956E-02 5.356E-03 1.305E-01 1.867E+00 1.038E+04  4.6699 0.99998
  2.000E+04 2.011E+04 1.757E+00 6.786E-02 8.701E-02 6.350E-03 1.612E-01 1.918E+00 1.196E+04  4.9312 0.99999
  2.500E+04 2.511E+04 1.783E+00 8.905E-02 1.176E-01 7.976E-03 2.146E-01 1.998E+00 1.452E+04  5.2991 0.99999
  3.000E+04 3.011E+04 1.804E+00 1.110E-01 1.497E-01 9.564E-03 2.703E-01 2.074E+00 1.697E+04  5.6073 0.99999
  3.500E+04 3.511E+04 1.821E+00 1.336E-01 1.830E-01 1.116E-02 3.277E-01 2.148E+00 1.934E+04  5.8730 1.00000
  4.000E+04 4.011E+04 1.835E+00 1.567E-01 2.172E-01 1.274E-02 3.866E-01 2.221E+00 2.163E+04  6.1067 1.00000
  4.500E+04 4.511E+04 1.847E+00 1.802E-01 2.523E-01 1.429E-02 4.468E-01 2.294E+00 2.385E+04  6.3156 1.00000
  5.000E+04 5.011E+04 1.858E+00 2.041E-01 2.881E-01 1.584E-02 5.080E-01 2.366E+00 2.599E+04  6.5044 1.00000
  5.500E+04 5.511E+04 1.868E+00 2.284E-01 3.245E-01 1.740E-02 5.702E-01 2.438E+00 2.808E+04  6.6769 1.00000
  6.000E+04 6.011E+04 1.876E+00 2.530E-01 3.614E-01 1.894E-02 6.333E-01 2.509E+00 3.010E+04  6.8356 1.00000
  7.000E+04 7.011E+04 1.891E+00 3.029E-01 4.366E-01 2.199E-02 7.615E-01 2.653E+00 3.397E+04  7.1198 1.00000
  8.000E+04 8.011E+04 1.904E+00 3.538E-01 5.134E-01 2.504E-02 8.922E-01 2.796E+00 3.765E+04  7.3688 1.00000
  9.000E+04 9.011E+04 1.915E+00 4.055E-01 5.914E-01 2.809E-02 1.025E+00 2.940E+00 4.114E+04  7.5906 1.00000
  1.000E+05 1.001E+05 1.924E+00 4.579E-01 6.705E-01 3.107E-02 1.159E+00 3.084E+00 4.446E+04  7.7906 1.00000
  1.200E+05 1.201E+05 1.941E+00 5.644E-01 8.312E-01 3.715E-02 1.433E+00 3.374E+00 5.067E+04  8.1400 1.00000
  1.400E+05 1.401E+05 1.954E+00 6.729E-01 9.948E-01 4.321E-02 1.711E+00 3.665E+00 5.636E+04  8.4384 1.00000
  1.700E+05 1.701E+05 1.971E+00 8.385E-01 1.244E+00 5.229E-02 2.135E+00 4.106E+00 6.410E+04  8.8178 1.00000
  2.000E+05 2.001E+05 1.985E+00 1.007E+00 1.497E+00 6.141E-02 2.566E+00 4.551E+00 7.105E+04  9.1380 1.00000
  2.500E+05 2.501E+05 2.004E+00 1.293E+00 1.925E+00 7.663E-02 3.294E+00 5.298E+00 8.127E+04  9.5809 1.00000
  3.000E+05 3.001E+05 2.019E+00 1.583E+00 2.359E+00 9.195E-02 4.033E+00 6.052E+00 9.012E+04  9.9447 1.00000
  3.500E+05 3.501E+05 2.032E+00 1.877E+00 2.796E+00 1.074E-01 4.781E+00 6.812E+00 9.792E+04 10.2529 1.00000
  4.000E+05 4.001E+05 2.043E+00 2.174E+00 3.237E+00 1.230E-01 5.534E+00 7.577E+00 1.049E+05 10.5198 1.00000
  4.500E+05 4.501E+05 2.053E+00 2.473E+00 3.681E+00 1.386E-01 6.292E+00 8.345E+00 1.112E+05 10.7554 1.00000
  5.000E+05 5.001E+05 2.061E+00 2.775E+00 4.126E+00 1.544E-01 7.055E+00 9.117E+00 1.169E+05 10.9660 1.00000
  5.500E+05 5.501E+05 2.069E+00 3.078E+00 4.574E+00 1.700E-01 7.822E+00 9.891E+00 1.222E+05 11.1566 1.00000
  6.000E+05 6.001E+05 2.077E+00 3.383E+00 5.022E+00 1.857E-01 8.591E+00 1.067E+01 1.271E+05 11.3306 1.00000
  7.000E+05 7.001E+05 2.090E+00 3.997E+00 5.924E+00 2.174E-01 1.014E+01 1.223E+01 1.358E+05 11.6389 1.00000
  8.000E+05 8.001E+05 2.101E+00 4.615E+00 6.829E+00 2.493E-01 1.169E+01 1.379E+01 1.435E+05 11.9059 1.00000
  9.000E+05 9.001E+05 2.111E+00 5.237E+00 7.738E+00 2.816E-01 1.326E+01 1.537E+01 1.504E+05 12.1414 1.00000
  1.000E+06 1.000E+06 2.120E+00 5.862E+00 8.649E+00 3.142E-01 1.483E+01 1.694E+01 1.566E+05 12.3521 1.00000
  1.200E+06 1.200E+06 2.135E+00 7.119E+00 1.048E+01 3.801E-01 1.798E+01 2.011E+01 1.675E+05 12.7167 1.00000
  1.400E+06 1.400E+06 2.149E+00 8.384E+00 1.231E+01 4.470E-01 2.114E+01 2.329E+01 1.768E+05 13.0250 1.00000
  1.700E+06 1.700E+06 2.165E+00 1.029E+01 1.507E+01 5.488E-01 2.592E+01 2.808E+01 1.886E+05 13.4133 1.00000
  2.000E+06 2.000E+06 2.180E+00 1.221E+01 1.784E+01 6.522E-01 3.071E+01 3.289E+01 1.985E+05 13.7383 1.00000
  2.500E+06 2.500E+06 2.199E+00 1.543E+01 2.247E+01 8.276E-01 3.873E+01 4.092E+01 2.122E+05 14.1846 1.00000
  3.000E+06 3.000E+06 2.215E+00 1.866E+01 2.711E+01 1.006E+00 4.677E+01 4.899E+01 2.234E+05 14.5492 1.00000
  3.500E+06 3.500E+06 2.229E+00 2.190E+01 3.176E+01 1.188E+00 5.484E+01 5.707E+01 2.329E+05 14.8575 1.00000
  4.000E+06 4.000E+06 2.241E+00 2.515E+01 3.641E+01 1.372E+00 6.293E+01 6.517E+01 2.411E+05 15.1245 1.00000
  4.500E+06 4.500E+06 2.251E+00 2.841E+01 4.106E+01 1.559E+00 7.103E+01 7.328E+01 2.483E+05 15.3601 1.00000
  5.000E+06 5.000E+06 2.261E+00 3.167E+01 4.572E+01 1.747E+00 7.914E+01 8.140E+01 2.548E+05 15.5708 1.00000
  5.500E+06 5.500E+06 2.269E+00 3.494E+01 5.039E+01 1.938E+00 8.726E+01 8.953E+01 2.607E+05 15.7614 1.00000
  6.000E+06 6.000E+06 2.277E+00 3.821E+01 5.505E+01 2.130E+00 9.539E+01 9.767E+01 2.660E+05 15.9355 1.00000
  7.000E+06 7.000E+06 2.292E+00 4.476E+01 6.439E+01 2.520E+00 1.117E+02 1.140E+02 2.755E+05 16.2437 1.00000
  8.000E+06 8.000E+06 2.304E+00 5.132E+01 7.374E+01 2.915E+00 1.280E+02 1.303E+02 2.838E+05 16.5108 1.00000
  9.000E+06 9.000E+06 2.315E+00 5.789E+01 8.309E+01 3.315E+00 1.443E+02 1.466E+02 2.910E+05 16.7464 1.00000
  1.000E+07 1.000E+07 2.325E+00 6.447E+01 9.244E+01 3.720E+00 1.606E+02 1.630E+02 2.975E+05 16.9571 1.00000
  1.200E+07 1.200E+07 2.342E+00 7.764E+01 1.112E+02 4.542E+00 1.933E+02 1.957E+02 3.087E+05 17.3217 1.00000
  1.400E+07 1.400E+07 2.356E+00 9.083E+01 1.299E+02 5.379E+00 2.261E+02 2.284E+02 3.182E+05 17.6300 1.00000
  1.700E+07 1.700E+07 2.375E+00 1.106E+02 1.580E+02 6.658E+00 2.753E+02 2.777E+02 3.302E+05 18.0183 1.00000
  2.000E+07 2.000E+07 2.390E+00 1.305E+02 1.861E+02 7.962E+00 3.245E+02 3.269E+02 3.402E+05 18.3434 1.00000
  2.500E+07 2.500E+07 2.412E+00 1.635E+02 2.330E+02 1.018E+01 4.067E+02 4.091E+02 3.539E+05 18.7897 1.00000
  3.000E+07 3.000E+07 2.430E+00 1.966E+02 2.799E+02 1.245E+01 4.889E+02 4.913E+02 3.651E+05 19.1543 1.00000
  3.500E+07 3.500E+07 2.445E+00 2.297E+02 3.267E+02 1.476E+01 5.712E+02 5.737E+02 3.746E+05 19.4626 1.00000
  4.000E+07 4.000E+07 2.458E+00 2.628E+02 3.737E+02 1.711E+01 6.536E+02 6.561E+02 3.827E+05 19.7297 1.00000
  4.500E+07 4.500E+07 2.470E+00 2.960E+02 4.206E+02 1.949E+01 7.360E+02 7.385E+02 3.899E+05 19.9652 1.00000
  5.000E+07 5.000E+07 2.480E+00 3.291E+02 4.675E+02 2.190E+01 8.185E+02 8.210E+02 3.964E+05 20.1759 1.00000
  5.500E+07 5.500E+07 2.490E+00 3.623E+02 5.144E+02 2.433E+01 9.010E+02 9.035E+02 4.022E+05 20.3666 1.00000
  6.000E+07 6.000E+07 2.499E+00 3.954E+02 5.613E+02 2.679E+01 9.835E+02 9.860E+02 4.075E+05 20.5406 1.00000
  7.000E+07 7.000E+07 2.514E+00 4.617E+02 6.551E+02 3.178E+01 1.149E+03 1.151E+03 4.169E+05 20.8489 1.00000
  8.000E+07 8.000E+07 2.528E+00 5.281E+02 7.490E+02 3.685E+01 1.314E+03 1.316E+03 4.250E+05 21.1160 1.00000
  9.000E+07 9.000E+07 2.540E+00 5.944E+02 8.428E+02 4.199E+01 1.479E+03 1.482E+03 4.322E+05 21.3515 1.00000
  1.000E+08 1.000E+08 2.551E+00 6.608E+02 9.367E+02 4.720E+01 1.645E+03 1.647E+03 4.386E+05 21.5622 1.00000
  1.200E+08 1.200E+08 2.570E+00 7.935E+02 1.124E+03 5.779E+01 1.976E+03 1.978E+03 4.498E+05 21.9269 1.00000
  1.400E+08 1.400E+08 2.586E+00 9.262E+02 1.312E+03 6.857E+01 2.307E+03 2.310E+03 4.591E+05 22.2352 1.00000
  1.700E+08 1.700E+08 2.607E+00 1.125E+03 1.594E+03 8.508E+01 2.804E+03 2.807E+03 4.710E+05 22.6235 1.00000
  2.000E+08 2.000E+08 2.624E+00 1.325E+03 1.875E+03 1.019E+02 3.302E+03 3.304E+03 4.809E+05 22.9485 1.00000
  2.500E+08 2.500E+08 2.648E+00 1.657E+03 2.345E+03 1.306E+02 4.132E+03 4.135E+03 4.945E+05 23.3948 1.00000
  3.000E+08 3.000E+08 2.668E+00 1.988E+03 2.814E+03 1.600E+02 4.963E+03 4.965E+03 5.056E+05 23.7595 1.00000
  3.500E+08 3.500E+08 2.685E+00 2.321E+03 3.283E+03 1.900E+02 5.794E+03 5.797E+03 5.149E+05 24.0678 1.00000
  4.000E+08 4.000E+08 2.700E+00 2.653E+03 3.753E+03 2.205E+02 6.626E+03 6.628E+03 5.230E+05 24.3348 1.00000
  4.500E+08 4.500E+08 2.713E+00 2.985E+03 4.222E+03 2.514E+02 7.458E+03 7.461E+03 5.301E+05 24.5704 1.00000
  5.000E+08 5.000E+08 2.725E+00 3.317E+03 4.691E+03 2.827E+02 8.291E+03 8.293E+03 5.365E+05 24.7811 1.00000
  5.500E+08 5.500E+08 2.735E+00 3.649E+03 5.161E+03 3.144E+02 9.124E+03 9.127E+03 5.422E+05 24.9717 1.00000
  6.000E+08 6.000E+08 2.745E+00 3.981E+03 5.630E+03 3.464E+02 9.957E+03 9.960E+03 5.475E+05 25.1458 1.00000
  7.000E+08 7.000E+08 2.763E+00 4.645E+03 6.569E+03 4.114E+02 1.162E+04 1.163E+04 5.568E+05 25.4541 1.00000
  8.000E+08 8.000E+08 2.778E+00 5.309E+03 7.507E+03 4.775E+02 1.329E+04 1.330E+04 5.649E+05 25.7211 1.00000
  9.000E+08 9.000E+08 2.792E+00 5.973E+03 8.446E+03 5.446E+02 1.496E+04 1.497E+04 5.720E+05 25.9567 1.00000
  1.000E+09 1.000E+09 2.804E+00 6.637E+03 9.385E+03 6.126E+02 1.663E+04 1.664E+04 5.783E+05 26.1674 1.00000
