 Incident particle is a Muon with M = 105.65839 MeV
 Index = 0: Indium
      Absorber with <Z/A> = 0.42676
 Sternheimer coef:  a     k=m_s   x_0    x_1    I[eV]   Cbar  delta0
                 0.2388  2.7144  0.2406  3.2032  488.0  5.5211 0.14

 *** Table generated with PUMAS v1.00 ***

      T         p     Ionization  brems     pair     photonuc  Radloss    dE/dx   CSDA Range  delta   beta
    [MeV]    [MeV/c]  -----------------------[MeV cm^2/g]------------------------  [g/cm^2]
  1.000E+00 1.457E+01 2.570E+01 3.750E-06 0.000E+00 0.000E+00 3.750E-06 2.570E+01 1.945E-02  0.0009 0.13661
  1.200E+00 1.597E+01 2.253E+01 4.309E-06 0.000E+00 0.000E+00 4.309E-06 2.253E+01 2.778E-02  0.0011 0.14944
  1.400E+00 1.726E+01 2.013E+01 4.839E-06 0.000E+00 0.000E+00 4.839E-06 2.013E+01 3.719E-02  0.0012 0.16119
  1.700E+00 1.903E+01 1.744E+01 5.590E-06 0.000E+00 0.000E+00 5.590E-06 1.744E+01 5.324E-02  0.0015 0.17725
  2.000E+00 2.066E+01 1.545E+01 6.296E-06 0.000E+00 0.000E+00 6.296E-06 1.545E+01 7.154E-02  0.0018 0.19186
  2.500E+00 2.312E+01 1.307E+01 7.393E-06 0.000E+00 0.000E+00 7.393E-06 1.307E+01 1.069E-01  0.0022 0.21376
  3.000E+00 2.536E+01 1.139E+01 8.409E-06 0.000E+00 0.000E+00 8.409E-06 1.139E+01 1.479E-01  0.0027 0.23336
  3.500E+00 2.742E+01 1.013E+01 9.358E-06 0.000E+00 0.000E+00 9.358E-06 1.013E+01 1.946E-01  0.0031 0.25120
  4.000E+00 2.935E+01 9.160E+00 1.025E-05 0.000E+00 0.000E+00 1.025E-05 9.160E+00 2.465E-01  0.0036 0.26763
  4.500E+00 3.116E+01 8.381E+00 1.110E-05 0.000E+00 0.000E+00 1.110E-05 8.381E+00 3.036E-01  0.0040 0.28290
  5.000E+00 3.289E+01 7.741E+00 1.191E-05 0.000E+00 0.000E+00 1.191E-05 7.741E+00 3.658E-01  0.0045 0.29720
  5.500E+00 3.453E+01 7.205E+00 1.268E-05 0.000E+00 0.000E+00 1.268E-05 7.205E+00 4.328E-01  0.0049 0.31066
  6.000E+00 3.611E+01 6.751E+00 1.342E-05 0.000E+00 0.000E+00 1.342E-05 6.751E+00 5.045E-01  0.0054 0.32339
  7.000E+00 3.909E+01 6.018E+00 1.482E-05 0.000E+00 0.000E+00 1.482E-05 6.018E+00 6.616E-01  0.0063 0.34700
  8.000E+00 4.189E+01 5.453E+00 1.613E-05 0.000E+00 0.000E+00 1.613E-05 5.453E+00 8.364E-01  0.0073 0.36854
  9.000E+00 4.453E+01 5.004E+00 1.736E-05 0.000E+00 0.000E+00 1.736E-05 5.004E+00 1.028E+00  0.0082 0.38836
  1.000E+01 4.704E+01 4.636E+00 1.853E-05 0.000E+00 0.000E+00 1.853E-05 4.636E+00 1.236E+00  0.0092 0.40675
  1.200E+01 5.177E+01 4.072E+00 2.072E-05 0.000E+00 0.000E+00 2.072E-05 4.072E+00 1.697E+00  0.0111 0.43998
  1.400E+01 5.616E+01 3.659E+00 2.273E-05 0.000E+00 0.000E+00 2.273E-05 3.659E+00 2.216E+00  0.0131 0.46937
  1.700E+01 6.230E+01 3.210E+00 2.553E-05 0.000E+00 0.000E+00 2.553E-05 3.210E+00 3.093E+00  0.0161 0.50792
  2.000E+01 6.802E+01 2.888E+00 2.812E-05 0.000E+00 0.000E+00 2.812E-05 2.888E+00 4.080E+00  0.0192 0.54129
  2.500E+01 7.686E+01 2.517E+00 3.213E-05 0.000E+00 0.000E+00 3.213E-05 2.517E+00 5.939E+00  0.0245 0.58827
  3.000E+01 8.509E+01 2.265E+00 3.589E-05 0.000E+00 0.000E+00 3.589E-05 2.265E+00 8.036E+00  0.0300 0.62720
  3.500E+01 9.285E+01 2.084E+00 3.948E-05 0.000E+00 0.000E+00 3.948E-05 2.084E+00 1.034E+01  0.0357 0.66011
  4.000E+01 1.003E+02 1.947E+00 4.297E-05 0.000E+00 0.000E+00 4.297E-05 1.947E+00 1.282E+01  0.0416 0.68834
  4.500E+01 1.074E+02 1.842E+00 4.641E-05 0.000E+00 0.000E+00 4.641E-05 1.842E+00 1.546E+01  0.0478 0.71286
  5.000E+01 1.143E+02 1.757E+00 4.980E-05 0.000E+00 0.000E+00 4.980E-05 1.757E+00 1.824E+01  0.0541 0.73434
  5.500E+01 1.210E+02 1.689E+00 5.318E-05 0.000E+00 0.000E+00 5.318E-05 1.689E+00 2.115E+01  0.0607 0.75332
  6.000E+01 1.276E+02 1.633E+00 5.656E-05 0.000E+00 0.000E+00 5.656E-05 1.633E+00 2.416E+01  0.0674 0.77019
  7.000E+01 1.403E+02 1.546E+00 6.334E-05 0.000E+00 0.000E+00 6.334E-05 1.546E+00 3.045E+01  0.0815 0.79887
  8.000E+01 1.527E+02 1.483E+00 7.020E-05 0.000E+00 0.000E+00 7.020E-05 1.483E+00 3.706E+01  0.0965 0.82227
  9.000E+01 1.647E+02 1.436E+00 7.718E-05 0.000E+00 0.000E+00 7.718E-05 1.436E+00 4.391E+01  0.1123 0.84166
  1.000E+02 1.764E+02 1.400E+00 8.428E-05 0.000E+00 0.000E+00 8.428E-05 1.400E+00 5.097E+01  0.1289 0.85794
  1.200E+02 1.994E+02 1.351E+00 9.891E-05 0.000E+00 0.000E+00 9.891E-05 1.351E+00 6.551E+01  0.1571 0.88361
  1.400E+02 2.218E+02 1.321E+00 1.141E-04 0.000E+00 0.000E+00 1.141E-04 1.321E+00 8.048E+01  0.1836 0.90278
  1.700E+02 2.546E+02 1.295E+00 1.381E-04 0.000E+00 0.000E+00 1.381E-04 1.295E+00 1.034E+02  0.2255 0.92363
  2.000E+02 2.868E+02 1.283E+00 1.633E-04 0.000E+00 0.000E+00 1.633E-04 1.283E+00 1.267E+02  0.2683 0.93835
  2.500E+02 3.396E+02 1.278E+00 2.080E-04 0.000E+00 0.000E+00 2.080E-04 1.278E+00 1.657E+02  0.3397 0.95485
  3.000E+02 3.917E+02 1.282E+00 2.559E-04 0.000E+00 0.000E+00 2.559E-04 1.282E+00 2.048E+02  0.4094 0.96548
  3.500E+02 4.432E+02 1.290E+00 3.067E-04 0.000E+00 0.000E+00 3.067E-04 1.291E+00 2.437E+02  0.4767 0.97274
  4.000E+02 4.945E+02 1.301E+00 3.600E-04 1.827E-05 0.000E+00 3.783E-04 1.301E+00 2.822E+02  0.5416 0.97793
  4.500E+02 5.455E+02 1.312E+00 4.158E-04 3.480E-05 0.000E+00 4.506E-04 1.312E+00 3.205E+02  0.6039 0.98176
  5.000E+02 5.964E+02 1.323E+00 4.739E-04 5.238E-05 0.000E+00 5.263E-04 1.324E+00 3.584E+02  0.6638 0.98467
  5.500E+02 6.471E+02 1.335E+00 5.340E-04 7.297E-05 0.000E+00 6.070E-04 1.335E+00 3.961E+02  0.7215 0.98693
  6.000E+02 6.977E+02 1.346E+00 5.962E-04 9.663E-05 0.000E+00 6.928E-04 1.346E+00 4.333E+02  0.7770 0.98873
  7.000E+02 7.987E+02 1.367E+00 7.259E-04 1.528E-04 0.000E+00 8.787E-04 1.367E+00 5.070E+02  0.8823 0.99136
  8.000E+02 8.995E+02 1.386E+00 8.623E-04 2.200E-04 0.000E+00 1.082E-03 1.387E+00 5.797E+02  0.9805 0.99317
  9.000E+02 1.000E+03 1.404E+00 1.005E-03 2.977E-04 0.000E+00 1.303E-03 1.405E+00 6.513E+02  1.0727 0.99447
  1.000E+03 1.101E+03 1.420E+00 1.153E-03 3.852E-04 0.000E+00 1.538E-03 1.422E+00 7.220E+02  1.1596 0.99542
  1.200E+03 1.301E+03 1.449E+00 1.464E-03 5.873E-04 2.247E-05 2.073E-03 1.451E+00 8.613E+02  1.3196 0.99672
  1.400E+03 1.502E+03 1.474E+00 1.792E-03 8.224E-04 6.102E-05 2.675E-03 1.477E+00 9.979E+02  1.4645 0.99753
  1.700E+03 1.803E+03 1.506E+00 2.313E-03 1.230E-03 1.295E-04 3.673E-03 1.510E+00 1.199E+03  1.6592 0.99829
  2.000E+03 2.103E+03 1.533E+00 2.864E-03 1.696E-03 2.092E-04 4.769E-03 1.538E+00 1.396E+03  1.8326 0.99874
  2.500E+03 2.604E+03 1.570E+00 3.838E-03 2.585E-03 3.617E-04 6.784E-03 1.576E+00 1.717E+03  2.0858 0.99918
  3.000E+03 3.104E+03 1.599E+00 4.870E-03 3.593E-03 5.199E-04 8.984E-03 1.608E+00 2.031E+03  2.3052 0.99942
  3.500E+03 3.604E+03 1.624E+00 5.953E-03 4.705E-03 6.860E-04 1.134E-02 1.635E+00 2.339E+03  2.4993 0.99957
  4.000E+03 4.104E+03 1.645E+00 7.078E-03 5.918E-03 8.624E-04 1.386E-02 1.659E+00 2.643E+03  2.6736 0.99967
  4.500E+03 4.604E+03 1.663E+00 8.241E-03 7.217E-03 1.045E-03 1.650E-02 1.680E+00 2.942E+03  2.8320 0.99974
  5.000E+03 5.105E+03 1.679E+00 9.438E-03 8.588E-03 1.219E-03 1.925E-02 1.699E+00 3.238E+03  2.9772 0.99979
  5.500E+03 5.605E+03 1.694E+00 1.067E-02 1.003E-02 1.407E-03 2.210E-02 1.716E+00 3.531E+03  3.1115 0.99982
  6.000E+03 6.105E+03 1.707E+00 1.192E-02 1.152E-02 1.581E-03 2.503E-02 1.732E+00 3.821E+03  3.2364 0.99985
  7.000E+03 7.105E+03 1.729E+00 1.451E-02 1.468E-02 1.949E-03 3.114E-02 1.760E+00 4.394E+03  3.4630 0.99989
  8.000E+03 8.105E+03 1.748E+00 1.718E-02 1.803E-02 2.313E-03 3.753E-02 1.786E+00 4.958E+03  3.6646 0.99992
  9.000E+03 9.105E+03 1.765E+00 1.994E-02 2.155E-02 2.653E-03 4.414E-02 1.809E+00 5.515E+03  3.8464 0.99993
  1.000E+04 1.011E+04 1.779E+00 2.276E-02 2.522E-02 3.004E-03 5.098E-02 1.830E+00 6.064E+03  4.0121 0.99995
  1.200E+04 1.211E+04 1.803E+00 2.858E-02 3.294E-02 3.713E-03 6.524E-02 1.869E+00 7.146E+03  4.3054 0.99996
  1.400E+04 1.411E+04 1.823E+00 3.461E-02 4.110E-02 4.420E-03 8.013E-02 1.904E+00 8.206E+03  4.5597 0.99997
  1.700E+04 1.711E+04 1.848E+00 4.398E-02 5.402E-02 5.464E-03 1.035E-01 1.951E+00 9.763E+03  4.8877 0.99998
  2.000E+04 2.011E+04 1.867E+00 5.367E-02 6.761E-02 6.484E-03 1.278E-01 1.995E+00 1.128E+04  5.1685 0.99999
  2.500E+04 2.511E+04 1.893E+00 7.040E-02 9.145E-02 8.153E-03 1.700E-01 2.063E+00 1.375E+04  5.5629 0.99999
  3.000E+04 3.011E+04 1.914E+00 8.773E-02 1.165E-01 9.786E-03 2.140E-01 2.128E+00 1.613E+04  5.8922 0.99999
  3.500E+04 3.511E+04 1.930E+00 1.055E-01 1.425E-01 1.143E-02 2.594E-01 2.190E+00 1.845E+04  6.1751 1.00000
  4.000E+04 4.011E+04 1.944E+00 1.238E-01 1.692E-01 1.305E-02 3.060E-01 2.250E+00 2.070E+04  6.4234 1.00000
  4.500E+04 4.511E+04 1.957E+00 1.423E-01 1.966E-01 1.465E-02 3.536E-01 2.310E+00 2.290E+04  6.6446 1.00000
  5.000E+04 5.011E+04 1.967E+00 1.612E-01 2.246E-01 1.625E-02 4.021E-01 2.369E+00 2.503E+04  6.8443 1.00000
  5.500E+04 5.511E+04 1.977E+00 1.804E-01 2.531E-01 1.785E-02 4.513E-01 2.428E+00 2.712E+04  7.0262 1.00000
  6.000E+04 6.011E+04 1.985E+00 1.998E-01 2.820E-01 1.944E-02 5.012E-01 2.486E+00 2.915E+04  7.1932 1.00000
  7.000E+04 7.011E+04 2.000E+00 2.392E-01 3.409E-01 2.259E-02 6.027E-01 2.603E+00 3.309E+04  7.4914 1.00000
  8.000E+04 8.011E+04 2.012E+00 2.794E-01 4.011E-01 2.574E-02 7.062E-01 2.719E+00 3.685E+04  7.7518 1.00000
  9.000E+04 9.011E+04 2.023E+00 3.202E-01 4.623E-01 2.888E-02 8.114E-01 2.835E+00 4.045E+04  7.9829 1.00000
  1.000E+05 1.001E+05 2.033E+00 3.616E-01 5.243E-01 3.197E-02 9.179E-01 2.951E+00 4.391E+04  8.1907 1.00000
  1.200E+05 1.201E+05 2.049E+00 4.457E-01 6.505E-01 3.824E-02 1.135E+00 3.184E+00 5.044E+04  8.5521 1.00000
  1.400E+05 1.401E+05 2.063E+00 5.314E-01 7.791E-01 4.450E-02 1.355E+00 3.418E+00 5.650E+04  8.8590 1.00000
  1.700E+05 1.701E+05 2.080E+00 6.623E-01 9.751E-01 5.389E-02 1.691E+00 3.771E+00 6.487E+04  9.2468 1.00000
  2.000E+05 2.001E+05 2.094E+00 7.954E-01 1.174E+00 6.333E-02 2.033E+00 4.127E+00 7.248E+04  9.5717 1.00000
  2.500E+05 2.501E+05 2.114E+00 1.021E+00 1.511E+00 7.908E-02 2.611E+00 4.725E+00 8.383E+04 10.0178 1.00000
  3.000E+05 3.001E+05 2.130E+00 1.251E+00 1.853E+00 9.493E-02 3.198E+00 5.328E+00 9.381E+04 10.3823 1.00000
  3.500E+05 3.501E+05 2.143E+00 1.483E+00 2.197E+00 1.110E-01 3.792E+00 5.935E+00 1.027E+05 10.6905 1.00000
  4.000E+05 4.001E+05 2.155E+00 1.718E+00 2.545E+00 1.271E-01 4.390E+00 6.545E+00 1.107E+05 10.9574 1.00000
  4.500E+05 4.501E+05 2.165E+00 1.955E+00 2.895E+00 1.432E-01 4.993E+00 7.158E+00 1.181E+05 11.1930 1.00000
  5.000E+05 5.001E+05 2.175E+00 2.194E+00 3.246E+00 1.596E-01 5.599E+00 7.774E+00 1.248E+05 11.4036 1.00000
  5.500E+05 5.501E+05 2.183E+00 2.434E+00 3.599E+00 1.757E-01 6.209E+00 8.392E+00 1.310E+05 11.5942 1.00000
  6.000E+05 6.001E+05 2.191E+00 2.675E+00 3.953E+00 1.920E-01 6.820E+00 9.011E+00 1.367E+05 11.7682 1.00000
  7.000E+05 7.001E+05 2.204E+00 3.162E+00 4.664E+00 2.248E-01 8.051E+00 1.025E+01 1.471E+05 12.0765 1.00000
  8.000E+05 8.001E+05 2.216E+00 3.651E+00 5.379E+00 2.579E-01 9.288E+00 1.150E+01 1.564E+05 12.3435 1.00000
  9.000E+05 9.001E+05 2.226E+00 4.144E+00 6.097E+00 2.914E-01 1.053E+01 1.276E+01 1.646E+05 12.5790 1.00000
  1.000E+06 1.000E+06 2.236E+00 4.639E+00 6.816E+00 3.252E-01 1.178E+01 1.402E+01 1.721E+05 12.7897 1.00000
  1.200E+06 1.200E+06 2.252E+00 5.636E+00 8.260E+00 3.935E-01 1.429E+01 1.654E+01 1.853E+05 13.1543 1.00000
  1.400E+06 1.400E+06 2.266E+00 6.639E+00 9.710E+00 4.627E-01 1.681E+01 1.908E+01 1.966E+05 13.4626 1.00000
  1.700E+06 1.700E+06 2.284E+00 8.152E+00 1.189E+01 5.682E-01 2.061E+01 2.290E+01 2.110E+05 13.8509 1.00000
  2.000E+06 2.000E+06 2.299E+00 9.674E+00 1.408E+01 6.754E-01 2.443E+01 2.673E+01 2.232E+05 14.1759 1.00000
  2.500E+06 2.500E+06 2.319E+00 1.222E+01 1.774E+01 8.573E-01 3.082E+01 3.314E+01 2.401E+05 14.6222 1.00000
  3.000E+06 3.000E+06 2.336E+00 1.479E+01 2.140E+01 1.043E+00 3.724E+01 3.957E+01 2.539E+05 14.9868 1.00000
  3.500E+06 3.500E+06 2.350E+00 1.736E+01 2.508E+01 1.231E+00 4.367E+01 4.602E+01 2.657E+05 15.2951 1.00000
  4.000E+06 4.000E+06 2.363E+00 1.994E+01 2.876E+01 1.422E+00 5.012E+01 5.248E+01 2.759E+05 15.5621 1.00000
  4.500E+06 4.500E+06 2.374E+00 2.253E+01 3.244E+01 1.615E+00 5.658E+01 5.895E+01 2.849E+05 15.7977 1.00000
  5.000E+06 5.000E+06 2.384E+00 2.512E+01 3.612E+01 1.811E+00 6.305E+01 6.544E+01 2.929E+05 16.0084 1.00000
  5.500E+06 5.500E+06 2.393E+00 2.771E+01 3.981E+01 2.008E+00 6.953E+01 7.192E+01 3.002E+05 16.1990 1.00000
  6.000E+06 6.000E+06 2.401E+00 3.031E+01 4.350E+01 2.208E+00 7.602E+01 7.842E+01 3.069E+05 16.3731 1.00000
  7.000E+06 7.000E+06 2.416E+00 3.551E+01 5.089E+01 2.611E+00 8.901E+01 9.143E+01 3.187E+05 16.6813 1.00000
  8.000E+06 8.000E+06 2.429E+00 4.073E+01 5.828E+01 3.021E+00 1.020E+02 1.045E+02 3.290E+05 16.9484 1.00000
  9.000E+06 9.000E+06 2.441E+00 4.595E+01 6.567E+01 3.436E+00 1.151E+02 1.175E+02 3.380E+05 17.1840 1.00000
  1.000E+07 1.000E+07 2.451E+00 5.117E+01 7.307E+01 3.856E+00 1.281E+02 1.305E+02 3.461E+05 17.3947 1.00000
  1.200E+07 1.200E+07 2.469E+00 6.164E+01 8.787E+01 4.708E+00 1.542E+02 1.567E+02 3.602E+05 17.7593 1.00000
  1.400E+07 1.400E+07 2.484E+00 7.212E+01 1.027E+02 5.576E+00 1.804E+02 1.829E+02 3.720E+05 18.0676 1.00000
  1.700E+07 1.700E+07 2.503E+00 8.785E+01 1.249E+02 6.903E+00 2.197E+02 2.222E+02 3.870E+05 18.4559 1.00000
  2.000E+07 2.000E+07 2.520E+00 1.036E+02 1.472E+02 8.254E+00 2.590E+02 2.615E+02 3.995E+05 18.7810 1.00000
  2.500E+07 2.500E+07 2.543E+00 1.299E+02 1.842E+02 1.056E+01 3.247E+02 3.272E+02 4.167E+05 19.2273 1.00000
  3.000E+07 3.000E+07 2.561E+00 1.562E+02 2.213E+02 1.291E+01 3.904E+02 3.930E+02 4.307E+05 19.5919 1.00000
  3.500E+07 3.500E+07 2.577E+00 1.825E+02 2.584E+02 1.530E+01 4.562E+02 4.588E+02 4.425E+05 19.9002 1.00000
  4.000E+07 4.000E+07 2.591E+00 2.088E+02 2.955E+02 1.774E+01 5.221E+02 5.247E+02 4.527E+05 20.1673 1.00000
  4.500E+07 4.500E+07 2.603E+00 2.352E+02 3.326E+02 2.020E+01 5.880E+02 5.906E+02 4.617E+05 20.4028 1.00000
  5.000E+07 5.000E+07 2.615E+00 2.615E+02 3.697E+02 2.270E+01 6.539E+02 6.566E+02 4.697E+05 20.6135 1.00000
  5.500E+07 5.500E+07 2.625E+00 2.878E+02 4.069E+02 2.523E+01 7.199E+02 7.226E+02 4.770E+05 20.8042 1.00000
  6.000E+07 6.000E+07 2.634E+00 3.142E+02 4.440E+02 2.778E+01 7.860E+02 7.886E+02 4.836E+05 20.9782 1.00000
  7.000E+07 7.000E+07 2.650E+00 3.669E+02 5.182E+02 3.295E+01 9.181E+02 9.207E+02 4.954E+05 21.2865 1.00000
  8.000E+07 8.000E+07 2.665E+00 4.196E+02 5.925E+02 3.821E+01 1.050E+03 1.053E+03 5.056E+05 21.5536 1.00000
  9.000E+07 9.000E+07 2.677E+00 4.724E+02 6.667E+02 4.354E+01 1.183E+03 1.185E+03 5.145E+05 21.7891 1.00000
  1.000E+08 1.000E+08 2.689E+00 5.251E+02 7.410E+02 4.894E+01 1.315E+03 1.318E+03 5.225E+05 21.9998 1.00000
  1.200E+08 1.200E+08 2.709E+00 6.306E+02 8.895E+02 5.991E+01 1.580E+03 1.583E+03 5.365E+05 22.3645 1.00000
  1.400E+08 1.400E+08 2.726E+00 7.362E+02 1.038E+03 7.110E+01 1.845E+03 1.848E+03 5.482E+05 22.6728 1.00000
  1.700E+08 1.700E+08 2.747E+00 8.945E+02 1.261E+03 8.822E+01 2.244E+03 2.246E+03 5.630E+05 23.0611 1.00000
  2.000E+08 2.000E+08 2.766E+00 1.053E+03 1.484E+03 1.057E+02 2.642E+03 2.645E+03 5.753E+05 23.3861 1.00000
  2.500E+08 2.500E+08 2.791E+00 1.317E+03 1.855E+03 1.355E+02 3.307E+03 3.310E+03 5.923E+05 23.8324 1.00000
  3.000E+08 3.000E+08 2.812E+00 1.581E+03 2.226E+03 1.659E+02 3.973E+03 3.976E+03 6.062E+05 24.1971 1.00000
  3.500E+08 3.500E+08 2.830E+00 1.845E+03 2.598E+03 1.970E+02 4.639E+03 4.642E+03 6.178E+05 24.5054 1.00000
  4.000E+08 4.000E+08 2.845E+00 2.109E+03 2.969E+03 2.286E+02 5.306E+03 5.309E+03 6.279E+05 24.7724 1.00000
  4.500E+08 4.500E+08 2.859E+00 2.373E+03 3.340E+03 2.607E+02 5.973E+03 5.976E+03 6.368E+05 25.0080 1.00000
  5.000E+08 5.000E+08 2.871E+00 2.637E+03 3.712E+03 2.931E+02 6.641E+03 6.644E+03 6.448E+05 25.2187 1.00000
  5.500E+08 5.500E+08 2.883E+00 2.900E+03 4.083E+03 3.260E+02 7.309E+03 7.312E+03 6.520E+05 25.4093 1.00000
  6.000E+08 6.000E+08 2.893E+00 3.164E+03 4.454E+03 3.592E+02 7.978E+03 7.981E+03 6.585E+05 25.5834 1.00000
  7.000E+08 7.000E+08 2.911E+00 3.692E+03 5.197E+03 4.266E+02 9.316E+03 9.319E+03 6.701E+05 25.8917 1.00000
  8.000E+08 8.000E+08 2.927E+00 4.220E+03 5.940E+03 4.951E+02 1.066E+04 1.066E+04 6.802E+05 26.1587 1.00000
  9.000E+08 9.000E+08 2.942E+00 4.748E+03 6.682E+03 5.647E+02 1.200E+04 1.200E+04 6.891E+05 26.3943 1.00000
  1.000E+09 1.000E+09 2.954E+00 5.276E+03 7.425E+03 6.352E+02 1.334E+04 1.334E+04 6.970E+05 26.6050 1.00000
