 Incident particle is a Muon with M = 105.65839 MeV
 Index = 0: Iodine
      Absorber with <Z/A> = 0.41764
 Sternheimer coef:  a     k=m_s   x_0    x_1    I[eV]   Cbar  delta0
                 0.2377  2.7276  0.0549  3.2596  491.0  5.9488 0.00

 *** Table generated with PUMAS v1.00 ***

      T         p     Ionization  brems     pair     photonuc  Radloss    dE/dx   CSDA Range  delta   beta
    [MeV]    [MeV/c]  -----------------------[MeV cm^2/g]------------------------  [g/cm^2]
  1.000E+00 1.457E+01 2.512E+01 3.940E-06 0.000E+00 0.000E+00 3.940E-06 2.512E+01 1.991E-02  0.0000 0.13661
  1.200E+00 1.597E+01 2.202E+01 4.526E-06 0.000E+00 0.000E+00 4.526E-06 2.202E+01 2.843E-02  0.0000 0.14944
  1.400E+00 1.726E+01 1.967E+01 5.083E-06 0.000E+00 0.000E+00 5.083E-06 1.967E+01 3.805E-02  0.0000 0.16119
  1.700E+00 1.903E+01 1.705E+01 5.870E-06 0.000E+00 0.000E+00 5.870E-06 1.705E+01 5.448E-02  0.0000 0.17725
  2.000E+00 2.066E+01 1.510E+01 6.611E-06 0.000E+00 0.000E+00 6.611E-06 1.510E+01 7.321E-02  0.0000 0.19186
  2.500E+00 2.312E+01 1.277E+01 7.760E-06 0.000E+00 0.000E+00 7.760E-06 1.277E+01 1.093E-01  0.0000 0.21376
  3.000E+00 2.536E+01 1.113E+01 8.823E-06 0.000E+00 0.000E+00 8.823E-06 1.113E+01 1.514E-01  0.0000 0.23336
  3.500E+00 2.742E+01 9.908E+00 9.818E-06 0.000E+00 0.000E+00 9.818E-06 9.908E+00 1.991E-01  0.0000 0.25120
  4.000E+00 2.935E+01 8.957E+00 1.075E-05 0.000E+00 0.000E+00 1.075E-05 8.957E+00 2.522E-01  0.0000 0.26763
  4.500E+00 3.116E+01 8.195E+00 1.164E-05 0.000E+00 0.000E+00 1.164E-05 8.195E+00 3.106E-01  0.0000 0.28290
  5.000E+00 3.289E+01 7.569E+00 1.249E-05 0.000E+00 0.000E+00 1.249E-05 7.569E+00 3.741E-01  0.0000 0.29720
  5.500E+00 3.453E+01 7.046E+00 1.329E-05 0.000E+00 0.000E+00 1.329E-05 7.046E+00 4.427E-01  0.0000 0.31066
  6.000E+00 3.611E+01 6.602E+00 1.407E-05 0.000E+00 0.000E+00 1.407E-05 6.602E+00 5.160E-01  0.0000 0.32339
  7.000E+00 3.909E+01 5.886E+00 1.553E-05 0.000E+00 0.000E+00 1.553E-05 5.886E+00 6.767E-01  0.0000 0.34700
  8.000E+00 4.189E+01 5.334E+00 1.690E-05 0.000E+00 0.000E+00 1.690E-05 5.334E+00 8.553E-01  0.0000 0.36854
  9.000E+00 4.453E+01 4.895E+00 1.818E-05 0.000E+00 0.000E+00 1.818E-05 4.895E+00 1.051E+00  0.0000 0.38836
  1.000E+01 4.704E+01 4.536E+00 1.940E-05 0.000E+00 0.000E+00 1.940E-05 4.536E+00 1.264E+00  0.0000 0.40675
  1.200E+01 5.177E+01 3.985E+00 2.168E-05 0.000E+00 0.000E+00 2.168E-05 3.985E+00 1.735E+00  0.0000 0.43998
  1.400E+01 5.616E+01 3.581E+00 2.378E-05 0.000E+00 0.000E+00 2.378E-05 3.581E+00 2.265E+00  0.0000 0.46937
  1.700E+01 6.230E+01 3.142E+00 2.669E-05 0.000E+00 0.000E+00 2.669E-05 3.142E+00 3.162E+00  0.0000 0.50792
  2.000E+01 6.802E+01 2.828E+00 2.940E-05 0.000E+00 0.000E+00 2.940E-05 2.828E+00 4.169E+00  0.0000 0.54129
  2.500E+01 7.686E+01 2.465E+00 3.358E-05 0.000E+00 0.000E+00 3.358E-05 2.465E+00 6.067E+00  0.0000 0.58827
  3.000E+01 8.509E+01 2.220E+00 3.749E-05 0.000E+00 0.000E+00 3.749E-05 2.220E+00 8.208E+00  0.0000 0.62720
  3.500E+01 9.285E+01 2.043E+00 4.124E-05 0.000E+00 0.000E+00 4.124E-05 2.043E+00 1.056E+01  0.0000 0.66011
  4.000E+01 1.003E+02 1.910E+00 4.488E-05 0.000E+00 0.000E+00 4.488E-05 1.910E+00 1.309E+01  0.0000 0.68834
  4.500E+01 1.074E+02 1.807E+00 4.845E-05 0.000E+00 0.000E+00 4.845E-05 1.807E+00 1.578E+01  0.0000 0.71286
  5.000E+01 1.143E+02 1.725E+00 5.200E-05 0.000E+00 0.000E+00 5.200E-05 1.725E+00 1.862E+01  0.0000 0.73434
  5.500E+01 1.210E+02 1.658E+00 5.552E-05 0.000E+00 0.000E+00 5.552E-05 1.658E+00 2.157E+01 -0.0004 0.75332
  6.000E+01 1.276E+02 1.604E+00 5.904E-05 0.000E+00 0.000E+00 5.904E-05 1.604E+00 2.464E+01 -0.0050 0.77019
  7.000E+01 1.403E+02 1.521E+00 6.612E-05 0.000E+00 0.000E+00 6.612E-05 1.521E+00 3.104E+01 -0.0099 0.79887
  8.000E+01 1.527E+02 1.460E+00 7.328E-05 0.000E+00 0.000E+00 7.328E-05 1.460E+00 3.776E+01 -0.0106 0.82227
  9.000E+01 1.647E+02 1.415E+00 8.056E-05 0.000E+00 0.000E+00 8.056E-05 1.415E+00 4.471E+01 -0.0084 0.84166
  1.000E+02 1.764E+02 1.381E+00 8.798E-05 0.000E+00 0.000E+00 8.798E-05 1.381E+00 5.187E+01 -0.0039 0.85794
  1.200E+02 1.994E+02 1.333E+00 1.033E-04 0.000E+00 0.000E+00 1.033E-04 1.333E+00 6.661E+01  0.0096 0.88361
  1.400E+02 2.218E+02 1.304E+00 1.191E-04 0.000E+00 0.000E+00 1.191E-04 1.304E+00 8.178E+01  0.0270 0.90278
  1.700E+02 2.546E+02 1.279E+00 1.442E-04 0.000E+00 0.000E+00 1.442E-04 1.279E+00 1.050E+02  0.0573 0.92363
  2.000E+02 2.868E+02 1.267E+00 1.705E-04 0.000E+00 0.000E+00 1.705E-04 1.268E+00 1.286E+02  0.0905 0.93835
  2.500E+02 3.396E+02 1.263E+00 2.173E-04 0.000E+00 0.000E+00 2.173E-04 1.263E+00 1.681E+02  0.1485 0.95485
  3.000E+02 3.917E+02 1.268E+00 2.674E-04 0.000E+00 0.000E+00 2.674E-04 1.268E+00 2.076E+02  0.2073 0.96548
  3.500E+02 4.432E+02 1.276E+00 3.205E-04 0.000E+00 0.000E+00 3.205E-04 1.277E+00 2.469E+02  0.2655 0.97274
  4.000E+02 4.945E+02 1.287E+00 3.763E-04 1.418E-05 0.000E+00 3.905E-04 1.287E+00 2.859E+02  0.3224 0.97793
  4.500E+02 5.455E+02 1.298E+00 4.347E-04 3.633E-05 0.000E+00 4.710E-04 1.299E+00 3.246E+02  0.3777 0.98176
  5.000E+02 5.964E+02 1.310E+00 4.954E-04 5.518E-05 0.000E+00 5.506E-04 1.310E+00 3.629E+02  0.4315 0.98467
  5.500E+02 6.471E+02 1.321E+00 5.584E-04 7.697E-05 0.000E+00 6.354E-04 1.322E+00 4.009E+02  0.4836 0.98693
  6.000E+02 6.977E+02 1.332E+00 6.235E-04 1.020E-04 0.000E+00 7.254E-04 1.333E+00 4.386E+02  0.5340 0.98873
  7.000E+02 7.987E+02 1.353E+00 7.593E-04 1.613E-04 0.000E+00 9.206E-04 1.354E+00 5.130E+02  0.6303 0.99136
  8.000E+02 8.995E+02 1.372E+00 9.022E-04 2.324E-04 0.000E+00 1.135E-03 1.374E+00 5.863E+02  0.7210 0.99317
  9.000E+02 1.000E+03 1.390E+00 1.051E-03 3.145E-04 0.000E+00 1.366E-03 1.392E+00 6.587E+02  0.8066 0.99447
  1.000E+03 1.101E+03 1.407E+00 1.206E-03 4.070E-04 0.000E+00 1.613E-03 1.408E+00 7.301E+02  0.8876 0.99542
  1.200E+03 1.301E+03 1.436E+00 1.532E-03 6.207E-04 2.247E-05 2.175E-03 1.438E+00 8.707E+02  1.0377 0.99672
  1.400E+03 1.502E+03 1.461E+00 1.876E-03 8.692E-04 6.099E-05 2.807E-03 1.463E+00 1.009E+03  1.1744 0.99753
  1.700E+03 1.803E+03 1.493E+00 2.423E-03 1.300E-03 1.294E-04 3.852E-03 1.496E+00 1.211E+03  1.3591 0.99829
  2.000E+03 2.103E+03 1.519E+00 3.001E-03 1.793E-03 2.089E-04 5.002E-03 1.524E+00 1.410E+03  1.5244 0.99874
  2.500E+03 2.604E+03 1.556E+00 4.022E-03 2.732E-03 3.610E-04 7.115E-03 1.563E+00 1.734E+03  1.7668 0.99918
  3.000E+03 3.104E+03 1.585E+00 5.105E-03 3.799E-03 5.187E-04 9.423E-03 1.595E+00 2.051E+03  1.9778 0.99942
  3.500E+03 3.604E+03 1.610E+00 6.241E-03 4.975E-03 6.841E-04 1.190E-02 1.622E+00 2.362E+03  2.1650 0.99957
  4.000E+03 4.104E+03 1.631E+00 7.422E-03 6.256E-03 8.598E-04 1.454E-02 1.645E+00 2.668E+03  2.3335 0.99967
  4.500E+03 4.604E+03 1.649E+00 8.643E-03 7.627E-03 1.041E-03 1.731E-02 1.666E+00 2.970E+03  2.4870 0.99974
  5.000E+03 5.105E+03 1.665E+00 9.900E-03 9.076E-03 1.215E-03 2.019E-02 1.685E+00 3.268E+03  2.6279 0.99979
  5.500E+03 5.605E+03 1.679E+00 1.119E-02 1.059E-02 1.402E-03 2.319E-02 1.702E+00 3.563E+03  2.7584 0.99982
  6.000E+03 6.105E+03 1.692E+00 1.251E-02 1.218E-02 1.575E-03 2.626E-02 1.718E+00 3.856E+03  2.8799 0.99985
  7.000E+03 7.105E+03 1.715E+00 1.522E-02 1.551E-02 1.941E-03 3.268E-02 1.747E+00 4.433E+03  3.1008 0.99989
  8.000E+03 8.105E+03 1.734E+00 1.803E-02 1.905E-02 2.303E-03 3.939E-02 1.773E+00 5.001E+03  3.2975 0.99992
  9.000E+03 9.105E+03 1.750E+00 2.093E-02 2.277E-02 2.641E-03 4.633E-02 1.796E+00 5.561E+03  3.4753 0.99993
  1.000E+04 1.011E+04 1.764E+00 2.389E-02 2.664E-02 2.990E-03 5.352E-02 1.818E+00 6.115E+03  3.6374 0.99995
  1.200E+04 1.211E+04 1.789E+00 3.001E-02 3.478E-02 3.694E-03 6.849E-02 1.857E+00 7.203E+03  3.9249 0.99996
  1.400E+04 1.411E+04 1.808E+00 3.634E-02 4.339E-02 4.397E-03 8.413E-02 1.892E+00 8.270E+03  4.1744 0.99997
  1.700E+04 1.711E+04 1.833E+00 4.618E-02 5.702E-02 5.433E-03 1.086E-01 1.941E+00 9.836E+03  4.4969 0.99998
  2.000E+04 2.011E+04 1.852E+00 5.636E-02 7.136E-02 6.447E-03 1.342E-01 1.986E+00 1.136E+04  4.7733 0.99999
  2.500E+04 2.511E+04 1.878E+00 7.394E-02 9.650E-02 8.103E-03 1.785E-01 2.056E+00 1.384E+04  5.1621 0.99999
  3.000E+04 3.011E+04 1.898E+00 9.215E-02 1.229E-01 9.724E-03 2.248E-01 2.123E+00 1.623E+04  5.4872 0.99999
  3.500E+04 3.511E+04 1.914E+00 1.109E-01 1.503E-01 1.136E-02 2.725E-01 2.187E+00 1.855E+04  5.7668 1.00000
  4.000E+04 4.011E+04 1.928E+00 1.300E-01 1.785E-01 1.297E-02 3.215E-01 2.250E+00 2.081E+04  6.0124 1.00000
  4.500E+04 4.511E+04 1.940E+00 1.495E-01 2.074E-01 1.455E-02 3.715E-01 2.312E+00 2.300E+04  6.2315 1.00000
  5.000E+04 5.011E+04 1.951E+00 1.694E-01 2.369E-01 1.613E-02 4.224E-01 2.373E+00 2.513E+04  6.4293 1.00000
  5.500E+04 5.511E+04 1.960E+00 1.895E-01 2.669E-01 1.773E-02 4.741E-01 2.434E+00 2.721E+04  6.6096 1.00000
  6.000E+04 6.011E+04 1.969E+00 2.099E-01 2.973E-01 1.930E-02 5.265E-01 2.495E+00 2.924E+04  6.7753 1.00000
  7.000E+04 7.011E+04 1.983E+00 2.513E-01 3.594E-01 2.242E-02 6.332E-01 2.616E+00 3.316E+04  7.0713 1.00000
  8.000E+04 8.011E+04 1.996E+00 2.936E-01 4.227E-01 2.554E-02 7.419E-01 2.738E+00 3.690E+04  7.3299 1.00000
  9.000E+04 9.011E+04 2.006E+00 3.365E-01 4.872E-01 2.866E-02 8.523E-01 2.859E+00 4.047E+04  7.5597 1.00000
  1.000E+05 1.001E+05 2.016E+00 3.799E-01 5.525E-01 3.172E-02 9.641E-01 2.980E+00 4.390E+04  7.7663 1.00000
  1.200E+05 1.201E+05 2.032E+00 4.683E-01 6.854E-01 3.793E-02 1.192E+00 3.224E+00 5.036E+04  8.1261 1.00000
  1.400E+05 1.401E+05 2.046E+00 5.584E-01 8.206E-01 4.414E-02 1.423E+00 3.469E+00 5.634E+04  8.4321 1.00000
  1.700E+05 1.701E+05 2.062E+00 6.958E-01 1.027E+00 5.345E-02 1.776E+00 3.839E+00 6.457E+04  8.8192 1.00000
  2.000E+05 2.001E+05 2.076E+00 8.357E-01 1.236E+00 6.279E-02 2.135E+00 4.211E+00 7.204E+04  9.1440 1.00000
  2.500E+05 2.501E+05 2.095E+00 1.073E+00 1.591E+00 7.839E-02 2.742E+00 4.837E+00 8.315E+04  9.5901 1.00000
  3.000E+05 3.001E+05 2.111E+00 1.314E+00 1.950E+00 9.410E-02 3.358E+00 5.469E+00 9.289E+04  9.9546 1.00000
  3.500E+05 3.501E+05 2.124E+00 1.558E+00 2.313E+00 1.100E-01 3.981E+00 6.105E+00 1.016E+05 10.2628 1.00000
  4.000E+05 4.001E+05 2.136E+00 1.805E+00 2.678E+00 1.259E-01 4.609E+00 6.745E+00 1.094E+05 10.5297 1.00000
  4.500E+05 4.501E+05 2.146E+00 2.054E+00 3.046E+00 1.420E-01 5.242E+00 7.387E+00 1.164E+05 10.7653 1.00000
  5.000E+05 5.001E+05 2.155E+00 2.305E+00 3.415E+00 1.581E-01 5.878E+00 8.033E+00 1.229E+05 10.9759 1.00000
  5.500E+05 5.501E+05 2.163E+00 2.557E+00 3.786E+00 1.741E-01 6.517E+00 8.680E+00 1.289E+05 11.1665 1.00000
  6.000E+05 6.001E+05 2.170E+00 2.810E+00 4.159E+00 1.902E-01 7.159E+00 9.329E+00 1.345E+05 11.3405 1.00000
  7.000E+05 7.001E+05 2.184E+00 3.321E+00 4.907E+00 2.227E-01 8.450E+00 1.063E+01 1.446E+05 11.6488 1.00000
  8.000E+05 8.001E+05 2.195E+00 3.835E+00 5.658E+00 2.555E-01 9.748E+00 1.194E+01 1.534E+05 11.9158 1.00000
  9.000E+05 9.001E+05 2.206E+00 4.352E+00 6.412E+00 2.887E-01 1.105E+01 1.326E+01 1.614E+05 12.1513 1.00000
  1.000E+06 1.000E+06 2.215E+00 4.872E+00 7.168E+00 3.221E-01 1.236E+01 1.458E+01 1.686E+05 12.3620 1.00000
  1.200E+06 1.200E+06 2.231E+00 5.918E+00 8.686E+00 3.897E-01 1.499E+01 1.723E+01 1.813E+05 12.7266 1.00000
  1.400E+06 1.400E+06 2.244E+00 6.971E+00 1.021E+01 4.583E-01 1.764E+01 1.988E+01 1.921E+05 13.0349 1.00000
  1.700E+06 1.700E+06 2.262E+00 8.560E+00 1.250E+01 5.628E-01 2.163E+01 2.389E+01 2.059E+05 13.4232 1.00000
  2.000E+06 2.000E+06 2.276E+00 1.016E+01 1.480E+01 6.689E-01 2.563E+01 2.791E+01 2.176E+05 13.7482 1.00000
  2.500E+06 2.500E+06 2.296E+00 1.283E+01 1.865E+01 8.490E-01 3.233E+01 3.463E+01 2.338E+05 14.1945 1.00000
  3.000E+06 3.000E+06 2.313E+00 1.552E+01 2.250E+01 1.032E+00 3.906E+01 4.137E+01 2.470E+05 14.5591 1.00000
  3.500E+06 3.500E+06 2.327E+00 1.822E+01 2.636E+01 1.219E+00 4.580E+01 4.813E+01 2.583E+05 14.8674 1.00000
  4.000E+06 4.000E+06 2.339E+00 2.093E+01 3.022E+01 1.408E+00 5.257E+01 5.490E+01 2.680E+05 15.1344 1.00000
  4.500E+06 4.500E+06 2.350E+00 2.365E+01 3.409E+01 1.600E+00 5.934E+01 6.169E+01 2.766E+05 15.3700 1.00000
  5.000E+06 5.000E+06 2.360E+00 2.636E+01 3.797E+01 1.793E+00 6.612E+01 6.848E+01 2.843E+05 15.5807 1.00000
  5.500E+06 5.500E+06 2.369E+00 2.909E+01 4.184E+01 1.989E+00 7.292E+01 7.529E+01 2.913E+05 15.7713 1.00000
  6.000E+06 6.000E+06 2.377E+00 3.181E+01 4.572E+01 2.186E+00 7.972E+01 8.209E+01 2.977E+05 15.9454 1.00000
  7.000E+06 7.000E+06 2.391E+00 3.727E+01 5.348E+01 2.586E+00 9.334E+01 9.573E+01 3.090E+05 16.2536 1.00000
  8.000E+06 8.000E+06 2.404E+00 4.274E+01 6.124E+01 2.991E+00 1.070E+02 1.094E+02 3.188E+05 16.5207 1.00000
  9.000E+06 9.000E+06 2.415E+00 4.822E+01 6.901E+01 3.402E+00 1.206E+02 1.230E+02 3.274E+05 16.7563 1.00000
  1.000E+07 1.000E+07 2.425E+00 5.370E+01 7.679E+01 3.818E+00 1.343E+02 1.367E+02 3.351E+05 16.9670 1.00000
  1.200E+07 1.200E+07 2.443E+00 6.468E+01 9.234E+01 4.662E+00 1.617E+02 1.641E+02 3.485E+05 17.3316 1.00000
  1.400E+07 1.400E+07 2.458E+00 7.567E+01 1.079E+02 5.521E+00 1.891E+02 1.916E+02 3.598E+05 17.6399 1.00000
  1.700E+07 1.700E+07 2.477E+00 9.218E+01 1.313E+02 6.834E+00 2.303E+02 2.328E+02 3.741E+05 18.0282 1.00000
  2.000E+07 2.000E+07 2.493E+00 1.087E+02 1.546E+02 8.173E+00 2.715E+02 2.740E+02 3.860E+05 18.3533 1.00000
  2.500E+07 2.500E+07 2.515E+00 1.363E+02 1.936E+02 1.045E+01 3.403E+02 3.428E+02 4.024E+05 18.7996 1.00000
  3.000E+07 3.000E+07 2.533E+00 1.639E+02 2.326E+02 1.278E+01 4.092E+02 4.117E+02 4.158E+05 19.1642 1.00000
  3.500E+07 3.500E+07 2.549E+00 1.915E+02 2.715E+02 1.515E+01 4.782E+02 4.807E+02 4.271E+05 19.4725 1.00000
  4.000E+07 4.000E+07 2.562E+00 2.191E+02 3.105E+02 1.756E+01 5.472E+02 5.497E+02 4.368E+05 19.7396 1.00000
  4.500E+07 4.500E+07 2.574E+00 2.467E+02 3.495E+02 2.000E+01 6.162E+02 6.188E+02 4.454E+05 19.9751 1.00000
  5.000E+07 5.000E+07 2.585E+00 2.744E+02 3.885E+02 2.248E+01 6.853E+02 6.879E+02 4.531E+05 20.1858 1.00000
  5.500E+07 5.500E+07 2.595E+00 3.020E+02 4.275E+02 2.498E+01 7.545E+02 7.571E+02 4.600E+05 20.3765 1.00000
  6.000E+07 6.000E+07 2.604E+00 3.296E+02 4.665E+02 2.750E+01 8.236E+02 8.262E+02 4.664E+05 20.5505 1.00000
  7.000E+07 7.000E+07 2.620E+00 3.849E+02 5.445E+02 3.262E+01 9.621E+02 9.647E+02 4.776E+05 20.8588 1.00000
  8.000E+07 8.000E+07 2.634E+00 4.403E+02 6.225E+02 3.783E+01 1.101E+03 1.103E+03 4.873E+05 21.1259 1.00000
  9.000E+07 9.000E+07 2.647E+00 4.956E+02 7.005E+02 4.311E+01 1.239E+03 1.242E+03 4.959E+05 21.3614 1.00000
  1.000E+08 1.000E+08 2.658E+00 5.509E+02 7.785E+02 4.845E+01 1.378E+03 1.381E+03 5.035E+05 21.5721 1.00000
  1.200E+08 1.200E+08 2.678E+00 6.616E+02 9.346E+02 5.932E+01 1.655E+03 1.658E+03 5.168E+05 21.9368 1.00000
  1.400E+08 1.400E+08 2.694E+00 7.723E+02 1.091E+03 7.039E+01 1.933E+03 1.936E+03 5.280E+05 22.2451 1.00000
  1.700E+08 1.700E+08 2.715E+00 9.384E+02 1.325E+03 8.734E+01 2.350E+03 2.353E+03 5.421E+05 22.6334 1.00000
  2.000E+08 2.000E+08 2.733E+00 1.104E+03 1.559E+03 1.046E+02 2.768E+03 2.771E+03 5.539E+05 22.9584 1.00000
  2.500E+08 2.500E+08 2.758E+00 1.381E+03 1.949E+03 1.341E+02 3.464E+03 3.467E+03 5.701E+05 23.4047 1.00000
  3.000E+08 3.000E+08 2.778E+00 1.658E+03 2.339E+03 1.643E+02 4.161E+03 4.164E+03 5.833E+05 23.7694 1.00000
  3.500E+08 3.500E+08 2.796E+00 1.935E+03 2.729E+03 1.950E+02 4.859E+03 4.862E+03 5.945E+05 24.0777 1.00000
  4.000E+08 4.000E+08 2.811E+00 2.212E+03 3.119E+03 2.263E+02 5.558E+03 5.560E+03 6.041E+05 24.3447 1.00000
  4.500E+08 4.500E+08 2.824E+00 2.489E+03 3.509E+03 2.581E+02 6.256E+03 6.259E+03 6.126E+05 24.5803 1.00000
  5.000E+08 5.000E+08 2.837E+00 2.766E+03 3.900E+03 2.902E+02 6.955E+03 6.958E+03 6.202E+05 24.7910 1.00000
  5.500E+08 5.500E+08 2.848E+00 3.043E+03 4.290E+03 3.227E+02 7.655E+03 7.658E+03 6.271E+05 24.9816 1.00000
  6.000E+08 6.000E+08 2.858E+00 3.320E+03 4.680E+03 3.556E+02 8.355E+03 8.358E+03 6.333E+05 25.1557 1.00000
  7.000E+08 7.000E+08 2.876E+00 3.873E+03 5.460E+03 4.223E+02 9.756E+03 9.759E+03 6.444E+05 25.4640 1.00000
  8.000E+08 8.000E+08 2.891E+00 4.427E+03 6.240E+03 4.902E+02 1.116E+04 1.116E+04 6.540E+05 25.7310 1.00000
  9.000E+08 9.000E+08 2.905E+00 4.981E+03 7.020E+03 5.591E+02 1.256E+04 1.256E+04 6.625E+05 25.9666 1.00000
  1.000E+09 1.000E+09 2.918E+00 5.535E+03 7.801E+03 6.288E+02 1.396E+04 1.397E+04 6.700E+05 26.1773 1.00000
