 Incident particle is a Muon with M = 105.65839 MeV
 Index = 0: KryptonGas
      Absorber with <Z/A> = 0.42960
 Sternheimer coef:  a     k=m_s   x_0    x_1    I[eV]   Cbar  delta0
                 0.0745  3.4051  1.7153  5.0743  352.0 12.5094 0.00

 *** Table generated with PUMAS v1.00 ***

      T         p     Ionization  brems     pair     photonuc  Radloss    dE/dx   CSDA Range  delta   beta
    [MeV]    [MeV/c]  -----------------------[MeV cm^2/g]------------------------  [g/cm^2]
  1.000E+00 1.457E+01 2.819E+01 2.843E-06 0.000E+00 0.000E+00 2.843E-06 2.819E+01 1.774E-02  0.0000 0.13661
  1.200E+00 1.597E+01 2.462E+01 3.267E-06 0.000E+00 0.000E+00 3.267E-06 2.462E+01 2.535E-02  0.0000 0.14944
  1.400E+00 1.726E+01 2.193E+01 3.670E-06 0.000E+00 0.000E+00 3.670E-06 2.193E+01 3.397E-02  0.0000 0.16119
  1.700E+00 1.903E+01 1.893E+01 4.242E-06 0.000E+00 0.000E+00 4.242E-06 1.893E+01 4.873E-02  0.0000 0.17725
  2.000E+00 2.066E+01 1.673E+01 4.780E-06 0.000E+00 0.000E+00 4.780E-06 1.673E+01 6.562E-02  0.0000 0.19186
  2.500E+00 2.312E+01 1.410E+01 5.617E-06 0.000E+00 0.000E+00 5.617E-06 1.410E+01 9.830E-02  0.0000 0.21376
  3.000E+00 2.536E+01 1.226E+01 6.394E-06 0.000E+00 0.000E+00 6.394E-06 1.226E+01 1.364E-01  0.0000 0.23336
  3.500E+00 2.742E+01 1.089E+01 7.121E-06 0.000E+00 0.000E+00 7.121E-06 1.089E+01 1.798E-01  0.0000 0.25120
  4.000E+00 2.935E+01 9.826E+00 7.807E-06 0.000E+00 0.000E+00 7.807E-06 9.826E+00 2.282E-01  0.0000 0.26763
  4.500E+00 3.116E+01 8.978E+00 8.458E-06 0.000E+00 0.000E+00 8.458E-06 8.978E+00 2.815E-01  0.0000 0.28290
  5.000E+00 3.289E+01 8.283E+00 9.079E-06 0.000E+00 0.000E+00 9.079E-06 8.283E+00 3.395E-01  0.0000 0.29720
  5.500E+00 3.453E+01 7.703E+00 9.673E-06 0.000E+00 0.000E+00 9.673E-06 7.703E+00 4.021E-01  0.0000 0.31066
  6.000E+00 3.611E+01 7.211E+00 1.024E-05 0.000E+00 0.000E+00 1.024E-05 7.211E+00 4.693E-01  0.0000 0.32339
  7.000E+00 3.909E+01 6.420E+00 1.132E-05 0.000E+00 0.000E+00 1.132E-05 6.420E+00 6.165E-01  0.0000 0.34700
  8.000E+00 4.189E+01 5.810E+00 1.233E-05 0.000E+00 0.000E+00 1.233E-05 5.811E+00 7.804E-01  0.0000 0.36854
  9.000E+00 4.453E+01 5.326E+00 1.329E-05 0.000E+00 0.000E+00 1.329E-05 5.326E+00 9.603E-01  0.0000 0.38836
  1.000E+01 4.704E+01 4.931E+00 1.419E-05 0.000E+00 0.000E+00 1.419E-05 4.931E+00 1.156E+00  0.0000 0.40675
  1.200E+01 5.177E+01 4.326E+00 1.588E-05 0.000E+00 0.000E+00 1.588E-05 4.326E+00 1.590E+00  0.0000 0.43998
  1.400E+01 5.616E+01 3.883E+00 1.744E-05 0.000E+00 0.000E+00 1.744E-05 3.883E+00 2.078E+00  0.0000 0.46937
  1.700E+01 6.230E+01 3.402E+00 1.961E-05 0.000E+00 0.000E+00 1.961E-05 3.402E+00 2.905E+00  0.0000 0.50792
  2.000E+01 6.802E+01 3.059E+00 2.162E-05 0.000E+00 0.000E+00 2.162E-05 3.059E+00 3.837E+00  0.0000 0.54129
  2.500E+01 7.686E+01 2.663E+00 2.474E-05 0.000E+00 0.000E+00 2.474E-05 2.663E+00 5.593E+00  0.0000 0.58827
  3.000E+01 8.509E+01 2.395E+00 2.766E-05 0.000E+00 0.000E+00 2.766E-05 2.395E+00 7.576E+00  0.0000 0.62720
  3.500E+01 9.285E+01 2.202E+00 3.045E-05 0.000E+00 0.000E+00 3.045E-05 2.202E+00 9.755E+00  0.0000 0.66011
  4.000E+01 1.003E+02 2.057E+00 3.316E-05 0.000E+00 0.000E+00 3.316E-05 2.057E+00 1.211E+01  0.0000 0.68834
  4.500E+01 1.074E+02 1.945E+00 3.582E-05 0.000E+00 0.000E+00 3.582E-05 1.945E+00 1.461E+01  0.0000 0.71286
  5.000E+01 1.143E+02 1.856E+00 3.845E-05 0.000E+00 0.000E+00 3.845E-05 1.856E+00 1.724E+01  0.0000 0.73434
  5.500E+01 1.210E+02 1.783E+00 4.107E-05 0.000E+00 0.000E+00 4.107E-05 1.783E+00 1.999E+01  0.0000 0.75332
  6.000E+01 1.276E+02 1.724E+00 4.368E-05 0.000E+00 0.000E+00 4.368E-05 1.724E+00 2.284E+01  0.0000 0.77019
  7.000E+01 1.403E+02 1.632E+00 4.893E-05 0.000E+00 0.000E+00 4.893E-05 1.632E+00 2.880E+01  0.0000 0.79887
  8.000E+01 1.527E+02 1.566E+00 5.423E-05 0.000E+00 0.000E+00 5.423E-05 1.566E+00 3.506E+01  0.0000 0.82227
  9.000E+01 1.647E+02 1.517E+00 5.962E-05 0.000E+00 0.000E+00 5.962E-05 1.517E+00 4.155E+01  0.0000 0.84166
  1.000E+02 1.764E+02 1.480E+00 6.511E-05 0.000E+00 0.000E+00 6.511E-05 1.480E+00 4.822E+01  0.0000 0.85794
  1.200E+02 1.994E+02 1.429E+00 7.639E-05 0.000E+00 0.000E+00 7.639E-05 1.429E+00 6.198E+01  0.0000 0.88361
  1.400E+02 2.218E+02 1.397E+00 8.812E-05 0.000E+00 0.000E+00 8.812E-05 1.397E+00 7.614E+01  0.0000 0.90278
  1.700E+02 2.546E+02 1.372E+00 1.066E-04 0.000E+00 0.000E+00 1.066E-04 1.372E+00 9.781E+01  0.0000 0.92363
  2.000E+02 2.868E+02 1.360E+00 1.260E-04 0.000E+00 0.000E+00 1.260E-04 1.361E+00 1.198E+02  0.0000 0.93835
  2.500E+02 3.396E+02 1.358E+00 1.604E-04 0.000E+00 0.000E+00 1.604E-04 1.358E+00 1.565E+02  0.0000 0.95485
  3.000E+02 3.917E+02 1.366E+00 1.972E-04 0.000E+00 0.000E+00 1.972E-04 1.366E+00 1.933E+02  0.0000 0.96548
  3.500E+02 4.432E+02 1.378E+00 2.362E-04 6.765E-06 0.000E+00 2.429E-04 1.378E+00 2.297E+02  0.0000 0.97274
  4.000E+02 4.945E+02 1.392E+00 2.771E-04 1.582E-05 0.000E+00 2.929E-04 1.392E+00 2.658E+02  0.0000 0.97793
  4.500E+02 5.455E+02 1.407E+00 3.199E-04 2.638E-05 0.000E+00 3.463E-04 1.407E+00 3.015E+02  0.0000 0.98176
  5.000E+02 5.964E+02 1.422E+00 3.644E-04 3.934E-05 0.000E+00 4.037E-04 1.422E+00 3.369E+02  0.0000 0.98467
  5.500E+02 6.471E+02 1.437E+00 4.105E-04 5.467E-05 0.000E+00 4.651E-04 1.437E+00 3.719E+02  0.0000 0.98693
  6.000E+02 6.977E+02 1.451E+00 4.580E-04 7.227E-05 0.000E+00 5.303E-04 1.452E+00 4.065E+02  0.0000 0.98873
  7.000E+02 7.987E+02 1.479E+00 5.573E-04 1.140E-04 0.000E+00 6.714E-04 1.479E+00 4.747E+02  0.0000 0.99136
  8.000E+02 8.995E+02 1.504E+00 6.617E-04 1.641E-04 0.000E+00 8.257E-04 1.505E+00 5.417E+02  0.0000 0.99317
  9.000E+02 1.000E+03 1.528E+00 7.706E-04 2.218E-04 0.000E+00 9.924E-04 1.529E+00 6.076E+02  0.0000 0.99447
  1.000E+03 1.101E+03 1.550E+00 8.836E-04 2.868E-04 0.000E+00 1.170E-03 1.551E+00 6.726E+02  0.0000 0.99542
  1.200E+03 1.301E+03 1.590E+00 1.121E-03 4.370E-04 2.248E-05 1.580E-03 1.591E+00 7.999E+02  0.0000 0.99672
  1.400E+03 1.502E+03 1.624E+00 1.372E-03 6.116E-04 6.113E-05 2.044E-03 1.627E+00 9.242E+02  0.0000 0.99753
  1.700E+03 1.803E+03 1.669E+00 1.769E-03 9.143E-04 1.299E-04 2.813E-03 1.672E+00 1.106E+03  0.0000 0.99829
  2.000E+03 2.103E+03 1.708E+00 2.189E-03 1.260E-03 2.102E-04 3.659E-03 1.711E+00 1.283E+03  0.0000 0.99874
  2.500E+03 2.604E+03 1.761E+00 2.930E-03 1.920E-03 3.640E-04 5.214E-03 1.766E+00 1.571E+03  0.0000 0.99918
  3.000E+03 3.104E+03 1.805E+00 3.716E-03 2.669E-03 5.238E-04 6.909E-03 1.812E+00 1.851E+03  0.0000 0.99942
  3.500E+03 3.604E+03 1.843E+00 4.539E-03 3.495E-03 6.919E-04 8.726E-03 1.852E+00 2.124E+03  0.0000 0.99957
  4.000E+03 4.104E+03 1.875E+00 5.394E-03 4.399E-03 8.706E-04 1.066E-02 1.886E+00 2.391E+03  0.0000 0.99967
  4.500E+03 4.604E+03 1.904E+00 6.278E-03 5.369E-03 1.056E-03 1.270E-02 1.917E+00 2.654E+03  0.0000 0.99974
  5.000E+03 5.105E+03 1.930E+00 7.187E-03 6.393E-03 1.233E-03 1.481E-02 1.945E+00 2.913E+03  0.0000 0.99979
  5.500E+03 5.605E+03 1.953E+00 8.120E-03 7.466E-03 1.423E-03 1.701E-02 1.970E+00 3.169E+03  0.0020 0.99982
  6.000E+03 6.105E+03 1.974E+00 9.074E-03 8.586E-03 1.600E-03 1.926E-02 1.994E+00 3.421E+03  0.0028 0.99985
  7.000E+03 7.105E+03 2.011E+00 1.104E-02 1.095E-02 1.974E-03 2.396E-02 2.035E+00 3.917E+03  0.0154 0.99989
  8.000E+03 8.105E+03 2.042E+00 1.307E-02 1.345E-02 2.345E-03 2.887E-02 2.071E+00 4.404E+03  0.0375 0.99992
  9.000E+03 9.105E+03 2.069E+00 1.516E-02 1.608E-02 2.692E-03 3.393E-02 2.103E+00 4.884E+03  0.0656 0.99993
  1.000E+04 1.011E+04 2.092E+00 1.730E-02 1.883E-02 3.049E-03 3.918E-02 2.131E+00 5.356E+03  0.0973 0.99995
  1.200E+04 1.211E+04 2.132E+00 2.172E-02 2.461E-02 3.772E-03 5.010E-02 2.182E+00 6.283E+03  0.1666 0.99996
  1.400E+04 1.411E+04 2.164E+00 2.629E-02 3.072E-02 4.494E-03 6.151E-02 2.225E+00 7.191E+03  0.2392 0.99997
  1.700E+04 1.711E+04 2.203E+00 3.340E-02 4.040E-02 5.560E-03 7.936E-02 2.282E+00 8.523E+03  0.3483 0.99998
  2.000E+04 2.011E+04 2.234E+00 4.075E-02 5.060E-02 6.604E-03 9.795E-02 2.332E+00 9.823E+03  0.4541 0.99999
  2.500E+04 2.511E+04 2.275E+00 5.344E-02 6.850E-02 8.312E-03 1.302E-01 2.405E+00 1.193E+04  0.6203 0.99999
  3.000E+04 3.011E+04 2.307E+00 6.658E-02 8.731E-02 9.984E-03 1.639E-01 2.471E+00 1.399E+04  0.7733 0.99999
  3.500E+04 3.511E+04 2.333E+00 8.009E-02 1.068E-01 1.167E-02 1.986E-01 2.532E+00 1.598E+04  0.9142 1.00000
  4.000E+04 4.011E+04 2.355E+00 9.391E-02 1.270E-01 1.334E-02 2.342E-01 2.589E+00 1.794E+04  1.0445 1.00000
  4.500E+04 4.511E+04 2.374E+00 1.080E-01 1.476E-01 1.498E-02 2.706E-01 2.645E+00 1.985E+04  1.1656 1.00000
  5.000E+04 5.011E+04 2.390E+00 1.223E-01 1.687E-01 1.661E-02 3.077E-01 2.698E+00 2.172E+04  1.2787 1.00000
  5.500E+04 5.511E+04 2.405E+00 1.369E-01 1.902E-01 1.826E-02 3.453E-01 2.750E+00 2.356E+04  1.3848 1.00000
  6.000E+04 6.011E+04 2.418E+00 1.516E-01 2.120E-01 1.989E-02 3.835E-01 2.801E+00 2.536E+04  1.4847 1.00000
  7.000E+04 7.011E+04 2.440E+00 1.815E-01 2.564E-01 2.313E-02 4.611E-01 2.901E+00 2.887E+04  1.6687 1.00000
  8.000E+04 8.011E+04 2.459E+00 2.120E-01 3.019E-01 2.636E-02 5.402E-01 2.999E+00 3.226E+04  1.8350 1.00000
  9.000E+04 9.011E+04 2.475E+00 2.430E-01 3.481E-01 2.960E-02 6.207E-01 3.096E+00 3.554E+04  1.9868 1.00000
  1.000E+05 1.001E+05 2.490E+00 2.744E-01 3.950E-01 3.277E-02 7.022E-01 3.192E+00 3.872E+04  2.1266 1.00000
  1.200E+05 1.201E+05 2.513E+00 3.383E-01 4.904E-01 3.922E-02 8.680E-01 3.381E+00 4.481E+04  2.3770 1.00000
  1.400E+05 1.401E+05 2.533E+00 4.034E-01 5.877E-01 4.567E-02 1.037E+00 3.570E+00 5.057E+04  2.5967 1.00000
  1.700E+05 1.701E+05 2.557E+00 5.028E-01 7.362E-01 5.533E-02 1.294E+00 3.851E+00 5.867E+04  2.8834 1.00000
  2.000E+05 2.001E+05 2.576E+00 6.040E-01 8.871E-01 6.505E-02 1.556E+00 4.132E+00 6.619E+04  3.1315 1.00000
  2.500E+05 2.501E+05 2.602E+00 7.757E-01 1.143E+00 8.127E-02 1.999E+00 4.602E+00 7.767E+04  3.4833 1.00000
  3.000E+05 3.001E+05 2.623E+00 9.503E-01 1.402E+00 9.761E-02 2.450E+00 5.072E+00 8.803E+04  3.7798 1.00000
  3.500E+05 3.501E+05 2.640E+00 1.127E+00 1.664E+00 1.141E-01 2.905E+00 5.544E+00 9.747E+04  4.0364 1.00000
  4.000E+05 4.001E+05 2.654E+00 1.306E+00 1.927E+00 1.307E-01 3.364E+00 6.018E+00 1.061E+05  4.2628 1.00000
  4.500E+05 4.501E+05 2.667E+00 1.486E+00 2.193E+00 1.474E-01 3.827E+00 6.493E+00 1.141E+05  4.4655 1.00000
  5.000E+05 5.001E+05 2.678E+00 1.668E+00 2.460E+00 1.642E-01 4.292E+00 6.970E+00 1.216E+05  4.6491 1.00000
  5.500E+05 5.501E+05 2.688E+00 1.851E+00 2.728E+00 1.809E-01 4.760E+00 7.448E+00 1.285E+05  4.8170 1.00000
  6.000E+05 6.001E+05 2.697E+00 2.035E+00 2.998E+00 1.977E-01 5.230E+00 7.927E+00 1.350E+05  4.9716 1.00000
  7.000E+05 7.001E+05 2.712E+00 2.405E+00 3.539E+00 2.315E-01 6.175E+00 8.888E+00 1.470E+05  5.2487 1.00000
  8.000E+05 8.001E+05 2.726E+00 2.778E+00 4.082E+00 2.657E-01 7.126E+00 9.852E+00 1.577E+05  5.4918 1.00000
  9.000E+05 9.001E+05 2.738E+00 3.154E+00 4.628E+00 3.002E-01 8.082E+00 1.082E+01 1.674E+05  5.7085 1.00000
  1.000E+06 1.000E+06 2.748E+00 3.531E+00 5.176E+00 3.350E-01 9.042E+00 1.179E+01 1.762E+05  5.9039 1.00000
  1.200E+06 1.200E+06 2.766E+00 4.291E+00 6.275E+00 4.055E-01 1.097E+01 1.374E+01 1.920E+05  6.2454 1.00000
  1.400E+06 1.400E+06 2.781E+00 5.056E+00 7.378E+00 4.769E-01 1.291E+01 1.569E+01 2.056E+05  6.5373 1.00000
  1.700E+06 1.700E+06 2.800E+00 6.211E+00 9.040E+00 5.858E-01 1.584E+01 1.864E+01 2.232E+05  6.9085 1.00000
  2.000E+06 2.000E+06 2.816E+00 7.372E+00 1.071E+01 6.963E-01 1.877E+01 2.159E+01 2.382E+05  7.2220 1.00000
  2.500E+06 2.500E+06 2.837E+00 9.319E+00 1.349E+01 8.840E-01 2.370E+01 2.653E+01 2.592E+05  7.6560 1.00000
  3.000E+06 3.000E+06 2.855E+00 1.128E+01 1.628E+01 1.075E+00 2.864E+01 3.149E+01 2.766E+05  8.0132 1.00000
  3.500E+06 3.500E+06 2.869E+00 1.324E+01 1.908E+01 1.270E+00 3.359E+01 3.646E+01 2.914E+05  8.3168 1.00000
  4.000E+06 4.000E+06 2.882E+00 1.521E+01 2.189E+01 1.467E+00 3.857E+01 4.145E+01 3.043E+05  8.5807 1.00000
  4.500E+06 4.500E+06 2.894E+00 1.719E+01 2.469E+01 1.666E+00 4.355E+01 4.644E+01 3.157E+05  8.8141 1.00000
  5.000E+06 5.000E+06 2.904E+00 1.917E+01 2.750E+01 1.868E+00 4.854E+01 5.144E+01 3.259E+05  9.0234 1.00000
  5.500E+06 5.500E+06 2.913E+00 2.115E+01 3.031E+01 2.072E+00 5.353E+01 5.644E+01 3.352E+05  9.2130 1.00000
  6.000E+06 6.000E+06 2.921E+00 2.314E+01 3.312E+01 2.277E+00 5.853E+01 6.146E+01 3.437E+05  9.3863 1.00000
  7.000E+06 7.000E+06 2.936E+00 2.711E+01 3.875E+01 2.694E+00 6.856E+01 7.149E+01 3.589E+05  9.6937 1.00000
  8.000E+06 8.000E+06 2.949E+00 3.110E+01 4.438E+01 3.117E+00 7.860E+01 8.155E+01 3.720E+05  9.9604 1.00000
  9.000E+06 9.000E+06 2.961E+00 3.509E+01 5.002E+01 3.545E+00 8.865E+01 9.161E+01 3.836E+05 10.1958 1.00000
  1.000E+07 1.000E+07 2.971E+00 3.908E+01 5.566E+01 3.978E+00 9.872E+01 1.017E+02 3.939E+05 10.4064 1.00000
  1.200E+07 1.200E+07 2.989E+00 4.708E+01 6.694E+01 4.858E+00 1.189E+02 1.219E+02 4.120E+05 10.7710 1.00000
  1.400E+07 1.400E+07 3.005E+00 5.509E+01 7.823E+01 5.754E+00 1.391E+02 1.421E+02 4.272E+05 11.0793 1.00000
  1.700E+07 1.700E+07 3.024E+00 6.713E+01 9.518E+01 7.122E+00 1.694E+02 1.725E+02 4.465E+05 11.4676 1.00000
  2.000E+07 2.000E+07 3.041E+00 7.917E+01 1.121E+02 8.517E+00 1.998E+02 2.029E+02 4.626E+05 11.7927 1.00000
  2.500E+07 2.500E+07 3.064E+00 9.927E+01 1.404E+02 1.089E+01 2.506E+02 2.536E+02 4.848E+05 12.2390 1.00000
  3.000E+07 3.000E+07 3.082E+00 1.194E+02 1.687E+02 1.332E+01 3.014E+02 3.045E+02 5.028E+05 12.6036 1.00000
  3.500E+07 3.500E+07 3.098E+00 1.395E+02 1.970E+02 1.579E+01 3.523E+02 3.554E+02 5.181E+05 12.9119 1.00000
  4.000E+07 4.000E+07 3.112E+00 1.597E+02 2.252E+02 1.830E+01 4.032E+02 4.063E+02 5.313E+05 13.1790 1.00000
  4.500E+07 4.500E+07 3.125E+00 1.798E+02 2.535E+02 2.085E+01 4.542E+02 4.573E+02 5.429E+05 13.4145 1.00000
  5.000E+07 5.000E+07 3.136E+00 1.999E+02 2.818E+02 2.343E+01 5.052E+02 5.083E+02 5.533E+05 13.6252 1.00000
  5.500E+07 5.500E+07 3.146E+00 2.201E+02 3.101E+02 2.603E+01 5.563E+02 5.594E+02 5.627E+05 13.8159 1.00000
  6.000E+07 6.000E+07 3.155E+00 2.403E+02 3.384E+02 2.867E+01 6.074E+02 6.105E+02 5.712E+05 13.9899 1.00000
  7.000E+07 7.000E+07 3.172E+00 2.806E+02 3.950E+02 3.400E+01 7.096E+02 7.128E+02 5.864E+05 14.2982 1.00000
  8.000E+07 8.000E+07 3.186E+00 3.209E+02 4.516E+02 3.943E+01 8.120E+02 8.152E+02 5.996E+05 14.5653 1.00000
  9.000E+07 9.000E+07 3.199E+00 3.613E+02 5.083E+02 4.493E+01 9.145E+02 9.177E+02 6.112E+05 14.8008 1.00000
  1.000E+08 1.000E+08 3.211E+00 4.016E+02 5.649E+02 5.050E+01 1.017E+03 1.020E+03 6.215E+05 15.0115 1.00000
  1.200E+08 1.200E+08 3.231E+00 4.824E+02 6.781E+02 6.183E+01 1.222E+03 1.226E+03 6.395E+05 15.3762 1.00000
  1.400E+08 1.400E+08 3.248E+00 5.631E+02 7.913E+02 7.338E+01 1.428E+03 1.431E+03 6.546E+05 15.6845 1.00000
  1.700E+08 1.700E+08 3.270E+00 6.842E+02 9.612E+02 9.104E+01 1.736E+03 1.740E+03 6.737E+05 16.0728 1.00000
  2.000E+08 2.000E+08 3.288E+00 8.054E+02 1.131E+03 1.091E+02 2.045E+03 2.049E+03 6.897E+05 16.3978 1.00000
  2.500E+08 2.500E+08 3.314E+00 1.007E+03 1.414E+03 1.398E+02 2.561E+03 2.565E+03 7.116E+05 16.8441 1.00000
  3.000E+08 3.000E+08 3.335E+00 1.209E+03 1.697E+03 1.712E+02 3.078E+03 3.081E+03 7.295E+05 17.2088 1.00000
  3.500E+08 3.500E+08 3.353E+00 1.411E+03 1.980E+03 2.033E+02 3.595E+03 3.598E+03 7.445E+05 17.5171 1.00000
  4.000E+08 4.000E+08 3.368E+00 1.613E+03 2.264E+03 2.359E+02 4.113E+03 4.116E+03 7.576E+05 17.7841 1.00000
  4.500E+08 4.500E+08 3.382E+00 1.815E+03 2.547E+03 2.690E+02 4.631E+03 4.634E+03 7.690E+05 18.0197 1.00000
  5.000E+08 5.000E+08 3.395E+00 2.017E+03 2.830E+03 3.025E+02 5.149E+03 5.153E+03 7.793E+05 18.2304 1.00000
  5.500E+08 5.500E+08 3.406E+00 2.219E+03 3.113E+03 3.364E+02 5.668E+03 5.672E+03 7.885E+05 18.4210 1.00000
  6.000E+08 6.000E+08 3.416E+00 2.421E+03 3.396E+03 3.707E+02 6.188E+03 6.191E+03 7.970E+05 18.5951 1.00000
  7.000E+08 7.000E+08 3.435E+00 2.825E+03 3.962E+03 4.402E+02 7.227E+03 7.231E+03 8.120E+05 18.9034 1.00000
  8.000E+08 8.000E+08 3.451E+00 3.229E+03 4.528E+03 5.110E+02 8.268E+03 8.272E+03 8.249E+05 19.1704 1.00000
  9.000E+08 9.000E+08 3.465E+00 3.633E+03 5.095E+03 5.827E+02 9.310E+03 9.314E+03 8.363E+05 19.4060 1.00000
  1.000E+09 1.000E+09 3.478E+00 4.037E+03 5.661E+03 6.555E+02 1.035E+04 1.036E+04 8.465E+05 19.6167 1.00000
