 Incident particle is a Muon with M = 105.65839 MeV
 Index = 0: LanthanumOxybromide
      Absorber with <Z/A> = 0.42588
 Sternheimer coef:  a     k=m_s   x_0    x_1    I[eV]   Cbar  delta0
                 0.1783  2.8457  0.0350  3.3288  439.7  5.4666 0.00

 *** Table generated with PUMAS v1.00 ***

      T         p     Ionization  brems     pair     photonuc  Radloss    dE/dx   CSDA Range  delta   beta
    [MeV]    [MeV/c]  -----------------------[MeV cm^2/g]------------------------  [g/cm^2]
  1.000E+00 1.457E+01 2.638E+01 3.466E-06 0.000E+00 0.000E+00 3.466E-06 2.638E+01 1.895E-02  0.0000 0.13661
  1.200E+00 1.597E+01 2.310E+01 3.982E-06 0.000E+00 0.000E+00 3.982E-06 2.310E+01 2.707E-02  0.0000 0.14944
  1.400E+00 1.726E+01 2.062E+01 4.472E-06 0.000E+00 0.000E+00 4.472E-06 2.062E+01 3.625E-02  0.0000 0.16119
  1.700E+00 1.903E+01 1.784E+01 5.165E-06 0.000E+00 0.000E+00 5.165E-06 1.784E+01 5.193E-02  0.0000 0.17725
  2.000E+00 2.066E+01 1.579E+01 5.817E-06 0.000E+00 0.000E+00 5.817E-06 1.579E+01 6.984E-02  0.0000 0.19186
  2.500E+00 2.312E+01 1.334E+01 6.830E-06 0.000E+00 0.000E+00 6.830E-06 1.334E+01 1.044E-01  0.0000 0.21376
  3.000E+00 2.536E+01 1.162E+01 7.768E-06 0.000E+00 0.000E+00 7.768E-06 1.162E+01 1.447E-01  0.0000 0.23336
  3.500E+00 2.742E+01 1.033E+01 8.645E-06 0.000E+00 0.000E+00 8.645E-06 1.033E+01 1.904E-01  0.0000 0.25120
  4.000E+00 2.935E+01 9.335E+00 9.471E-06 0.000E+00 0.000E+00 9.471E-06 9.335E+00 2.414E-01  0.0000 0.26763
  4.500E+00 3.116E+01 8.537E+00 1.025E-05 0.000E+00 0.000E+00 1.025E-05 8.537E+00 2.974E-01  0.0000 0.28290
  5.000E+00 3.289E+01 7.882E+00 1.100E-05 0.000E+00 0.000E+00 1.100E-05 7.882E+00 3.584E-01  0.0000 0.29720
  5.500E+00 3.453E+01 7.335E+00 1.171E-05 0.000E+00 0.000E+00 1.171E-05 7.335E+00 4.242E-01  0.0000 0.31066
  6.000E+00 3.611E+01 6.870E+00 1.240E-05 0.000E+00 0.000E+00 1.240E-05 6.870E+00 4.947E-01  0.0000 0.32339
  7.000E+00 3.909E+01 6.122E+00 1.369E-05 0.000E+00 0.000E+00 1.369E-05 6.122E+00 6.491E-01  0.0000 0.34700
  8.000E+00 4.189E+01 5.546E+00 1.490E-05 0.000E+00 0.000E+00 1.490E-05 5.546E+00 8.210E-01  0.0000 0.36854
  9.000E+00 4.453E+01 5.087E+00 1.604E-05 0.000E+00 0.000E+00 1.604E-05 5.087E+00 1.009E+00  0.0000 0.38836
  1.000E+01 4.704E+01 4.713E+00 1.712E-05 0.000E+00 0.000E+00 1.712E-05 4.713E+00 1.214E+00  0.0000 0.40675
  1.200E+01 5.177E+01 4.138E+00 1.913E-05 0.000E+00 0.000E+00 1.913E-05 4.138E+00 1.668E+00  0.0000 0.43998
  1.400E+01 5.616E+01 3.717E+00 2.099E-05 0.000E+00 0.000E+00 2.099E-05 3.717E+00 2.178E+00  0.0000 0.46937
  1.700E+01 6.230E+01 3.260E+00 2.358E-05 0.000E+00 0.000E+00 2.358E-05 3.260E+00 3.042E+00  0.0000 0.50792
  2.000E+01 6.802E+01 2.933E+00 2.597E-05 0.000E+00 0.000E+00 2.597E-05 2.933E+00 4.013E+00  0.0000 0.54129
  2.500E+01 7.686E+01 2.556E+00 2.967E-05 0.000E+00 0.000E+00 2.967E-05 2.556E+00 5.844E+00  0.0000 0.58827
  3.000E+01 8.509E+01 2.300E+00 3.314E-05 0.000E+00 0.000E+00 3.314E-05 2.300E+00 7.909E+00  0.0000 0.62720
  3.500E+01 9.285E+01 2.116E+00 3.646E-05 0.000E+00 0.000E+00 3.646E-05 2.116E+00 1.018E+01  0.0000 0.66011
  4.000E+01 1.003E+02 1.978E+00 3.969E-05 0.000E+00 0.000E+00 3.969E-05 1.978E+00 1.262E+01  0.0000 0.68834
  4.500E+01 1.074E+02 1.871E+00 4.286E-05 0.000E+00 0.000E+00 4.286E-05 1.871E+00 1.522E+01  0.0000 0.71286
  5.000E+01 1.143E+02 1.786E+00 4.600E-05 0.000E+00 0.000E+00 4.600E-05 1.786E+00 1.796E+01  0.0000 0.73434
  5.500E+01 1.210E+02 1.717E+00 4.912E-05 0.000E+00 0.000E+00 4.912E-05 1.717E+00 2.082E+01 -0.0030 0.75332
  6.000E+01 1.276E+02 1.660E+00 5.224E-05 0.000E+00 0.000E+00 5.224E-05 1.660E+00 2.378E+01 -0.0004 0.77019
  7.000E+01 1.403E+02 1.572E+00 5.850E-05 0.000E+00 0.000E+00 5.850E-05 1.572E+00 2.997E+01  0.0078 0.79887
  8.000E+01 1.527E+02 1.508E+00 6.484E-05 0.000E+00 0.000E+00 6.484E-05 1.508E+00 3.647E+01  0.0186 0.82227
  9.000E+01 1.647E+02 1.460E+00 7.128E-05 0.000E+00 0.000E+00 7.128E-05 1.460E+00 4.321E+01  0.0311 0.84166
  1.000E+02 1.764E+02 1.423E+00 7.784E-05 0.000E+00 0.000E+00 7.784E-05 1.423E+00 5.015E+01  0.0449 0.85794
  1.200E+02 1.994E+02 1.373E+00 9.135E-05 0.000E+00 0.000E+00 9.135E-05 1.373E+00 6.446E+01  0.0746 0.88361
  1.400E+02 2.218E+02 1.341E+00 1.054E-04 0.000E+00 0.000E+00 1.054E-04 1.341E+00 7.920E+01  0.1060 0.90278
  1.700E+02 2.546E+02 1.314E+00 1.275E-04 3.444E-15 0.000E+00 1.275E-04 1.314E+00 1.018E+02  0.1543 0.92363
  2.000E+02 2.868E+02 1.301E+00 1.508E-04 7.702E-13 0.000E+00 1.508E-04 1.301E+00 1.247E+02  0.2027 0.93835
  2.500E+02 3.396E+02 1.294E+00 1.922E-04 6.323E-09 0.000E+00 1.922E-04 1.294E+00 1.633E+02  0.2819 0.95485
  3.000E+02 3.917E+02 1.297E+00 2.364E-04 5.658E-08 0.000E+00 2.364E-04 1.298E+00 2.019E+02  0.3582 0.96548
  3.500E+02 4.432E+02 1.305E+00 2.833E-04 2.569E-06 0.000E+00 2.858E-04 1.306E+00 2.403E+02  0.4313 0.97274
  4.000E+02 4.945E+02 1.315E+00 3.325E-04 5.655E-06 0.000E+00 3.382E-04 1.315E+00 2.784E+02  0.5012 0.97793
  4.500E+02 5.455E+02 1.326E+00 3.841E-04 3.160E-05 0.000E+00 4.157E-04 1.326E+00 3.163E+02  0.5680 0.98176
  5.000E+02 5.964E+02 1.337E+00 4.377E-04 4.833E-05 0.000E+00 4.860E-04 1.337E+00 3.538E+02  0.6319 0.98467
  5.500E+02 6.471E+02 1.348E+00 4.933E-04 6.741E-05 0.000E+00 5.607E-04 1.348E+00 3.911E+02  0.6933 0.98693
  6.000E+02 6.977E+02 1.358E+00 5.507E-04 8.928E-05 0.000E+00 6.399E-04 1.359E+00 4.280E+02  0.7521 0.98873
  7.000E+02 7.987E+02 1.379E+00 6.705E-04 1.412E-04 0.000E+00 8.117E-04 1.380E+00 5.010E+02  0.8633 0.99136
  8.000E+02 8.995E+02 1.398E+00 7.965E-04 2.033E-04 0.000E+00 9.998E-04 1.399E+00 5.730E+02  0.9667 0.99317
  9.000E+02 1.000E+03 1.415E+00 9.281E-04 2.751E-04 0.000E+00 1.203E-03 1.416E+00 6.441E+02  1.0634 0.99447
  1.000E+03 1.101E+03 1.431E+00 1.065E-03 3.560E-04 0.000E+00 1.421E-03 1.433E+00 7.143E+02  1.1542 0.99542
  1.200E+03 1.301E+03 1.460E+00 1.352E-03 5.427E-04 2.248E-05 1.917E-03 1.462E+00 8.525E+02  1.3210 0.99672
  1.400E+03 1.502E+03 1.484E+00 1.655E-03 7.600E-04 6.107E-05 2.476E-03 1.487E+00 9.881E+02  1.4715 0.99753
  1.700E+03 1.803E+03 1.516E+00 2.137E-03 1.137E-03 1.297E-04 3.403E-03 1.519E+00 1.188E+03  1.6732 0.99829
  2.000E+03 2.103E+03 1.542E+00 2.646E-03 1.567E-03 2.097E-04 4.423E-03 1.547E+00 1.383E+03  1.8522 0.99874
  2.500E+03 2.604E+03 1.578E+00 3.546E-03 2.388E-03 3.628E-04 6.297E-03 1.585E+00 1.703E+03  2.1126 0.99918
  3.000E+03 3.104E+03 1.607E+00 4.500E-03 3.321E-03 5.218E-04 8.342E-03 1.616E+00 2.015E+03  2.3376 0.99942
  3.500E+03 3.604E+03 1.632E+00 5.500E-03 4.348E-03 6.889E-04 1.054E-02 1.642E+00 2.322E+03  2.5362 0.99957
  4.000E+03 4.104E+03 1.652E+00 6.540E-03 5.470E-03 8.664E-04 1.288E-02 1.665E+00 2.625E+03  2.7142 0.99967
  4.500E+03 4.604E+03 1.670E+00 7.615E-03 6.671E-03 1.050E-03 1.534E-02 1.686E+00 2.923E+03  2.8756 0.99974
  5.000E+03 5.105E+03 1.686E+00 8.721E-03 7.940E-03 1.226E-03 1.789E-02 1.704E+00 3.218E+03  3.0234 0.99979
  5.500E+03 5.605E+03 1.701E+00 9.856E-03 9.270E-03 1.415E-03 2.054E-02 1.721E+00 3.510E+03  3.1599 0.99982
  6.000E+03 6.105E+03 1.713E+00 1.102E-02 1.066E-02 1.590E-03 2.326E-02 1.737E+00 3.799E+03  3.2868 0.99985
  7.000E+03 7.105E+03 1.736E+00 1.341E-02 1.358E-02 1.961E-03 2.895E-02 1.765E+00 4.370E+03  3.5165 0.99989
  8.000E+03 8.105E+03 1.755E+00 1.588E-02 1.668E-02 2.329E-03 3.489E-02 1.789E+00 4.933E+03  3.7207 0.99992
  9.000E+03 9.105E+03 1.771E+00 1.843E-02 1.994E-02 2.672E-03 4.103E-02 1.812E+00 5.489E+03  3.9045 0.99993
  1.000E+04 1.011E+04 1.785E+00 2.103E-02 2.333E-02 3.026E-03 4.739E-02 1.833E+00 6.037E+03  4.0718 0.99995
  1.200E+04 1.211E+04 1.809E+00 2.642E-02 3.047E-02 3.742E-03 6.064E-02 1.870E+00 7.118E+03  4.3675 0.99996
  1.400E+04 1.411E+04 1.829E+00 3.199E-02 3.802E-02 4.457E-03 7.448E-02 1.904E+00 8.178E+03  4.6235 0.99997
  1.700E+04 1.711E+04 1.853E+00 4.066E-02 4.998E-02 5.512E-03 9.615E-02 1.949E+00 9.735E+03  4.9532 0.99998
  2.000E+04 2.011E+04 1.873E+00 4.962E-02 6.255E-02 6.544E-03 1.187E-01 1.992E+00 1.126E+04  5.2350 0.99999
  2.500E+04 2.511E+04 1.899E+00 6.509E-02 8.462E-02 8.233E-03 1.579E-01 2.057E+00 1.373E+04  5.6301 0.99999
  3.000E+04 3.011E+04 1.919E+00 8.112E-02 1.078E-01 9.885E-03 1.988E-01 2.118E+00 1.613E+04  5.9595 0.99999
  3.500E+04 3.511E+04 1.936E+00 9.759E-02 1.318E-01 1.155E-02 2.410E-01 2.177E+00 1.845E+04  6.2422 1.00000
  4.000E+04 4.011E+04 1.950E+00 1.144E-01 1.566E-01 1.320E-02 2.843E-01 2.234E+00 2.072E+04  6.4900 1.00000
  4.500E+04 4.511E+04 1.962E+00 1.316E-01 1.820E-01 1.481E-02 3.284E-01 2.290E+00 2.293E+04  6.7107 1.00000
  5.000E+04 5.011E+04 1.972E+00 1.491E-01 2.079E-01 1.643E-02 3.734E-01 2.346E+00 2.509E+04  6.9097 1.00000
  5.500E+04 5.511E+04 1.982E+00 1.668E-01 2.343E-01 1.806E-02 4.191E-01 2.401E+00 2.720E+04  7.0910 1.00000
  6.000E+04 6.011E+04 1.990E+00 1.848E-01 2.610E-01 1.967E-02 4.655E-01 2.456E+00 2.926E+04  7.2574 1.00000
  7.000E+04 7.011E+04 2.005E+00 2.213E-01 3.156E-01 2.286E-02 5.597E-01 2.565E+00 3.324E+04  7.5543 1.00000
  8.000E+04 8.011E+04 2.018E+00 2.585E-01 3.713E-01 2.605E-02 6.558E-01 2.674E+00 3.706E+04  7.8134 1.00000
  9.000E+04 9.011E+04 2.029E+00 2.962E-01 4.279E-01 2.924E-02 7.534E-01 2.782E+00 4.073E+04  8.0434 1.00000
  1.000E+05 1.001E+05 2.038E+00 3.345E-01 4.854E-01 3.237E-02 8.522E-01 2.891E+00 4.425E+04  8.2501 1.00000
  1.200E+05 1.201E+05 2.055E+00 4.124E-01 6.022E-01 3.874E-02 1.053E+00 3.108E+00 5.093E+04  8.6097 1.00000
  1.400E+05 1.401E+05 2.069E+00 4.917E-01 7.213E-01 4.509E-02 1.258E+00 3.327E+00 5.715E+04  8.9153 1.00000
  1.700E+05 1.701E+05 2.086E+00 6.128E-01 9.028E-01 5.462E-02 1.570E+00 3.656E+00 6.577E+04  9.3018 1.00000
  2.000E+05 2.001E+05 2.100E+00 7.360E-01 1.087E+00 6.420E-02 1.887E+00 3.987E+00 7.363E+04  9.6262 1.00000
  2.500E+05 2.501E+05 2.120E+00 9.449E-01 1.399E+00 8.019E-02 2.424E+00 4.544E+00 8.540E+04 10.0723 1.00000
  3.000E+05 3.001E+05 2.135E+00 1.157E+00 1.715E+00 9.628E-02 2.969E+00 5.105E+00 9.580E+04 10.4368 1.00000
  3.500E+05 3.501E+05 2.149E+00 1.373E+00 2.035E+00 1.126E-01 3.520E+00 5.669E+00 1.051E+05 10.7450 1.00000
  4.000E+05 4.001E+05 2.161E+00 1.590E+00 2.357E+00 1.289E-01 4.076E+00 6.237E+00 1.135E+05 11.0119 1.00000
  4.500E+05 4.501E+05 2.171E+00 1.810E+00 2.681E+00 1.454E-01 4.636E+00 6.806E+00 1.212E+05 11.2475 1.00000
  5.000E+05 5.001E+05 2.180E+00 2.031E+00 3.006E+00 1.619E-01 5.199E+00 7.379E+00 1.283E+05 11.4581 1.00000
  5.500E+05 5.501E+05 2.188E+00 2.253E+00 3.333E+00 1.783E-01 5.764E+00 7.953E+00 1.348E+05 11.6487 1.00000
  6.000E+05 6.001E+05 2.196E+00 2.476E+00 3.661E+00 1.949E-01 6.332E+00 8.529E+00 1.409E+05 11.8227 1.00000
  7.000E+05 7.001E+05 2.210E+00 2.926E+00 4.320E+00 2.282E-01 7.475E+00 9.685E+00 1.519E+05 12.1310 1.00000
  8.000E+05 8.001E+05 2.222E+00 3.380E+00 4.982E+00 2.619E-01 8.624E+00 1.085E+01 1.617E+05 12.3980 1.00000
  9.000E+05 9.001E+05 2.232E+00 3.836E+00 5.647E+00 2.959E-01 9.779E+00 1.201E+01 1.704E+05 12.6335 1.00000
  1.000E+06 1.000E+06 2.241E+00 4.295E+00 6.314E+00 3.302E-01 1.094E+01 1.318E+01 1.784E+05 12.8442 1.00000
  1.200E+06 1.200E+06 2.258E+00 5.217E+00 7.652E+00 3.996E-01 1.327E+01 1.553E+01 1.924E+05 13.2088 1.00000
  1.400E+06 1.400E+06 2.272E+00 6.146E+00 8.995E+00 4.699E-01 1.561E+01 1.788E+01 2.045E+05 13.5171 1.00000
  1.700E+06 1.700E+06 2.289E+00 7.548E+00 1.102E+01 5.771E-01 1.914E+01 2.143E+01 2.199E+05 13.9054 1.00000
  2.000E+06 2.000E+06 2.304E+00 8.957E+00 1.304E+01 6.860E-01 2.269E+01 2.499E+01 2.329E+05 14.2304 1.00000
  2.500E+06 2.500E+06 2.324E+00 1.132E+01 1.643E+01 8.708E-01 2.862E+01 3.095E+01 2.509E+05 14.6767 1.00000
  3.000E+06 3.000E+06 2.341E+00 1.369E+01 1.983E+01 1.059E+00 3.458E+01 3.693E+01 2.658E+05 15.0413 1.00000
  3.500E+06 3.500E+06 2.356E+00 1.608E+01 2.323E+01 1.251E+00 4.056E+01 4.292E+01 2.784E+05 15.3496 1.00000
  4.000E+06 4.000E+06 2.368E+00 1.847E+01 2.664E+01 1.445E+00 4.655E+01 4.892E+01 2.893E+05 15.6166 1.00000
  4.500E+06 4.500E+06 2.379E+00 2.086E+01 3.006E+01 1.641E+00 5.256E+01 5.494E+01 2.990E+05 15.8522 1.00000
  5.000E+06 5.000E+06 2.389E+00 2.326E+01 3.347E+01 1.840E+00 5.857E+01 6.096E+01 3.076E+05 16.0629 1.00000
  5.500E+06 5.500E+06 2.398E+00 2.566E+01 3.689E+01 2.041E+00 6.459E+01 6.699E+01 3.155E+05 16.2535 1.00000
  6.000E+06 6.000E+06 2.406E+00 2.807E+01 4.031E+01 2.243E+00 7.062E+01 7.303E+01 3.226E+05 16.4276 1.00000
  7.000E+06 7.000E+06 2.421E+00 3.289E+01 4.715E+01 2.653E+00 8.269E+01 8.512E+01 3.353E+05 16.7358 1.00000
  8.000E+06 8.000E+06 2.434E+00 3.772E+01 5.400E+01 3.070E+00 9.479E+01 9.722E+01 3.464E+05 17.0029 1.00000
  9.000E+06 9.000E+06 2.446E+00 4.255E+01 6.085E+01 3.491E+00 1.069E+02 1.093E+02 3.561E+05 17.2385 1.00000
  1.000E+07 1.000E+07 2.456E+00 4.740E+01 6.771E+01 3.918E+00 1.190E+02 1.215E+02 3.648E+05 17.4492 1.00000
  1.200E+07 1.200E+07 2.474E+00 5.709E+01 8.143E+01 4.784E+00 1.433E+02 1.458E+02 3.799E+05 17.8138 1.00000
  1.400E+07 1.400E+07 2.489E+00 6.679E+01 9.515E+01 5.666E+00 1.676E+02 1.701E+02 3.926E+05 18.1221 1.00000
  1.700E+07 1.700E+07 2.508E+00 8.137E+01 1.158E+02 7.014E+00 2.041E+02 2.066E+02 4.087E+05 18.5104 1.00000
  2.000E+07 2.000E+07 2.525E+00 9.596E+01 1.364E+02 8.388E+00 2.407E+02 2.432E+02 4.221E+05 18.8355 1.00000
  2.500E+07 2.500E+07 2.547E+00 1.203E+02 1.707E+02 1.073E+01 3.018E+02 3.043E+02 4.406E+05 19.2818 1.00000
  3.000E+07 3.000E+07 2.566E+00 1.447E+02 2.051E+02 1.312E+01 3.629E+02 3.654E+02 4.556E+05 19.6464 1.00000
  3.500E+07 3.500E+07 2.582E+00 1.690E+02 2.395E+02 1.555E+01 4.241E+02 4.267E+02 4.683E+05 19.9547 1.00000
  4.000E+07 4.000E+07 2.596E+00 1.934E+02 2.739E+02 1.802E+01 4.853E+02 4.879E+02 4.793E+05 20.2218 1.00000
  4.500E+07 4.500E+07 2.608E+00 2.178E+02 3.082E+02 2.053E+01 5.466E+02 5.492E+02 4.890E+05 20.4573 1.00000
  5.000E+07 5.000E+07 2.619E+00 2.422E+02 3.426E+02 2.307E+01 6.079E+02 6.106E+02 4.976E+05 20.6680 1.00000
  5.500E+07 5.500E+07 2.629E+00 2.666E+02 3.770E+02 2.564E+01 6.693E+02 6.719E+02 5.055E+05 20.8587 1.00000
  6.000E+07 6.000E+07 2.638E+00 2.911E+02 4.114E+02 2.823E+01 7.307E+02 7.334E+02 5.126E+05 21.0327 1.00000
  7.000E+07 7.000E+07 2.655E+00 3.399E+02 4.802E+02 3.349E+01 8.536E+02 8.563E+02 5.253E+05 21.3410 1.00000
  8.000E+07 8.000E+07 2.669E+00 3.887E+02 5.490E+02 3.883E+01 9.766E+02 9.793E+02 5.362E+05 21.6081 1.00000
  9.000E+07 9.000E+07 2.682E+00 4.376E+02 6.179E+02 4.425E+01 1.100E+03 1.102E+03 5.458E+05 21.8436 1.00000
  1.000E+08 1.000E+08 2.693E+00 4.865E+02 6.867E+02 4.973E+01 1.223E+03 1.226E+03 5.545E+05 22.0543 1.00000
  1.200E+08 1.200E+08 2.713E+00 5.842E+02 8.243E+02 6.089E+01 1.469E+03 1.472E+03 5.694E+05 22.4190 1.00000
  1.400E+08 1.400E+08 2.730E+00 6.820E+02 9.619E+02 7.226E+01 1.716E+03 1.719E+03 5.820E+05 22.7273 1.00000
  1.700E+08 1.700E+08 2.752E+00 8.286E+02 1.168E+03 8.965E+01 2.087E+03 2.089E+03 5.979E+05 23.1156 1.00000
  2.000E+08 2.000E+08 2.770E+00 9.753E+02 1.375E+03 1.074E+02 2.458E+03 2.460E+03 6.112E+05 23.4406 1.00000
  2.500E+08 2.500E+08 2.795E+00 1.220E+03 1.719E+03 1.377E+02 3.077E+03 3.079E+03 6.295E+05 23.8869 1.00000
  3.000E+08 3.000E+08 2.816E+00 1.464E+03 2.063E+03 1.686E+02 3.696E+03 3.699E+03 6.444E+05 24.2516 1.00000
  3.500E+08 3.500E+08 2.834E+00 1.709E+03 2.407E+03 2.002E+02 4.316E+03 4.319E+03 6.569E+05 24.5599 1.00000
  4.000E+08 4.000E+08 2.849E+00 1.953E+03 2.751E+03 2.323E+02 4.937E+03 4.940E+03 6.677E+05 24.8269 1.00000
  4.500E+08 4.500E+08 2.863E+00 2.198E+03 3.096E+03 2.649E+02 5.558E+03 5.561E+03 6.773E+05 25.0625 1.00000
  5.000E+08 5.000E+08 2.875E+00 2.443E+03 3.440E+03 2.979E+02 6.180E+03 6.183E+03 6.858E+05 25.2732 1.00000
  5.500E+08 5.500E+08 2.887E+00 2.687E+03 3.784E+03 3.313E+02 6.802E+03 6.805E+03 6.936E+05 25.4638 1.00000
  6.000E+08 6.000E+08 2.897E+00 2.932E+03 4.128E+03 3.650E+02 7.425E+03 7.427E+03 7.006E+05 25.6379 1.00000
  7.000E+08 7.000E+08 2.915E+00 3.421E+03 4.816E+03 4.335E+02 8.670E+03 8.673E+03 7.131E+05 25.9462 1.00000
  8.000E+08 8.000E+08 2.931E+00 3.910E+03 5.504E+03 5.032E+02 9.917E+03 9.920E+03 7.239E+05 26.2132 1.00000
  9.000E+08 9.000E+08 2.946E+00 4.399E+03 6.192E+03 5.738E+02 1.117E+04 1.117E+04 7.334E+05 26.4488 1.00000
  1.000E+09 1.000E+09 2.958E+00 4.888E+03 6.881E+03 6.455E+02 1.241E+04 1.242E+04 7.419E+05 26.6595 1.00000
