 Incident particle is a Muon with M = 105.65839 MeV
 Index = 0: LeadGlass
      Absorber with <Z/A> = 0.42099
 Sternheimer coef:  a     k=m_s   x_0    x_1    I[eV]   Cbar  delta0
                 0.0954  3.0740  0.0614  3.8146  526.4  5.8476 0.00

 *** Table generated with PUMAS v1.00 ***

      T         p     Ionization  brems     pair     photonuc  Radloss    dE/dx   CSDA Range  delta   beta
    [MeV]    [MeV/c]  -----------------------[MeV cm^2/g]------------------------  [g/cm^2]
  1.000E+00 1.457E+01 2.484E+01 4.452E-06 0.000E+00 0.000E+00 4.452E-06 2.484E+01 2.013E-02  0.0000 0.13661
  1.200E+00 1.597E+01 2.179E+01 5.112E-06 0.000E+00 0.000E+00 5.112E-06 2.179E+01 2.875E-02  0.0000 0.14944
  1.400E+00 1.726E+01 1.949E+01 5.737E-06 0.000E+00 0.000E+00 5.737E-06 1.949E+01 3.847E-02  0.0000 0.16119
  1.700E+00 1.903E+01 1.690E+01 6.619E-06 0.000E+00 0.000E+00 6.619E-06 1.690E+01 5.504E-02  0.0000 0.17725
  2.000E+00 2.066E+01 1.498E+01 7.448E-06 0.000E+00 0.000E+00 7.448E-06 1.498E+01 7.393E-02  0.0000 0.19186
  2.500E+00 2.312E+01 1.268E+01 8.732E-06 0.000E+00 0.000E+00 8.732E-06 1.268E+01 1.103E-01  0.0000 0.21376
  3.000E+00 2.536E+01 1.106E+01 9.918E-06 0.000E+00 0.000E+00 9.918E-06 1.106E+01 1.527E-01  0.0000 0.23336
  3.500E+00 2.742E+01 9.845E+00 1.102E-05 0.000E+00 0.000E+00 1.102E-05 9.845E+00 2.007E-01  0.0000 0.25120
  4.000E+00 2.935E+01 8.903E+00 1.206E-05 0.000E+00 0.000E+00 1.206E-05 8.903E+00 2.541E-01  0.0000 0.26763
  4.500E+00 3.116E+01 8.148E+00 1.305E-05 0.000E+00 0.000E+00 1.305E-05 8.148E+00 3.129E-01  0.0000 0.28290
  5.000E+00 3.289E+01 7.528E+00 1.399E-05 0.000E+00 0.000E+00 1.399E-05 7.528E+00 3.768E-01  0.0000 0.29720
  5.500E+00 3.453E+01 7.010E+00 1.488E-05 0.000E+00 0.000E+00 1.488E-05 7.010E+00 4.457E-01  0.0000 0.31066
  6.000E+00 3.611E+01 6.569E+00 1.573E-05 0.000E+00 0.000E+00 1.573E-05 6.569E+00 5.194E-01  0.0000 0.32339
  7.000E+00 3.909E+01 5.859E+00 1.735E-05 0.000E+00 0.000E+00 1.735E-05 5.859E+00 6.808E-01  0.0000 0.34700
  8.000E+00 4.189E+01 5.311E+00 1.886E-05 0.000E+00 0.000E+00 1.886E-05 5.311E+00 8.603E-01  0.0000 0.36854
  9.000E+00 4.453E+01 4.874E+00 2.028E-05 0.000E+00 0.000E+00 2.028E-05 4.874E+00 1.057E+00  0.0000 0.38836
  1.000E+01 4.704E+01 4.518E+00 2.162E-05 0.000E+00 0.000E+00 2.162E-05 4.518E+00 1.270E+00  0.0000 0.40675
  1.200E+01 5.177E+01 3.970E+00 2.412E-05 0.000E+00 0.000E+00 2.412E-05 3.970E+00 1.743E+00  0.0000 0.43998
  1.400E+01 5.616E+01 3.569E+00 2.643E-05 0.000E+00 0.000E+00 2.643E-05 3.569E+00 2.276E+00  0.0000 0.46937
  1.700E+01 6.230E+01 3.132E+00 2.962E-05 0.000E+00 0.000E+00 2.962E-05 3.133E+00 3.175E+00  0.0000 0.50792
  2.000E+01 6.802E+01 2.820E+00 3.259E-05 0.000E+00 0.000E+00 3.259E-05 2.820E+00 4.185E+00  0.0000 0.54129
  2.500E+01 7.686E+01 2.459E+00 3.717E-05 0.000E+00 0.000E+00 3.717E-05 2.459E+00 6.089E+00  0.0000 0.58827
  3.000E+01 8.509E+01 2.215E+00 4.146E-05 0.000E+00 0.000E+00 4.146E-05 2.215E+00 8.234E+00  0.0000 0.62720
  3.500E+01 9.285E+01 2.038E+00 4.557E-05 0.000E+00 0.000E+00 4.557E-05 2.038E+00 1.059E+01  0.0000 0.66011
  4.000E+01 1.003E+02 1.906E+00 4.957E-05 0.000E+00 0.000E+00 4.957E-05 1.906E+00 1.313E+01  0.0000 0.68834
  4.500E+01 1.074E+02 1.803E+00 5.350E-05 0.000E+00 0.000E+00 5.350E-05 1.804E+00 1.582E+01  0.0000 0.71286
  5.000E+01 1.143E+02 1.722E+00 5.740E-05 0.000E+00 0.000E+00 5.740E-05 1.722E+00 1.866E+01  0.0000 0.73434
  5.500E+01 1.210E+02 1.656E+00 6.127E-05 0.000E+00 0.000E+00 6.127E-05 1.656E+00 2.162E+01  0.0000 0.75332
  6.000E+01 1.276E+02 1.602E+00 6.515E-05 0.000E+00 0.000E+00 6.515E-05 1.602E+00 2.470E+01 -0.0009 0.77019
  7.000E+01 1.403E+02 1.517E+00 7.295E-05 0.000E+00 0.000E+00 7.295E-05 1.517E+00 3.111E+01  0.0054 0.79887
  8.000E+01 1.527E+02 1.456E+00 8.085E-05 0.000E+00 0.000E+00 8.085E-05 1.456E+00 3.784E+01  0.0145 0.82227
  9.000E+01 1.647E+02 1.411E+00 8.888E-05 0.000E+00 0.000E+00 8.888E-05 1.411E+00 4.482E+01  0.0254 0.84166
  1.000E+02 1.764E+02 1.376E+00 9.707E-05 0.000E+00 0.000E+00 9.707E-05 1.376E+00 5.200E+01  0.0377 0.85794
  1.200E+02 1.994E+02 1.328E+00 1.139E-04 0.000E+00 0.000E+00 1.139E-04 1.328E+00 6.679E+01  0.0648 0.88361
  1.400E+02 2.218E+02 1.298E+00 1.315E-04 0.000E+00 0.000E+00 1.315E-04 1.298E+00 8.203E+01  0.0938 0.90278
  1.700E+02 2.546E+02 1.273E+00 1.592E-04 7.908E-15 0.000E+00 1.592E-04 1.273E+00 1.054E+02  0.1388 0.92363
  2.000E+02 2.868E+02 1.261E+00 1.884E-04 1.768E-12 0.000E+00 1.884E-04 1.261E+00 1.290E+02  0.1842 0.93835
  2.500E+02 3.396E+02 1.255E+00 2.403E-04 2.614E-08 0.000E+00 2.404E-04 1.256E+00 1.688E+02  0.2589 0.95485
  3.000E+02 3.917E+02 1.260E+00 2.959E-04 2.567E-07 0.000E+00 2.962E-04 1.260E+00 2.085E+02  0.3313 0.96548
  3.500E+02 4.432E+02 1.268E+00 3.549E-04 7.344E-07 0.000E+00 3.556E-04 1.268E+00 2.481E+02  0.4007 0.97274
  4.000E+02 4.945E+02 1.278E+00 4.170E-04 1.433E-06 0.000E+00 4.184E-04 1.278E+00 2.874E+02  0.4672 0.97793
  4.500E+02 5.455E+02 1.289E+00 4.820E-04 2.347E-06 0.000E+00 4.843E-04 1.289E+00 3.263E+02  0.5309 0.98176
  5.000E+02 5.964E+02 1.300E+00 5.496E-04 5.781E-05 0.000E+00 6.074E-04 1.301E+00 3.649E+02  0.5919 0.98467
  5.500E+02 6.471E+02 1.311E+00 6.198E-04 8.710E-05 0.000E+00 7.069E-04 1.312E+00 4.032E+02  0.6505 0.98693
  6.000E+02 6.977E+02 1.322E+00 6.923E-04 1.164E-04 0.000E+00 8.087E-04 1.323E+00 4.411E+02  0.7068 0.98873
  7.000E+02 7.987E+02 1.343E+00 8.438E-04 1.849E-04 0.000E+00 1.029E-03 1.344E+00 5.162E+02  0.8130 0.99136
  8.000E+02 8.995E+02 1.362E+00 1.003E-03 2.669E-04 0.000E+00 1.270E-03 1.363E+00 5.900E+02  0.9119 0.99317
  9.000E+02 1.000E+03 1.379E+00 1.170E-03 3.617E-04 0.000E+00 1.532E-03 1.381E+00 6.629E+02  1.0045 0.99447
  1.000E+03 1.101E+03 1.395E+00 1.343E-03 4.684E-04 0.000E+00 1.812E-03 1.397E+00 7.349E+02  1.0915 0.99542
  1.200E+03 1.301E+03 1.424E+00 1.708E-03 7.151E-04 2.247E-05 2.445E-03 1.427E+00 8.766E+02  1.2513 0.99672
  1.400E+03 1.502E+03 1.449E+00 2.093E-03 1.002E-03 6.102E-05 3.156E-03 1.452E+00 1.016E+03  1.3955 0.99753
  1.700E+03 1.803E+03 1.481E+00 2.706E-03 1.500E-03 1.295E-04 4.335E-03 1.485E+00 1.220E+03  1.5888 0.99829
  2.000E+03 2.103E+03 1.507E+00 3.354E-03 2.069E-03 2.092E-04 5.632E-03 1.513E+00 1.420E+03  1.7604 0.99874
  2.500E+03 2.604E+03 1.544E+00 4.501E-03 3.154E-03 3.618E-04 8.017E-03 1.552E+00 1.746E+03  2.0101 0.99918
  3.000E+03 3.104E+03 1.573E+00 5.719E-03 4.386E-03 5.201E-04 1.063E-02 1.584E+00 2.065E+03  2.2258 0.99942
  3.500E+03 3.604E+03 1.597E+00 6.997E-03 5.744E-03 6.864E-04 1.343E-02 1.611E+00 2.378E+03  2.4162 0.99957
  4.000E+03 4.104E+03 1.618E+00 8.327E-03 7.222E-03 8.629E-04 1.641E-02 1.635E+00 2.687E+03  2.5869 0.99967
  4.500E+03 4.604E+03 1.637E+00 9.702E-03 8.803E-03 1.046E-03 1.955E-02 1.656E+00 2.990E+03  2.7417 0.99974
  5.000E+03 5.105E+03 1.653E+00 1.112E-02 1.047E-02 1.220E-03 2.281E-02 1.676E+00 3.291E+03  2.8835 0.99979
  5.500E+03 5.605E+03 1.667E+00 1.257E-02 1.222E-02 1.408E-03 2.620E-02 1.693E+00 3.587E+03  3.0144 0.99982
  6.000E+03 6.105E+03 1.680E+00 1.406E-02 1.404E-02 1.582E-03 2.969E-02 1.710E+00 3.881E+03  3.1360 0.99985
  7.000E+03 7.105E+03 1.703E+00 1.712E-02 1.789E-02 1.951E-03 3.696E-02 1.740E+00 4.461E+03  3.3564 0.99989
  8.000E+03 8.105E+03 1.722E+00 2.029E-02 2.196E-02 2.315E-03 4.457E-02 1.767E+00 5.031E+03  3.5522 0.99992
  9.000E+03 9.105E+03 1.739E+00 2.356E-02 2.623E-02 2.657E-03 5.245E-02 1.791E+00 5.594E+03  3.7285 0.99993
  1.000E+04 1.011E+04 1.753E+00 2.691E-02 3.069E-02 3.008E-03 6.060E-02 1.814E+00 6.148E+03  3.8890 0.99995
  1.200E+04 1.211E+04 1.778E+00 3.382E-02 4.005E-02 3.718E-03 7.759E-02 1.855E+00 7.239E+03  4.1729 0.99996
  1.400E+04 1.411E+04 1.798E+00 4.098E-02 4.995E-02 4.427E-03 9.535E-02 1.893E+00 8.306E+03  4.4185 0.99997
  1.700E+04 1.711E+04 1.823E+00 5.211E-02 6.560E-02 5.473E-03 1.232E-01 1.946E+00 9.869E+03  4.7350 0.99998
  2.000E+04 2.011E+04 1.843E+00 6.362E-02 8.204E-02 6.496E-03 1.522E-01 1.995E+00 1.139E+04  5.0058 0.99999
  2.500E+04 2.511E+04 1.869E+00 8.351E-02 1.109E-01 8.169E-03 2.026E-01 2.072E+00 1.385E+04  5.3855 0.99999
  3.000E+04 3.011E+04 1.890E+00 1.041E-01 1.411E-01 9.806E-03 2.550E-01 2.145E+00 1.622E+04  5.7023 0.99999
  3.500E+04 3.511E+04 1.907E+00 1.253E-01 1.724E-01 1.146E-02 3.092E-01 2.217E+00 1.852E+04  5.9745 1.00000
  4.000E+04 4.011E+04 1.922E+00 1.470E-01 2.047E-01 1.308E-02 3.648E-01 2.287E+00 2.074E+04  6.2132 1.00000
  4.500E+04 4.511E+04 1.934E+00 1.691E-01 2.377E-01 1.469E-02 4.215E-01 2.356E+00 2.289E+04  6.4259 1.00000
  5.000E+04 5.011E+04 1.945E+00 1.915E-01 2.714E-01 1.629E-02 4.792E-01 2.425E+00 2.498E+04  6.6179 1.00000
  5.500E+04 5.511E+04 1.955E+00 2.143E-01 3.057E-01 1.790E-02 5.379E-01 2.493E+00 2.702E+04  6.7929 1.00000
  6.000E+04 6.011E+04 1.964E+00 2.374E-01 3.404E-01 1.949E-02 5.973E-01 2.561E+00 2.900E+04  6.9537 1.00000
  7.000E+04 7.011E+04 1.979E+00 2.843E-01 4.112E-01 2.265E-02 7.182E-01 2.697E+00 3.280E+04  7.2408 1.00000
  8.000E+04 8.011E+04 1.992E+00 3.321E-01 4.834E-01 2.581E-02 8.414E-01 2.834E+00 3.642E+04  7.4917 1.00000
  9.000E+04 9.011E+04 2.004E+00 3.807E-01 5.568E-01 2.896E-02 9.665E-01 2.970E+00 3.987E+04  7.7147 1.00000
  1.000E+05 1.001E+05 2.013E+00 4.299E-01 6.312E-01 3.206E-02 1.093E+00 3.107E+00 4.316E+04  7.9154 1.00000
  1.200E+05 1.201E+05 2.030E+00 5.299E-01 7.825E-01 3.835E-02 1.351E+00 3.381E+00 4.934E+04  8.2651 1.00000
  1.400E+05 1.401E+05 2.045E+00 6.318E-01 9.363E-01 4.464E-02 1.613E+00 3.657E+00 5.503E+04  8.5631 1.00000
  1.700E+05 1.701E+05 2.062E+00 7.873E-01 1.171E+00 5.406E-02 2.012E+00 4.074E+00 6.281E+04  8.9410 1.00000
  2.000E+05 2.001E+05 2.076E+00 9.455E-01 1.409E+00 6.353E-02 2.418E+00 4.494E+00 6.983E+04  9.2593 1.00000
  2.500E+05 2.501E+05 2.096E+00 1.214E+00 1.811E+00 7.934E-02 3.104E+00 5.200E+00 8.020E+04  9.6989 1.00000
  3.000E+05 3.001E+05 2.112E+00 1.486E+00 2.219E+00 9.525E-02 3.800E+00 5.912E+00 8.924E+04 10.0599 1.00000
  3.500E+05 3.501E+05 2.125E+00 1.762E+00 2.630E+00 1.113E-01 4.504E+00 6.629E+00 9.724E+04 10.3662 1.00000
  4.000E+05 4.001E+05 2.137E+00 2.041E+00 3.045E+00 1.275E-01 5.213E+00 7.350E+00 1.044E+05 10.6321 1.00000
  4.500E+05 4.501E+05 2.147E+00 2.322E+00 3.461E+00 1.437E-01 5.928E+00 8.075E+00 1.109E+05 10.8670 1.00000
  5.000E+05 5.001E+05 2.156E+00 2.606E+00 3.880E+00 1.601E-01 6.646E+00 8.802E+00 1.168E+05 11.0774 1.00000
  5.500E+05 5.501E+05 2.165E+00 2.890E+00 4.301E+00 1.764E-01 7.367E+00 9.532E+00 1.223E+05 11.2678 1.00000
  6.000E+05 6.001E+05 2.172E+00 3.177E+00 4.722E+00 1.927E-01 8.092E+00 1.026E+01 1.274E+05 11.4417 1.00000
  7.000E+05 7.001E+05 2.186E+00 3.753E+00 5.570E+00 2.256E-01 9.548E+00 1.173E+01 1.365E+05 11.7500 1.00000
  8.000E+05 8.001E+05 2.197E+00 4.334E+00 6.421E+00 2.589E-01 1.101E+01 1.321E+01 1.445E+05 12.0170 1.00000
  9.000E+05 9.001E+05 2.208E+00 4.917E+00 7.275E+00 2.925E-01 1.248E+01 1.469E+01 1.517E+05 12.2525 1.00000
  1.000E+06 1.000E+06 2.217E+00 5.504E+00 8.131E+00 3.264E-01 1.396E+01 1.618E+01 1.582E+05 12.4632 1.00000
  1.200E+06 1.200E+06 2.233E+00 6.685E+00 9.850E+00 3.950E-01 1.693E+01 1.916E+01 1.696E+05 12.8278 1.00000
  1.400E+06 1.400E+06 2.247E+00 7.872E+00 1.157E+01 4.645E-01 1.991E+01 2.216E+01 1.794E+05 13.1361 1.00000
  1.700E+06 1.700E+06 2.264E+00 9.664E+00 1.417E+01 5.704E-01 2.440E+01 2.667E+01 1.918E+05 13.5244 1.00000
  2.000E+06 2.000E+06 2.279E+00 1.147E+01 1.677E+01 6.780E-01 2.892E+01 3.119E+01 2.022E+05 13.8494 1.00000
  2.500E+06 2.500E+06 2.299E+00 1.448E+01 2.112E+01 8.606E-01 3.647E+01 3.876E+01 2.166E+05 14.2957 1.00000
  3.000E+06 3.000E+06 2.316E+00 1.752E+01 2.548E+01 1.047E+00 4.404E+01 4.636E+01 2.285E+05 14.6603 1.00000
  3.500E+06 3.500E+06 2.330E+00 2.056E+01 2.985E+01 1.236E+00 5.164E+01 5.397E+01 2.385E+05 14.9686 1.00000
  4.000E+06 4.000E+06 2.342E+00 2.361E+01 3.422E+01 1.428E+00 5.926E+01 6.160E+01 2.472E+05 15.2356 1.00000
  4.500E+06 4.500E+06 2.353E+00 2.667E+01 3.859E+01 1.622E+00 6.688E+01 6.924E+01 2.549E+05 15.4712 1.00000
  5.000E+06 5.000E+06 2.363E+00 2.973E+01 4.297E+01 1.818E+00 7.452E+01 7.689E+01 2.617E+05 15.6819 1.00000
  5.500E+06 5.500E+06 2.372E+00 3.280E+01 4.736E+01 2.016E+00 8.217E+01 8.454E+01 2.679E+05 15.8725 1.00000
  6.000E+06 6.000E+06 2.380E+00 3.587E+01 5.174E+01 2.216E+00 8.983E+01 9.221E+01 2.736E+05 16.0466 1.00000
  7.000E+06 7.000E+06 2.395E+00 4.202E+01 6.051E+01 2.622E+00 1.052E+02 1.076E+02 2.837E+05 16.3548 1.00000
  8.000E+06 8.000E+06 2.408E+00 4.818E+01 6.930E+01 3.033E+00 1.205E+02 1.229E+02 2.924E+05 16.6219 1.00000
  9.000E+06 9.000E+06 2.419E+00 5.435E+01 7.808E+01 3.450E+00 1.359E+02 1.383E+02 3.001E+05 16.8575 1.00000
  1.000E+07 1.000E+07 2.429E+00 6.053E+01 8.687E+01 3.871E+00 1.513E+02 1.537E+02 3.070E+05 17.0682 1.00000
  1.200E+07 1.200E+07 2.447E+00 7.289E+01 1.045E+02 4.727E+00 1.821E+02 1.845E+02 3.189E+05 17.4328 1.00000
  1.400E+07 1.400E+07 2.462E+00 8.527E+01 1.221E+02 5.599E+00 2.129E+02 2.154E+02 3.289E+05 17.7411 1.00000
  1.700E+07 1.700E+07 2.481E+00 1.039E+02 1.485E+02 6.930E+00 2.593E+02 2.617E+02 3.416E+05 18.1294 1.00000
  2.000E+07 2.000E+07 2.497E+00 1.225E+02 1.749E+02 8.288E+00 3.056E+02 3.081E+02 3.522E+05 18.4545 1.00000
  2.500E+07 2.500E+07 2.519E+00 1.535E+02 2.189E+02 1.060E+01 3.830E+02 3.856E+02 3.668E+05 18.9008 1.00000
  3.000E+07 3.000E+07 2.538E+00 1.846E+02 2.630E+02 1.296E+01 4.605E+02 4.631E+02 3.787E+05 19.2654 1.00000
  3.500E+07 3.500E+07 2.554E+00 2.157E+02 3.070E+02 1.536E+01 5.381E+02 5.406E+02 3.887E+05 19.5737 1.00000
  4.000E+07 4.000E+07 2.567E+00 2.468E+02 3.511E+02 1.781E+01 6.157E+02 6.182E+02 3.974E+05 19.8408 1.00000
  4.500E+07 4.500E+07 2.580E+00 2.779E+02 3.952E+02 2.029E+01 6.933E+02 6.959E+02 4.050E+05 20.0763 1.00000
  5.000E+07 5.000E+07 2.590E+00 3.090E+02 4.393E+02 2.279E+01 7.710E+02 7.736E+02 4.119E+05 20.2870 1.00000
  5.500E+07 5.500E+07 2.600E+00 3.401E+02 4.834E+02 2.533E+01 8.488E+02 8.514E+02 4.180E+05 20.4777 1.00000
  6.000E+07 6.000E+07 2.610E+00 3.712E+02 5.275E+02 2.789E+01 9.266E+02 9.292E+02 4.237E+05 20.6517 1.00000
  7.000E+07 7.000E+07 2.626E+00 4.335E+02 6.156E+02 3.308E+01 1.082E+03 1.085E+03 4.337E+05 20.9600 1.00000
  8.000E+07 8.000E+07 2.640E+00 4.957E+02 7.038E+02 3.836E+01 1.238E+03 1.241E+03 4.423E+05 21.2271 1.00000
  9.000E+07 9.000E+07 2.653E+00 5.580E+02 7.920E+02 4.372E+01 1.394E+03 1.396E+03 4.499E+05 21.4626 1.00000
  1.000E+08 1.000E+08 2.664E+00 6.203E+02 8.802E+02 4.914E+01 1.550E+03 1.552E+03 4.567E+05 21.6733 1.00000
  1.200E+08 1.200E+08 2.684E+00 7.449E+02 1.057E+03 6.016E+01 1.862E+03 1.864E+03 4.685E+05 22.0380 1.00000
  1.400E+08 1.400E+08 2.700E+00 8.695E+02 1.233E+03 7.139E+01 2.174E+03 2.177E+03 4.785E+05 22.3463 1.00000
  1.700E+08 1.700E+08 2.722E+00 1.056E+03 1.498E+03 8.858E+01 2.643E+03 2.645E+03 4.910E+05 22.7346 1.00000
  2.000E+08 2.000E+08 2.740E+00 1.243E+03 1.762E+03 1.061E+02 3.112E+03 3.115E+03 5.015E+05 23.0596 1.00000
  2.500E+08 2.500E+08 2.765E+00 1.555E+03 2.203E+03 1.360E+02 3.894E+03 3.897E+03 5.160E+05 23.5059 1.00000
  3.000E+08 3.000E+08 2.785E+00 1.867E+03 2.644E+03 1.666E+02 4.678E+03 4.680E+03 5.277E+05 23.8706 1.00000
  3.500E+08 3.500E+08 2.803E+00 2.178E+03 3.085E+03 1.978E+02 5.462E+03 5.464E+03 5.376E+05 24.1789 1.00000
  4.000E+08 4.000E+08 2.818E+00 2.490E+03 3.526E+03 2.295E+02 6.246E+03 6.249E+03 5.462E+05 24.4459 1.00000
  4.500E+08 4.500E+08 2.832E+00 2.802E+03 3.967E+03 2.617E+02 7.031E+03 7.034E+03 5.538E+05 24.6815 1.00000
  5.000E+08 5.000E+08 2.844E+00 3.114E+03 4.408E+03 2.943E+02 7.816E+03 7.819E+03 5.605E+05 24.8922 1.00000
  5.500E+08 5.500E+08 2.855E+00 3.425E+03 4.849E+03 3.273E+02 8.602E+03 8.605E+03 5.666E+05 25.0828 1.00000
  6.000E+08 6.000E+08 2.865E+00 3.737E+03 5.290E+03 3.607E+02 9.388E+03 9.391E+03 5.722E+05 25.2569 1.00000
  7.000E+08 7.000E+08 2.883E+00 4.360E+03 6.172E+03 4.283E+02 1.096E+04 1.096E+04 5.821E+05 25.5652 1.00000
  8.000E+08 8.000E+08 2.899E+00 4.984E+03 7.054E+03 4.971E+02 1.254E+04 1.254E+04 5.906E+05 25.8322 1.00000
  9.000E+08 9.000E+08 2.913E+00 5.607E+03 7.936E+03 5.670E+02 1.411E+04 1.411E+04 5.981E+05 26.0678 1.00000
  1.000E+09 1.000E+09 2.926E+00 6.231E+03 8.818E+03 6.377E+02 1.569E+04 1.569E+04 6.049E+05 26.2785 1.00000
