 Incident particle is a Muon with M = 105.65839 MeV
 Index = 0: LeadTungstate
      Absorber with <Z/A> = 0.41305
 Sternheimer coef:  a     k=m_s   x_0    x_1    I[eV]   Cbar  delta0
                 0.2276  3.0000  0.4068  3.0023  600.7  5.8528 0.00

 *** Table generated with PUMAS v1.00 ***

      T         p     Ionization  brems     pair     photonuc  Radloss    dE/dx   CSDA Range  delta   beta
    [MeV]    [MeV/c]  -----------------------[MeV cm^2/g]------------------------  [g/cm^2]
  1.000E+00 1.457E+01 2.347E+01 4.734E-06 0.000E+00 0.000E+00 4.734E-06 2.347E+01 2.130E-02  0.0000 0.13661
  1.200E+00 1.597E+01 2.063E+01 5.436E-06 0.000E+00 0.000E+00 5.436E-06 2.063E+01 3.041E-02  0.0000 0.14944
  1.400E+00 1.726E+01 1.847E+01 6.101E-06 0.000E+00 0.000E+00 6.101E-06 1.847E+01 4.067E-02  0.0000 0.16119
  1.700E+00 1.903E+01 1.605E+01 7.040E-06 0.000E+00 0.000E+00 7.040E-06 1.605E+01 5.814E-02  0.0000 0.17725
  2.000E+00 2.066E+01 1.424E+01 7.922E-06 0.000E+00 0.000E+00 7.922E-06 1.424E+01 7.802E-02  0.0000 0.19186
  2.500E+00 2.312E+01 1.207E+01 9.287E-06 0.000E+00 0.000E+00 9.287E-06 1.207E+01 1.163E-01  0.0000 0.21376
  3.000E+00 2.536E+01 1.054E+01 1.055E-05 0.000E+00 0.000E+00 1.055E-05 1.054E+01 1.607E-01  0.0000 0.23336
  3.500E+00 2.742E+01 9.394E+00 1.173E-05 0.000E+00 0.000E+00 1.173E-05 9.394E+00 2.110E-01  0.0000 0.25120
  4.000E+00 2.935E+01 8.501E+00 1.283E-05 0.000E+00 0.000E+00 1.283E-05 8.501E+00 2.671E-01  0.0000 0.26763
  4.500E+00 3.116E+01 7.785E+00 1.388E-05 0.000E+00 0.000E+00 1.388E-05 7.785E+00 3.286E-01  0.0000 0.28290
  5.000E+00 3.289E+01 7.197E+00 1.487E-05 0.000E+00 0.000E+00 1.487E-05 7.197E+00 3.954E-01  0.0000 0.29720
  5.500E+00 3.453E+01 6.704E+00 1.582E-05 0.000E+00 0.000E+00 1.582E-05 6.704E+00 4.675E-01  0.0000 0.31066
  6.000E+00 3.611E+01 6.285E+00 1.673E-05 0.000E+00 0.000E+00 1.673E-05 6.285E+00 5.445E-01  0.0000 0.32339
  7.000E+00 3.909E+01 5.609E+00 1.845E-05 0.000E+00 0.000E+00 1.845E-05 5.609E+00 7.132E-01  0.0000 0.34700
  8.000E+00 4.189E+01 5.088E+00 2.005E-05 0.000E+00 0.000E+00 2.005E-05 5.088E+00 9.006E-01  0.0000 0.36854
  9.000E+00 4.453E+01 4.671E+00 2.156E-05 0.000E+00 0.000E+00 2.156E-05 4.672E+00 1.106E+00  0.0000 0.38836
  1.000E+01 4.704E+01 4.332E+00 2.299E-05 0.000E+00 0.000E+00 2.299E-05 4.332E+00 1.328E+00  0.0000 0.40675
  1.200E+01 5.177E+01 3.809E+00 2.564E-05 0.000E+00 0.000E+00 2.564E-05 3.809E+00 1.822E+00  0.0000 0.43998
  1.400E+01 5.616E+01 3.425E+00 2.810E-05 0.000E+00 0.000E+00 2.810E-05 3.425E+00 2.376E+00  0.0000 0.46937
  1.700E+01 6.230E+01 3.008E+00 3.149E-05 0.000E+00 0.000E+00 3.149E-05 3.009E+00 3.313E+00  0.0000 0.50792
  2.000E+01 6.802E+01 2.710E+00 3.464E-05 0.000E+00 0.000E+00 3.464E-05 2.710E+00 4.365E+00  0.0000 0.54129
  2.500E+01 7.686E+01 2.364E+00 3.951E-05 0.000E+00 0.000E+00 3.951E-05 2.364E+00 6.345E+00  0.0000 0.58827
  3.000E+01 8.509E+01 2.130E+00 4.407E-05 0.000E+00 0.000E+00 4.407E-05 2.130E+00 8.576E+00  0.0000 0.62720
  3.500E+01 9.285E+01 1.962E+00 4.844E-05 0.000E+00 0.000E+00 4.844E-05 1.962E+00 1.102E+01  0.0000 0.66011
  4.000E+01 1.003E+02 1.835E+00 5.268E-05 0.000E+00 0.000E+00 5.268E-05 1.835E+00 1.366E+01  0.0000 0.68834
  4.500E+01 1.074E+02 1.737E+00 5.686E-05 0.000E+00 0.000E+00 5.686E-05 1.737E+00 1.646E+01  0.0000 0.71286
  5.000E+01 1.143E+02 1.658E+00 6.100E-05 0.000E+00 0.000E+00 6.100E-05 1.658E+00 1.941E+01  0.0000 0.73434
  5.500E+01 1.210E+02 1.595E+00 6.512E-05 0.000E+00 0.000E+00 6.512E-05 1.595E+00 2.248E+01  0.0000 0.75332
  6.000E+01 1.276E+02 1.543E+00 6.924E-05 0.000E+00 0.000E+00 6.924E-05 1.543E+00 2.567E+01  0.0000 0.77019
  7.000E+01 1.403E+02 1.463E+00 7.752E-05 0.000E+00 0.000E+00 7.752E-05 1.463E+00 3.233E+01  0.0000 0.79887
  8.000E+01 1.527E+02 1.405E+00 8.591E-05 0.000E+00 0.000E+00 8.591E-05 1.405E+00 3.930E+01  0.0000 0.82227
  9.000E+01 1.647E+02 1.363E+00 9.445E-05 0.000E+00 0.000E+00 9.445E-05 1.363E+00 4.653E+01  0.0000 0.84166
  1.000E+02 1.764E+02 1.330E+00 1.031E-04 0.000E+00 0.000E+00 1.031E-04 1.331E+00 5.396E+01  0.0000 0.85794
  1.200E+02 1.994E+02 1.287E+00 1.211E-04 0.000E+00 0.000E+00 1.211E-04 1.287E+00 6.924E+01  0.0000 0.88361
  1.400E+02 2.218E+02 1.260E+00 1.398E-04 0.000E+00 0.000E+00 1.398E-04 1.260E+00 8.495E+01  0.0000 0.90278
  1.700E+02 2.546E+02 1.239E+00 1.692E-04 7.100E-15 0.000E+00 1.692E-04 1.240E+00 1.090E+02  0.0000 0.92363
  2.000E+02 2.868E+02 1.231E+00 2.003E-04 1.588E-12 0.000E+00 2.003E-04 1.231E+00 1.332E+02  0.0016 0.93835
  2.500E+02 3.396E+02 1.230E+00 2.554E-04 1.304E-08 0.000E+00 2.554E-04 1.230E+00 1.739E+02  0.0183 0.95485
  3.000E+02 3.917E+02 1.237E+00 3.145E-04 1.166E-07 0.000E+00 3.146E-04 1.237E+00 2.144E+02  0.0467 0.96548
  3.500E+02 4.432E+02 1.248E+00 3.772E-04 3.214E-07 0.000E+00 3.775E-04 1.248E+00 2.546E+02  0.0817 0.97274
  4.000E+02 4.945E+02 1.259E+00 4.432E-04 6.231E-07 0.000E+00 4.438E-04 1.260E+00 2.945E+02  0.1204 0.97793
  4.500E+02 5.455E+02 1.272E+00 5.123E-04 5.523E-06 0.000E+00 5.178E-04 1.272E+00 3.340E+02  0.1613 0.98176
  5.000E+02 5.964E+02 1.284E+00 5.842E-04 6.298E-05 0.000E+00 6.472E-04 1.284E+00 3.731E+02  0.2034 0.98467
  5.500E+02 6.471E+02 1.296E+00 6.588E-04 9.294E-05 0.000E+00 7.517E-04 1.296E+00 4.119E+02  0.2459 0.98693
  6.000E+02 6.977E+02 1.307E+00 7.359E-04 1.240E-04 0.000E+00 8.599E-04 1.308E+00 4.503E+02  0.2886 0.98873
  7.000E+02 7.987E+02 1.329E+00 8.970E-04 1.969E-04 0.000E+00 1.094E-03 1.330E+00 5.261E+02  0.3731 0.99136
  8.000E+02 8.995E+02 1.348E+00 1.067E-03 2.842E-04 0.000E+00 1.351E-03 1.350E+00 6.007E+02  0.4556 0.99317
  9.000E+02 1.000E+03 1.366E+00 1.244E-03 3.851E-04 0.000E+00 1.629E-03 1.368E+00 6.743E+02  0.5357 0.99447
  1.000E+03 1.101E+03 1.383E+00 1.428E-03 4.987E-04 0.000E+00 1.927E-03 1.385E+00 7.470E+02  0.6130 0.99542
  1.200E+03 1.301E+03 1.412E+00 1.816E-03 7.614E-04 2.246E-05 2.600E-03 1.414E+00 8.899E+02  0.7595 0.99672
  1.400E+03 1.502E+03 1.437E+00 2.226E-03 1.067E-03 6.095E-05 3.354E-03 1.440E+00 1.030E+03  0.8958 0.99753
  1.700E+03 1.803E+03 1.468E+00 2.877E-03 1.597E-03 1.292E-04 4.603E-03 1.473E+00 1.236E+03  1.0835 0.99829
  2.000E+03 2.103E+03 1.494E+00 3.566E-03 2.203E-03 2.087E-04 5.978E-03 1.500E+00 1.438E+03  1.2539 0.99874
  2.500E+03 2.604E+03 1.530E+00 4.786E-03 3.358E-03 3.605E-04 8.505E-03 1.538E+00 1.767E+03  1.5070 0.99918
  3.000E+03 3.104E+03 1.558E+00 6.081E-03 4.670E-03 5.178E-04 1.127E-02 1.569E+00 2.089E+03  1.7296 0.99942
  3.500E+03 3.604E+03 1.582E+00 7.440E-03 6.115E-03 6.830E-04 1.424E-02 1.596E+00 2.405E+03  1.9285 0.99957
  4.000E+03 4.104E+03 1.602E+00 8.854E-03 7.688E-03 8.582E-04 1.740E-02 1.619E+00 2.716E+03  2.1084 0.99967
  4.500E+03 4.604E+03 1.619E+00 1.032E-02 9.370E-03 1.039E-03 2.073E-02 1.640E+00 3.023E+03  2.2727 0.99974
  5.000E+03 5.105E+03 1.634E+00 1.182E-02 1.115E-02 1.213E-03 2.418E-02 1.658E+00 3.326E+03  2.4239 0.99979
  5.500E+03 5.605E+03 1.648E+00 1.337E-02 1.301E-02 1.399E-03 2.777E-02 1.675E+00 3.626E+03  2.5642 0.99982
  6.000E+03 6.105E+03 1.660E+00 1.495E-02 1.495E-02 1.571E-03 3.147E-02 1.691E+00 3.923E+03  2.6949 0.99985
  7.000E+03 7.105E+03 1.681E+00 1.821E-02 1.903E-02 1.936E-03 3.918E-02 1.720E+00 4.510E+03  2.9327 0.99989
  8.000E+03 8.105E+03 1.699E+00 2.158E-02 2.336E-02 2.297E-03 4.724E-02 1.746E+00 5.087E+03  3.1448 0.99992
  9.000E+03 9.105E+03 1.714E+00 2.505E-02 2.791E-02 2.635E-03 5.560E-02 1.770E+00 5.656E+03  3.3364 0.99993
  1.000E+04 1.011E+04 1.727E+00 2.861E-02 3.265E-02 2.982E-03 6.424E-02 1.792E+00 6.217E+03  3.5111 0.99995
  1.200E+04 1.211E+04 1.750E+00 3.596E-02 4.261E-02 3.684E-03 8.225E-02 1.832E+00 7.321E+03  3.8206 0.99996
  1.400E+04 1.411E+04 1.768E+00 4.357E-02 5.313E-02 4.385E-03 1.011E-01 1.869E+00 8.402E+03  4.0888 0.99997
  1.700E+04 1.711E+04 1.791E+00 5.540E-02 6.977E-02 5.418E-03 1.306E-01 1.921E+00 9.985E+03  4.4346 0.99998
  2.000E+04 2.011E+04 1.809E+00 6.764E-02 8.726E-02 6.427E-03 1.613E-01 1.970E+00 1.153E+04  4.7302 0.99999
  2.500E+04 2.511E+04 1.833E+00 8.879E-02 1.179E-01 8.078E-03 2.148E-01 2.047E+00 1.402E+04  5.1444 0.99999
  3.000E+04 3.011E+04 1.851E+00 1.107E-01 1.501E-01 9.693E-03 2.704E-01 2.122E+00 1.642E+04  5.4891 0.99999
  3.500E+04 3.511E+04 1.867E+00 1.332E-01 1.834E-01 1.132E-02 3.279E-01 2.195E+00 1.873E+04  5.7843 1.00000
  4.000E+04 4.011E+04 1.880E+00 1.562E-01 2.177E-01 1.292E-02 3.869E-01 2.267E+00 2.098E+04  6.0425 1.00000
  4.500E+04 4.511E+04 1.891E+00 1.797E-01 2.528E-01 1.450E-02 4.470E-01 2.338E+00 2.315E+04  6.2720 1.00000
  5.000E+04 5.011E+04 1.901E+00 2.036E-01 2.886E-01 1.608E-02 5.083E-01 2.409E+00 2.525E+04  6.4785 1.00000
  5.500E+04 5.511E+04 1.910E+00 2.278E-01 3.250E-01 1.767E-02 5.705E-01 2.480E+00 2.730E+04  6.6661 1.00000
  6.000E+04 6.011E+04 1.918E+00 2.524E-01 3.620E-01 1.923E-02 6.336E-01 2.551E+00 2.929E+04  6.8379 1.00000
  7.000E+04 7.011E+04 1.931E+00 3.022E-01 4.372E-01 2.234E-02 7.618E-01 2.693E+00 3.311E+04  7.1436 1.00000
  8.000E+04 8.011E+04 1.943E+00 3.530E-01 5.140E-01 2.545E-02 8.925E-01 2.836E+00 3.672E+04  7.4094 1.00000
  9.000E+04 9.011E+04 1.953E+00 4.046E-01 5.920E-01 2.856E-02 1.025E+00 2.979E+00 4.017E+04  7.6443 1.00000
  1.000E+05 1.001E+05 1.963E+00 4.569E-01 6.711E-01 3.160E-02 1.160E+00 3.122E+00 4.345E+04  7.8547 1.00000
  1.200E+05 1.201E+05 1.978E+00 5.632E-01 8.319E-01 3.779E-02 1.433E+00 3.411E+00 4.958E+04  8.2190 1.00000
  1.400E+05 1.401E+05 1.991E+00 6.715E-01 9.954E-01 4.397E-02 1.711E+00 3.702E+00 5.521E+04  8.5271 1.00000
  1.700E+05 1.701E+05 2.008E+00 8.368E-01 1.245E+00 5.324E-02 2.135E+00 4.143E+00 6.289E+04  8.9151 1.00000
  2.000E+05 2.001E+05 2.022E+00 1.005E+00 1.498E+00 6.255E-02 2.565E+00 4.587E+00 6.978E+04  9.2400 1.00000
  2.500E+05 2.501E+05 2.041E+00 1.290E+00 1.925E+00 7.808E-02 3.293E+00 5.334E+00 7.991E+04  9.6861 1.00000
  3.000E+05 3.001E+05 2.056E+00 1.579E+00 2.358E+00 9.372E-02 4.031E+00 6.088E+00 8.871E+04 10.0506 1.00000
  3.500E+05 3.501E+05 2.069E+00 1.873E+00 2.795E+00 1.095E-01 4.778E+00 6.847E+00 9.647E+04 10.3588 1.00000
  4.000E+05 4.001E+05 2.080E+00 2.169E+00 3.236E+00 1.254E-01 5.530E+00 7.611E+00 1.034E+05 10.6257 1.00000
  4.500E+05 4.501E+05 2.090E+00 2.468E+00 3.679E+00 1.414E-01 6.288E+00 8.378E+00 1.097E+05 10.8613 1.00000
  5.000E+05 5.001E+05 2.099E+00 2.769E+00 4.124E+00 1.575E-01 7.050E+00 9.149E+00 1.154E+05 11.0719 1.00000
  5.500E+05 5.501E+05 2.107E+00 3.071E+00 4.570E+00 1.734E-01 7.815E+00 9.922E+00 1.206E+05 11.2625 1.00000
  6.000E+05 6.001E+05 2.115E+00 3.375E+00 5.019E+00 1.894E-01 8.583E+00 1.070E+01 1.255E+05 11.4365 1.00000
  7.000E+05 7.001E+05 2.128E+00 3.988E+00 5.919E+00 2.218E-01 1.013E+01 1.226E+01 1.342E+05 11.7448 1.00000
  8.000E+05 8.001E+05 2.140E+00 4.604E+00 6.823E+00 2.545E-01 1.168E+01 1.382E+01 1.419E+05 12.0118 1.00000
  9.000E+05 9.001E+05 2.150E+00 5.225E+00 7.730E+00 2.875E-01 1.324E+01 1.539E+01 1.488E+05 12.2473 1.00000
  1.000E+06 1.000E+06 2.159E+00 5.848E+00 8.640E+00 3.207E-01 1.481E+01 1.697E+01 1.550E+05 12.4580 1.00000
  1.200E+06 1.200E+06 2.175E+00 7.102E+00 1.047E+01 3.881E-01 1.796E+01 2.013E+01 1.659E+05 12.8226 1.00000
  1.400E+06 1.400E+06 2.188E+00 8.364E+00 1.230E+01 4.564E-01 2.112E+01 2.331E+01 1.751E+05 13.1309 1.00000
  1.700E+06 1.700E+06 2.205E+00 1.027E+01 1.505E+01 5.604E-01 2.588E+01 2.809E+01 1.869E+05 13.5192 1.00000
  2.000E+06 2.000E+06 2.219E+00 1.218E+01 1.782E+01 6.661E-01 3.067E+01 3.289E+01 1.968E+05 13.8442 1.00000
  2.500E+06 2.500E+06 2.239E+00 1.539E+01 2.244E+01 8.453E-01 3.867E+01 4.091E+01 2.105E+05 14.2905 1.00000
  3.000E+06 3.000E+06 2.256E+00 1.861E+01 2.707E+01 1.028E+00 4.670E+01 4.896E+01 2.217E+05 14.6551 1.00000
  3.500E+06 3.500E+06 2.270E+00 2.184E+01 3.171E+01 1.214E+00 5.476E+01 5.703E+01 2.312E+05 14.9634 1.00000
  4.000E+06 4.000E+06 2.282E+00 2.508E+01 3.635E+01 1.402E+00 6.283E+01 6.511E+01 2.395E+05 15.2304 1.00000
  4.500E+06 4.500E+06 2.292E+00 2.833E+01 4.100E+01 1.593E+00 7.092E+01 7.321E+01 2.467E+05 15.4660 1.00000
  5.000E+06 5.000E+06 2.302E+00 3.158E+01 4.565E+01 1.785E+00 7.902E+01 8.132E+01 2.532E+05 15.6767 1.00000
  5.500E+06 5.500E+06 2.311E+00 3.484E+01 5.030E+01 1.980E+00 8.712E+01 8.943E+01 2.591E+05 15.8673 1.00000
  6.000E+06 6.000E+06 2.319E+00 3.810E+01 5.496E+01 2.177E+00 9.524E+01 9.756E+01 2.644E+05 16.0414 1.00000
  7.000E+06 7.000E+06 2.333E+00 4.463E+01 6.428E+01 2.575E+00 1.115E+02 1.138E+02 2.739E+05 16.3496 1.00000
  8.000E+06 8.000E+06 2.346E+00 5.118E+01 7.361E+01 2.978E+00 1.278E+02 1.301E+02 2.822E+05 16.6167 1.00000
  9.000E+06 9.000E+06 2.357E+00 5.773E+01 8.294E+01 3.387E+00 1.441E+02 1.464E+02 2.894E+05 16.8523 1.00000
  1.000E+07 1.000E+07 2.367E+00 6.428E+01 9.228E+01 3.801E+00 1.604E+02 1.627E+02 2.959E+05 17.0630 1.00000
  1.200E+07 1.200E+07 2.384E+00 7.742E+01 1.110E+02 4.642E+00 1.930E+02 1.954E+02 3.072E+05 17.4276 1.00000
  1.400E+07 1.400E+07 2.399E+00 9.056E+01 1.297E+02 5.497E+00 2.257E+02 2.281E+02 3.167E+05 17.7359 1.00000
  1.700E+07 1.700E+07 2.418E+00 1.103E+02 1.577E+02 6.805E+00 2.748E+02 2.772E+02 3.287E+05 18.1242 1.00000
  2.000E+07 2.000E+07 2.434E+00 1.301E+02 1.858E+02 8.137E+00 3.240E+02 3.264E+02 3.387E+05 18.4493 1.00000
  2.500E+07 2.500E+07 2.456E+00 1.630E+02 2.325E+02 1.041E+01 4.060E+02 4.084E+02 3.525E+05 18.8956 1.00000
  3.000E+07 3.000E+07 2.474E+00 1.960E+02 2.793E+02 1.272E+01 4.881E+02 4.905E+02 3.637E+05 19.2602 1.00000
  3.500E+07 3.500E+07 2.489E+00 2.290E+02 3.261E+02 1.508E+01 5.702E+02 5.727E+02 3.731E+05 19.5685 1.00000
  4.000E+07 4.000E+07 2.503E+00 2.620E+02 3.730E+02 1.748E+01 6.525E+02 6.550E+02 3.813E+05 19.8356 1.00000
  4.500E+07 4.500E+07 2.514E+00 2.951E+02 4.198E+02 1.992E+01 7.347E+02 7.373E+02 3.885E+05 20.0711 1.00000
  5.000E+07 5.000E+07 2.525E+00 3.281E+02 4.666E+02 2.238E+01 8.171E+02 8.196E+02 3.950E+05 20.2818 1.00000
  5.500E+07 5.500E+07 2.535E+00 3.611E+02 5.134E+02 2.487E+01 8.994E+02 9.020E+02 4.008E+05 20.4725 1.00000
  6.000E+07 6.000E+07 2.544E+00 3.942E+02 5.602E+02 2.738E+01 9.818E+02 9.844E+02 4.061E+05 20.6465 1.00000
  7.000E+07 7.000E+07 2.560E+00 4.603E+02 6.539E+02 3.248E+01 1.147E+03 1.149E+03 4.155E+05 20.9548 1.00000
  8.000E+07 8.000E+07 2.574E+00 5.264E+02 7.476E+02 3.766E+01 1.312E+03 1.314E+03 4.237E+05 21.2219 1.00000
  9.000E+07 9.000E+07 2.586E+00 5.926E+02 8.412E+02 4.292E+01 1.477E+03 1.479E+03 4.309E+05 21.4574 1.00000
  1.000E+08 1.000E+08 2.597E+00 6.587E+02 9.349E+02 4.824E+01 1.642E+03 1.644E+03 4.373E+05 21.6681 1.00000
  1.200E+08 1.200E+08 2.617E+00 7.910E+02 1.122E+03 5.906E+01 1.972E+03 1.975E+03 4.484E+05 22.0328 1.00000
  1.400E+08 1.400E+08 2.633E+00 9.233E+02 1.310E+03 7.009E+01 2.303E+03 2.306E+03 4.578E+05 22.3411 1.00000
  1.700E+08 1.700E+08 2.654E+00 1.122E+03 1.591E+03 8.696E+01 2.800E+03 2.802E+03 4.697E+05 22.7294 1.00000
  2.000E+08 2.000E+08 2.672E+00 1.320E+03 1.872E+03 1.042E+02 3.296E+03 3.299E+03 4.796E+05 23.0544 1.00000
  2.500E+08 2.500E+08 2.696E+00 1.651E+03 2.340E+03 1.335E+02 4.125E+03 4.128E+03 4.932E+05 23.5007 1.00000
  3.000E+08 3.000E+08 2.716E+00 1.982E+03 2.809E+03 1.636E+02 4.954E+03 4.957E+03 5.043E+05 23.8654 1.00000
  3.500E+08 3.500E+08 2.733E+00 2.313E+03 3.277E+03 1.942E+02 5.785E+03 5.787E+03 5.137E+05 24.1737 1.00000
  4.000E+08 4.000E+08 2.748E+00 2.644E+03 3.746E+03 2.253E+02 6.615E+03 6.618E+03 5.218E+05 24.4407 1.00000
  4.500E+08 4.500E+08 2.762E+00 2.975E+03 4.214E+03 2.569E+02 7.446E+03 7.449E+03 5.289E+05 24.6763 1.00000
  5.000E+08 5.000E+08 2.774E+00 3.306E+03 4.682E+03 2.890E+02 8.277E+03 8.280E+03 5.353E+05 24.8870 1.00000
  5.500E+08 5.500E+08 2.785E+00 3.637E+03 5.151E+03 3.213E+02 9.109E+03 9.112E+03 5.411E+05 25.0776 1.00000
  6.000E+08 6.000E+08 2.795E+00 3.968E+03 5.619E+03 3.541E+02 9.941E+03 9.944E+03 5.463E+05 25.2517 1.00000
  7.000E+08 7.000E+08 2.812E+00 4.630E+03 6.556E+03 4.205E+02 1.161E+04 1.161E+04 5.557E+05 25.5600 1.00000
  8.000E+08 8.000E+08 2.828E+00 5.292E+03 7.493E+03 4.881E+02 1.327E+04 1.328E+04 5.637E+05 25.8270 1.00000
  9.000E+08 9.000E+08 2.842E+00 5.954E+03 8.430E+03 5.566E+02 1.494E+04 1.494E+04 5.708E+05 26.0626 1.00000
  1.000E+09 1.000E+09 2.854E+00 6.616E+03 9.366E+03 6.261E+02 1.661E+04 1.661E+04 5.772E+05 26.2733 1.00000
