 Incident particle is a Muon with M = 105.65839 MeV
 Index = 0: LiquidPropane
      Absorber with <Z/A> = 0.58948
 Sternheimer coef:  a     k=m_s   x_0    x_1    I[eV]   Cbar  delta0
                 0.1033  3.5620  0.2564  2.6271   52.0  3.4162 0.00

 *** Table generated with PUMAS v1.00 ***

      T         p     Ionization  brems     pair     photonuc  Radloss    dE/dx   CSDA Range  delta   beta
    [MeV]    [MeV/c]  -----------------------[MeV cm^2/g]------------------------  [g/cm^2]
  1.000E+00 1.457E+01 5.723E+01 5.953E-07 0.000E+00 0.000E+00 5.953E-07 5.723E+01 8.737E-03  0.0000 0.13661
  1.200E+00 1.597E+01 4.928E+01 6.803E-07 0.000E+00 0.000E+00 6.803E-07 4.928E+01 1.251E-02  0.0000 0.14944
  1.400E+00 1.726E+01 4.341E+01 7.616E-07 0.000E+00 0.000E+00 7.616E-07 4.341E+01 1.685E-02  0.0000 0.16119
  1.700E+00 1.903E+01 3.700E+01 8.777E-07 0.000E+00 0.000E+00 8.777E-07 3.700E+01 2.436E-02  0.0000 0.17725
  2.000E+00 2.066E+01 3.236E+01 9.879E-07 0.000E+00 0.000E+00 9.879E-07 3.236E+01 3.305E-02  0.0000 0.19186
  2.500E+00 2.312E+01 2.692E+01 1.161E-06 0.000E+00 0.000E+00 1.161E-06 2.692E+01 5.006E-02  0.0000 0.21376
  3.000E+00 2.536E+01 2.318E+01 1.323E-06 0.000E+00 0.000E+00 1.323E-06 2.318E+01 7.013E-02  0.0000 0.23336
  3.500E+00 2.742E+01 2.043E+01 1.476E-06 0.000E+00 0.000E+00 1.476E-06 2.043E+01 9.316E-02  0.0000 0.25120
  4.000E+00 2.935E+01 1.832E+01 1.622E-06 0.000E+00 0.000E+00 1.622E-06 1.832E+01 1.190E-01  0.0000 0.26763
  4.500E+00 3.116E+01 1.664E+01 1.761E-06 0.000E+00 0.000E+00 1.761E-06 1.664E+01 1.477E-01  0.0000 0.28290
  5.000E+00 3.289E+01 1.529E+01 1.895E-06 0.000E+00 0.000E+00 1.895E-06 1.529E+01 1.791E-01  0.0000 0.29720
  5.500E+00 3.453E+01 1.416E+01 2.024E-06 0.000E+00 0.000E+00 2.024E-06 1.416E+01 2.131E-01  0.0000 0.31066
  6.000E+00 3.611E+01 1.320E+01 2.148E-06 0.000E+00 0.000E+00 2.148E-06 1.320E+01 2.497E-01  0.0000 0.32339
  7.000E+00 3.909E+01 1.168E+01 2.385E-06 0.000E+00 0.000E+00 2.385E-06 1.168E+01 3.304E-01  0.0000 0.34700
  8.000E+00 4.189E+01 1.052E+01 2.609E-06 0.000E+00 0.000E+00 2.609E-06 1.052E+01 4.207E-01  0.0000 0.36854
  9.000E+00 4.453E+01 9.603E+00 2.822E-06 0.000E+00 0.000E+00 2.822E-06 9.603E+00 5.203E-01  0.0000 0.38836
  1.000E+01 4.704E+01 8.859E+00 3.025E-06 0.000E+00 0.000E+00 3.025E-06 8.859E+00 6.288E-01  0.0000 0.40675
  1.200E+01 5.177E+01 7.724E+00 3.408E-06 0.000E+00 0.000E+00 3.408E-06 7.724E+00 8.711E-01  0.0000 0.43998
  1.400E+01 5.616E+01 6.899E+00 3.765E-06 0.000E+00 0.000E+00 3.765E-06 6.899E+00 1.146E+00  0.0000 0.46937
  1.700E+01 6.230E+01 6.010E+00 4.264E-06 0.000E+00 0.000E+00 4.264E-06 6.010E+00 1.613E+00  0.0000 0.50792
  2.000E+01 6.802E+01 5.379E+00 4.730E-06 0.000E+00 0.000E+00 4.730E-06 5.379E+00 2.141E+00  0.0000 0.54129
  2.500E+01 7.686E+01 4.654E+00 5.454E-06 0.000E+00 0.000E+00 5.454E-06 4.654E+00 3.143E+00  0.0000 0.58827
  3.000E+01 8.509E+01 4.166E+00 6.133E-06 0.000E+00 0.000E+00 6.133E-06 4.166E+00 4.280E+00  0.0000 0.62720
  3.500E+01 9.285E+01 3.816E+00 6.782E-06 0.000E+00 0.000E+00 6.782E-06 3.816E+00 5.535E+00  0.0000 0.66011
  4.000E+01 1.003E+02 3.553E+00 7.411E-06 0.000E+00 0.000E+00 7.411E-06 3.553E+00 6.894E+00  0.0000 0.68834
  4.500E+01 1.074E+02 3.350E+00 8.027E-06 0.000E+00 0.000E+00 8.027E-06 3.350E+00 8.344E+00  0.0000 0.71286
  5.000E+01 1.143E+02 3.188E+00 8.635E-06 0.000E+00 0.000E+00 8.635E-06 3.188E+00 9.874E+00  0.0000 0.73434
  5.500E+01 1.210E+02 3.057E+00 9.237E-06 0.000E+00 0.000E+00 9.237E-06 3.057E+00 1.148E+01  0.0000 0.75332
  6.000E+01 1.276E+02 2.949E+00 9.838E-06 0.000E+00 0.000E+00 9.838E-06 2.949E+00 1.314E+01  0.0000 0.77019
  7.000E+01 1.403E+02 2.782E+00 1.104E-05 0.000E+00 0.000E+00 1.104E-05 2.782E+00 1.664E+01  0.0000 0.79887
  8.000E+01 1.527E+02 2.661E+00 1.224E-05 0.000E+00 0.000E+00 1.224E-05 2.661E+00 2.031E+01  0.0000 0.82227
  9.000E+01 1.647E+02 2.570E+00 1.347E-05 0.000E+00 0.000E+00 1.347E-05 2.570E+00 2.414E+01  0.0000 0.84166
  1.000E+02 1.764E+02 2.500E+00 1.470E-05 0.000E+00 0.000E+00 1.470E-05 2.500E+00 2.808E+01  0.0000 0.85794
  1.200E+02 1.994E+02 2.401E+00 1.724E-05 0.000E+00 0.000E+00 1.724E-05 2.401E+00 3.625E+01  0.0251 0.88361
  1.400E+02 2.218E+02 2.332E+00 1.986E-05 0.000E+00 0.000E+00 1.986E-05 2.332E+00 4.470E+01  0.0897 0.90278
  1.700E+02 2.546E+02 2.268E+00 2.397E-05 3.471E-14 0.000E+00 2.397E-05 2.268E+00 5.774E+01  0.1845 0.92363
  2.000E+02 2.868E+02 2.232E+00 2.826E-05 7.750E-12 0.000E+00 2.826E-05 2.232E+00 7.108E+01  0.2760 0.93835
  2.500E+02 3.396E+02 2.201E+00 3.584E-05 6.391E-08 0.000E+00 3.591E-05 2.201E+00 9.364E+01  0.4205 0.95485
  3.000E+02 3.917E+02 2.191E+00 4.390E-05 5.579E-07 0.000E+00 4.446E-05 2.191E+00 1.164E+02  0.5552 0.96548
  3.500E+02 4.432E+02 2.191E+00 5.240E-05 1.528E-06 0.000E+00 5.393E-05 2.191E+00 1.392E+02  0.6811 0.97274
  4.000E+02 4.945E+02 2.196E+00 6.130E-05 2.952E-06 0.000E+00 6.425E-05 2.196E+00 1.620E+02  0.7993 0.97793
  4.500E+02 5.455E+02 2.204E+00 7.057E-05 4.813E-06 0.000E+00 7.539E-05 2.204E+00 1.847E+02  0.9105 0.98176
  5.000E+02 5.964E+02 2.213E+00 8.019E-05 7.095E-06 0.000E+00 8.728E-05 2.213E+00 2.074E+02  1.0155 0.98467
  5.500E+02 6.471E+02 2.223E+00 9.013E-05 9.784E-06 0.000E+00 9.991E-05 2.223E+00 2.299E+02  1.1149 0.98693
  6.000E+02 6.977E+02 2.233E+00 1.004E-04 1.287E-05 0.000E+00 1.132E-04 2.233E+00 2.524E+02  1.2095 0.98873
  7.000E+02 7.987E+02 2.254E+00 1.217E-04 2.015E-05 0.000E+00 1.418E-04 2.254E+00 2.969E+02  1.3855 0.99136
  8.000E+02 8.995E+02 2.273E+00 1.440E-04 2.886E-05 0.000E+00 1.729E-04 2.274E+00 3.411E+02  1.5466 0.99317
  9.000E+02 1.000E+03 2.292E+00 1.672E-04 3.890E-05 0.000E+00 2.061E-04 2.292E+00 3.849E+02  1.6952 0.99447
  1.000E+03 1.101E+03 2.309E+00 1.913E-04 5.019E-05 0.000E+00 2.415E-04 2.309E+00 4.284E+02  1.8332 0.99542
  1.200E+03 1.301E+03 2.340E+00 2.418E-04 7.622E-05 2.258E-05 3.406E-04 2.341E+00 5.144E+02  2.0829 0.99672
  1.400E+03 1.502E+03 2.367E+00 2.949E-04 1.065E-04 6.196E-05 4.633E-04 2.368E+00 5.994E+02  2.3042 0.99753
  1.700E+03 1.803E+03 2.402E+00 3.789E-04 1.589E-04 1.333E-04 6.711E-04 2.403E+00 7.251E+02  2.5955 0.99829
  2.000E+03 2.103E+03 2.432E+00 4.676E-04 2.188E-04 2.179E-04 9.042E-04 2.433E+00 8.492E+02  2.8495 0.99874
  2.500E+03 2.604E+03 2.472E+00 6.240E-04 3.330E-04 3.823E-04 1.339E-03 2.473E+00 1.053E+03  3.2120 0.99918
  3.000E+03 3.104E+03 2.505E+00 7.896E-04 4.627E-04 5.562E-04 1.808E-03 2.507E+00 1.254E+03  3.5190 0.99942
  3.500E+03 3.604E+03 2.532E+00 9.631E-04 6.058E-04 7.413E-04 2.310E-03 2.534E+00 1.452E+03  3.7854 0.99957
  4.000E+03 4.104E+03 2.556E+00 1.144E-03 7.772E-04 9.400E-04 2.861E-03 2.558E+00 1.649E+03  4.0208 0.99967
  4.500E+03 4.604E+03 2.576E+00 1.330E-03 9.663E-04 1.147E-03 3.444E-03 2.579E+00 1.843E+03  4.2318 0.99974
  5.000E+03 5.105E+03 2.594E+00 1.522E-03 1.167E-03 1.347E-03 4.036E-03 2.598E+00 2.036E+03  4.4230 0.99979
  5.500E+03 5.605E+03 2.610E+00 1.719E-03 1.378E-03 1.563E-03 4.661E-03 2.615E+00 2.228E+03  4.5978 0.99982
  6.000E+03 6.105E+03 2.625E+00 1.921E-03 1.599E-03 1.764E-03 5.285E-03 2.630E+00 2.419E+03  4.7587 0.99985
  7.000E+03 7.105E+03 2.650E+00 2.337E-03 2.067E-03 2.193E-03 6.597E-03 2.657E+00 2.797E+03  5.0470 0.99989
  8.000E+03 8.105E+03 2.672E+00 2.768E-03 2.567E-03 2.619E-03 7.954E-03 2.680E+00 3.172E+03  5.2996 0.99992
  9.000E+03 9.105E+03 2.691E+00 3.213E-03 3.094E-03 3.021E-03 9.328E-03 2.700E+00 3.544E+03  5.5243 0.99993
  1.000E+04 1.011E+04 2.708E+00 3.669E-03 3.646E-03 3.438E-03 1.075E-02 2.718E+00 3.913E+03  5.7268 0.99995
  1.200E+04 1.211E+04 2.736E+00 4.612E-03 4.815E-03 4.284E-03 1.371E-02 2.750E+00 4.644E+03  6.0799 0.99996
  1.400E+04 1.411E+04 2.759E+00 5.591E-03 6.058E-03 5.135E-03 1.678E-02 2.776E+00 5.368E+03  6.3808 0.99997
  1.700E+04 1.711E+04 2.788E+00 7.118E-03 8.039E-03 6.400E-03 2.156E-02 2.809E+00 6.442E+03  6.7623 0.99998
  2.000E+04 2.011E+04 2.811E+00 8.702E-03 1.014E-02 7.646E-03 2.649E-02 2.838E+00 7.505E+03  7.0833 0.99999
  2.500E+04 2.511E+04 2.843E+00 1.145E-02 1.385E-02 9.699E-03 3.500E-02 2.878E+00 9.255E+03  7.5258 0.99999
  3.000E+04 3.011E+04 2.868E+00 1.430E-02 1.778E-02 1.172E-02 4.380E-02 2.912E+00 1.098E+04  7.8885 0.99999
  3.500E+04 3.511E+04 2.889E+00 1.725E-02 2.188E-02 1.377E-02 5.290E-02 2.942E+00 1.269E+04  8.1956 1.00000
  4.000E+04 4.011E+04 2.907E+00 2.028E-02 2.613E-02 1.580E-02 6.221E-02 2.969E+00 1.438E+04  8.4619 1.00000
  4.500E+04 4.511E+04 2.922E+00 2.337E-02 3.051E-02 1.781E-02 7.169E-02 2.994E+00 1.606E+04  8.6969 1.00000
  5.000E+04 5.011E+04 2.936E+00 2.652E-02 3.500E-02 1.982E-02 8.134E-02 3.017E+00 1.772E+04  8.9072 1.00000
  5.500E+04 5.511E+04 2.948E+00 2.972E-02 3.959E-02 2.185E-02 9.116E-02 3.039E+00 1.937E+04  9.0974 1.00000
  6.000E+04 6.011E+04 2.959E+00 3.297E-02 4.426E-02 2.386E-02 1.011E-01 3.060E+00 2.101E+04  9.2711 1.00000
  7.000E+04 7.011E+04 2.979E+00 3.960E-02 5.383E-02 2.786E-02 1.213E-01 3.100E+00 2.426E+04  9.5789 1.00000
  8.000E+04 8.011E+04 2.996E+00 4.638E-02 6.367E-02 3.187E-02 1.419E-01 3.137E+00 2.747E+04  9.8456 1.00000
  9.000E+04 9.011E+04 3.010E+00 5.328E-02 7.372E-02 3.589E-02 1.629E-01 3.173E+00 3.064E+04 10.0809 1.00000
  1.000E+05 1.001E+05 3.023E+00 6.029E-02 8.395E-02 3.984E-02 1.841E-01 3.207E+00 3.377E+04 10.2913 1.00000
  1.200E+05 1.201E+05 3.046E+00 7.460E-02 1.049E-01 4.789E-02 2.274E-01 3.273E+00 3.994E+04 10.6556 1.00000
  1.400E+05 1.401E+05 3.065E+00 8.923E-02 1.264E-01 5.595E-02 2.716E-01 3.336E+00 4.600E+04 10.9637 1.00000
  1.700E+05 1.701E+05 3.088E+00 1.117E-01 1.593E-01 6.807E-02 3.391E-01 3.427E+00 5.487E+04 11.3517 1.00000
  2.000E+05 2.001E+05 3.108E+00 1.346E-01 1.930E-01 8.028E-02 4.079E-01 3.516E+00 6.351E+04 11.6766 1.00000
  2.500E+05 2.501E+05 3.135E+00 1.736E-01 2.504E-01 1.007E-01 5.247E-01 3.659E+00 7.746E+04 12.1227 1.00000
  3.000E+05 3.001E+05 3.157E+00 2.135E-01 3.089E-01 1.213E-01 6.437E-01 3.800E+00 9.087E+04 12.4872 1.00000
  3.500E+05 3.501E+05 3.175E+00 2.541E-01 3.683E-01 1.422E-01 7.646E-01 3.940E+00 1.038E+05 12.7954 1.00000
  4.000E+05 4.001E+05 3.191E+00 2.952E-01 4.284E-01 1.632E-01 8.868E-01 4.078E+00 1.163E+05 13.0623 1.00000
  4.500E+05 4.501E+05 3.206E+00 3.367E-01 4.891E-01 1.843E-01 1.010E+00 4.216E+00 1.283E+05 13.2979 1.00000
  5.000E+05 5.001E+05 3.218E+00 3.787E-01 5.502E-01 2.056E-01 1.135E+00 4.353E+00 1.400E+05 13.5085 1.00000
  5.500E+05 5.501E+05 3.230E+00 4.211E-01 6.118E-01 2.268E-01 1.260E+00 4.490E+00 1.513E+05 13.6991 1.00000
  6.000E+05 6.001E+05 3.241E+00 4.637E-01 6.737E-01 2.481E-01 1.385E+00 4.626E+00 1.623E+05 13.8731 1.00000
  7.000E+05 7.001E+05 3.259E+00 5.498E-01 7.984E-01 2.910E-01 1.639E+00 4.899E+00 1.833E+05 14.1814 1.00000
  8.000E+05 8.001E+05 3.276E+00 6.368E-01 9.241E-01 3.345E-01 1.895E+00 5.171E+00 2.032E+05 14.4484 1.00000
  9.000E+05 9.001E+05 3.290E+00 7.246E-01 1.051E+00 3.783E-01 2.153E+00 5.444E+00 2.220E+05 14.6839 1.00000
  1.000E+06 1.000E+06 3.303E+00 8.130E-01 1.178E+00 4.226E-01 2.413E+00 5.716E+00 2.400E+05 14.8946 1.00000
  1.200E+06 1.200E+06 3.326E+00 9.913E-01 1.433E+00 5.123E-01 2.937E+00 6.263E+00 2.734E+05 15.2592 1.00000
  1.400E+06 1.400E+06 3.345E+00 1.171E+00 1.691E+00 6.032E-01 3.465E+00 6.810E+00 3.041E+05 15.5675 1.00000
  1.700E+06 1.700E+06 3.369E+00 1.444E+00 2.079E+00 7.418E-01 4.265E+00 7.634E+00 3.457E+05 15.9558 1.00000
  2.000E+06 2.000E+06 3.390E+00 1.719E+00 2.469E+00 8.827E-01 5.071E+00 8.461E+00 3.831E+05 16.2808 1.00000
  2.500E+06 2.500E+06 3.418E+00 2.181E+00 3.123E+00 1.122E+00 6.426E+00 9.844E+00 4.381E+05 16.7271 1.00000
  3.000E+06 3.000E+06 3.441E+00 2.648E+00 3.779E+00 1.366E+00 7.793E+00 1.123E+01 4.857E+05 17.0917 1.00000
  3.500E+06 3.500E+06 3.461E+00 3.117E+00 4.438E+00 1.613E+00 9.168E+00 1.263E+01 5.278E+05 17.4000 1.00000
  4.000E+06 4.000E+06 3.479E+00 3.588E+00 5.098E+00 1.865E+00 1.055E+01 1.403E+01 5.654E+05 17.6670 1.00000
  4.500E+06 4.500E+06 3.494E+00 4.061E+00 5.760E+00 2.119E+00 1.194E+01 1.543E+01 5.994E+05 17.9026 1.00000
  5.000E+06 5.000E+06 3.508E+00 4.536E+00 6.422E+00 2.376E+00 1.333E+01 1.684E+01 6.304E+05 18.1133 1.00000
  5.500E+06 5.500E+06 3.520E+00 5.012E+00 7.085E+00 2.636E+00 1.473E+01 1.825E+01 6.590E+05 18.3039 1.00000
  6.000E+06 6.000E+06 3.532E+00 5.489E+00 7.749E+00 2.899E+00 1.614E+01 1.967E+01 6.854E+05 18.4780 1.00000
  7.000E+06 7.000E+06 3.552E+00 6.446E+00 9.079E+00 3.430E+00 1.896E+01 2.251E+01 7.330E+05 18.7862 1.00000
  8.000E+06 8.000E+06 3.570E+00 7.406E+00 1.041E+01 3.970E+00 2.179E+01 2.536E+01 7.750E+05 19.0533 1.00000
  9.000E+06 9.000E+06 3.586E+00 8.369E+00 1.174E+01 4.516E+00 2.463E+01 2.821E+01 8.124E+05 19.2889 1.00000
  1.000E+07 1.000E+07 3.600E+00 9.333E+00 1.308E+01 5.069E+00 2.748E+01 3.108E+01 8.462E+05 19.4996 1.00000
  1.200E+07 1.200E+07 3.625E+00 1.127E+01 1.575E+01 6.192E+00 3.321E+01 3.683E+01 9.055E+05 19.8642 1.00000
  1.400E+07 1.400E+07 3.646E+00 1.321E+01 1.842E+01 7.335E+00 3.896E+01 4.261E+01 9.561E+05 20.1725 1.00000
  1.700E+07 1.700E+07 3.673E+00 1.612E+01 2.243E+01 9.083E+00 4.764E+01 5.131E+01 1.021E+06 20.5608 1.00000
  2.000E+07 2.000E+07 3.695E+00 1.904E+01 2.645E+01 1.086E+01 5.635E+01 6.005E+01 1.075E+06 20.8859 1.00000
  2.500E+07 2.500E+07 3.727E+00 2.392E+01 3.315E+01 1.389E+01 7.096E+01 7.469E+01 1.150E+06 21.3322 1.00000
  3.000E+07 3.000E+07 3.753E+00 2.881E+01 3.985E+01 1.699E+01 8.565E+01 8.940E+01 1.211E+06 21.6968 1.00000
  3.500E+07 3.500E+07 3.775E+00 3.370E+01 4.655E+01 2.015E+01 1.004E+02 1.042E+02 1.263E+06 22.0051 1.00000
  4.000E+07 4.000E+07 3.794E+00 3.860E+01 5.326E+01 2.336E+01 1.152E+02 1.190E+02 1.308E+06 22.2722 1.00000
  4.500E+07 4.500E+07 3.811E+00 4.350E+01 5.997E+01 2.661E+01 1.301E+02 1.339E+02 1.348E+06 22.5077 1.00000
  5.000E+07 5.000E+07 3.826E+00 4.841E+01 6.668E+01 2.990E+01 1.450E+02 1.488E+02 1.383E+06 22.7184 1.00000
  5.500E+07 5.500E+07 3.840E+00 5.332E+01 7.339E+01 3.323E+01 1.599E+02 1.638E+02 1.416E+06 22.9091 1.00000
  6.000E+07 6.000E+07 3.853E+00 5.823E+01 8.010E+01 3.659E+01 1.749E+02 1.788E+02 1.445E+06 23.0831 1.00000
  7.000E+07 7.000E+07 3.876E+00 6.805E+01 9.353E+01 4.340E+01 2.050E+02 2.089E+02 1.497E+06 23.3914 1.00000
  8.000E+07 8.000E+07 3.895E+00 7.788E+01 1.070E+02 5.033E+01 2.352E+02 2.391E+02 1.542E+06 23.6585 1.00000
  9.000E+07 9.000E+07 3.913E+00 8.772E+01 1.204E+02 5.736E+01 2.655E+02 2.694E+02 1.581E+06 23.8940 1.00000
  1.000E+08 1.000E+08 3.929E+00 9.756E+01 1.338E+02 6.447E+01 2.958E+02 2.998E+02 1.616E+06 24.1047 1.00000
  1.200E+08 1.200E+08 3.957E+00 1.172E+02 1.607E+02 7.893E+01 3.569E+02 3.608E+02 1.677E+06 24.4694 1.00000
  1.400E+08 1.400E+08 3.980E+00 1.369E+02 1.875E+02 9.367E+01 4.181E+02 4.221E+02 1.729E+06 24.7777 1.00000
  1.700E+08 1.700E+08 4.010E+00 1.665E+02 2.278E+02 1.162E+02 5.106E+02 5.146E+02 1.793E+06 25.1660 1.00000
  2.000E+08 2.000E+08 4.035E+00 1.961E+02 2.681E+02 1.393E+02 6.034E+02 6.075E+02 1.847E+06 25.4910 1.00000
  2.500E+08 2.500E+08 4.070E+00 2.453E+02 3.353E+02 1.785E+02 7.591E+02 7.632E+02 1.921E+06 25.9373 1.00000
  3.000E+08 3.000E+08 4.099E+00 2.946E+02 4.025E+02 2.186E+02 9.158E+02 9.199E+02 1.981E+06 26.3020 1.00000
  3.500E+08 3.500E+08 4.123E+00 3.439E+02 4.697E+02 2.596E+02 1.073E+03 1.077E+03 2.031E+06 26.6103 1.00000
  4.000E+08 4.000E+08 4.145E+00 3.932E+02 5.369E+02 3.012E+02 1.231E+03 1.235E+03 2.075E+06 26.8773 1.00000
  4.500E+08 4.500E+08 4.164E+00 4.426E+02 6.040E+02 3.435E+02 1.390E+03 1.394E+03 2.113E+06 27.1129 1.00000
  5.000E+08 5.000E+08 4.181E+00 4.919E+02 6.712E+02 3.862E+02 1.549E+03 1.554E+03 2.147E+06 27.3236 1.00000
  5.500E+08 5.500E+08 4.197E+00 5.412E+02 7.384E+02 4.295E+02 1.709E+03 1.713E+03 2.178E+06 27.5142 1.00000
  6.000E+08 6.000E+08 4.211E+00 5.905E+02 8.056E+02 4.733E+02 1.869E+03 1.874E+03 2.206E+06 27.6883 1.00000
  7.000E+08 7.000E+08 4.236E+00 6.892E+02 9.399E+02 5.621E+02 2.191E+03 2.195E+03 2.255E+06 27.9966 1.00000
  8.000E+08 8.000E+08 4.258E+00 7.878E+02 1.074E+03 6.524E+02 2.515E+03 2.519E+03 2.298E+06 28.2636 1.00000
  9.000E+08 9.000E+08 4.278E+00 8.865E+02 1.209E+03 7.440E+02 2.839E+03 2.843E+03 2.335E+06 28.4992 1.00000
  1.000E+09 1.000E+09 4.296E+00 9.851E+02 1.343E+03 8.369E+02 3.165E+03 3.169E+03 2.369E+06 28.7099 1.00000
