 Incident particle is a Muon with M = 105.65839 MeV
 Index = 0: LiquidHydrogen
      Absorber with <Z/A> = 0.99138
 Sternheimer coef:  a     k=m_s   x_0    x_1    I[eV]   Cbar  delta0
                 0.1348  5.6249  0.4400  1.8856   21.8  3.0977 0.00

 *** Table generated with PUMAS v1.00 ***

      T         p     Ionization  brems     pair     photonuc  Radloss    dE/dx   CSDA Range  delta   beta
    [MeV]    [MeV/c]  -----------------------[MeV cm^2/g]------------------------  [g/cm^2]
  1.000E+00 1.457E+01 1.104E+02 3.184E-07 0.000E+00 0.000E+00 3.184E-07 1.104E+02 4.528E-03  0.0000 0.13661
  1.200E+00 1.597E+01 9.472E+01 3.560E-07 0.000E+00 0.000E+00 3.560E-07 9.472E+01 6.489E-03  0.0000 0.14944
  1.400E+00 1.726E+01 8.319E+01 3.921E-07 0.000E+00 0.000E+00 3.921E-07 8.319E+01 8.747E-03  0.0000 0.16119
  1.700E+00 1.903E+01 7.064E+01 4.440E-07 0.000E+00 0.000E+00 4.440E-07 7.064E+01 1.267E-02  0.0000 0.17725
  2.000E+00 2.066E+01 6.161E+01 4.936E-07 0.000E+00 0.000E+00 4.936E-07 6.161E+01 1.723E-02  0.0000 0.19186
  2.500E+00 2.312E+01 5.107E+01 5.721E-07 0.000E+00 0.000E+00 5.721E-07 5.107E+01 2.618E-02  0.0000 0.21376
  3.000E+00 2.536E+01 4.384E+01 6.465E-07 0.000E+00 0.000E+00 6.465E-07 4.384E+01 3.678E-02  0.0000 0.23336
  3.500E+00 2.742E+01 3.855E+01 7.173E-07 0.000E+00 0.000E+00 7.173E-07 3.855E+01 4.897E-02  0.0000 0.25120
  4.000E+00 2.935E+01 3.450E+01 7.851E-07 0.000E+00 0.000E+00 7.851E-07 3.450E+01 6.270E-02  0.0000 0.26763
  4.500E+00 3.116E+01 3.130E+01 8.504E-07 0.000E+00 0.000E+00 8.504E-07 3.130E+01 7.794E-02  0.0000 0.28290
  5.000E+00 3.289E+01 2.870E+01 9.134E-07 0.000E+00 0.000E+00 9.134E-07 2.870E+01 9.463E-02  0.0000 0.29720
  5.500E+00 3.453E+01 2.655E+01 9.745E-07 0.000E+00 0.000E+00 9.745E-07 2.655E+01 1.128E-01  0.0000 0.31066
  6.000E+00 3.611E+01 2.474E+01 1.034E-06 0.000E+00 0.000E+00 1.034E-06 2.474E+01 1.323E-01  0.0000 0.32339
  7.000E+00 3.909E+01 2.185E+01 1.147E-06 0.000E+00 0.000E+00 1.147E-06 2.185E+01 1.754E-01  0.0000 0.34700
  8.000E+00 4.189E+01 1.964E+01 1.256E-06 0.000E+00 0.000E+00 1.256E-06 1.964E+01 2.237E-01  0.0000 0.36854
  9.000E+00 4.453E+01 1.791E+01 1.359E-06 0.000E+00 0.000E+00 1.359E-06 1.791E+01 2.771E-01  0.0000 0.38836
  1.000E+01 4.704E+01 1.650E+01 1.459E-06 0.000E+00 0.000E+00 1.459E-06 1.650E+01 3.353E-01  0.0000 0.40675
  1.200E+01 5.177E+01 1.436E+01 1.648E-06 0.000E+00 0.000E+00 1.648E-06 1.436E+01 4.656E-01  0.0000 0.43998
  1.400E+01 5.616E+01 1.280E+01 1.827E-06 0.000E+00 0.000E+00 1.827E-06 1.280E+01 6.133E-01  0.0000 0.46937
  1.700E+01 6.230E+01 1.113E+01 2.078E-06 0.000E+00 0.000E+00 2.078E-06 1.113E+01 8.652E-01  0.0000 0.50792
  2.000E+01 6.802E+01 9.950E+00 2.314E-06 0.000E+00 0.000E+00 2.314E-06 9.950E+00 1.151E+00  0.0000 0.54129
  2.500E+01 7.686E+01 8.592E+00 2.684E-06 0.000E+00 0.000E+00 2.684E-06 8.592E+00 1.693E+00  0.0000 0.58827
  3.000E+01 8.509E+01 7.679E+00 3.033E-06 0.000E+00 0.000E+00 3.033E-06 7.679E+00 2.309E+00  0.0000 0.62720
  3.500E+01 9.285E+01 7.025E+00 3.367E-06 0.000E+00 0.000E+00 3.367E-06 7.025E+00 2.991E+00  0.0000 0.66011
  4.000E+01 1.003E+02 6.534E+00 3.691E-06 0.000E+00 0.000E+00 3.691E-06 6.534E+00 3.729E+00  0.0000 0.68834
  4.500E+01 1.074E+02 6.154E+00 4.009E-06 0.000E+00 0.000E+00 4.009E-06 6.154E+00 4.518E+00  0.0000 0.71286
  5.000E+01 1.143E+02 5.852E+00 4.321E-06 0.000E+00 0.000E+00 4.321E-06 5.852E+00 5.352E+00  0.0000 0.73434
  5.500E+01 1.210E+02 5.607E+00 4.631E-06 0.000E+00 0.000E+00 4.631E-06 5.607E+00 6.225E+00  0.0000 0.75332
  6.000E+01 1.276E+02 5.405E+00 4.939E-06 0.000E+00 0.000E+00 4.939E-06 5.405E+00 7.133E+00  0.0000 0.77019
  7.000E+01 1.403E+02 5.093E+00 5.553E-06 0.000E+00 0.000E+00 5.553E-06 5.093E+00 9.040E+00  0.0000 0.79887
  8.000E+01 1.527E+02 4.866E+00 6.169E-06 0.000E+00 0.000E+00 6.169E-06 4.866E+00 1.105E+01  0.0000 0.82227
  9.000E+01 1.647E+02 4.696E+00 6.789E-06 0.000E+00 0.000E+00 6.789E-06 4.696E+00 1.314E+01  0.0000 0.84166
  1.000E+02 1.764E+02 4.565E+00 7.417E-06 0.000E+00 0.000E+00 7.417E-06 4.565E+00 1.530E+01  0.0000 0.85794
  1.200E+02 1.994E+02 4.381E+00 8.700E-06 0.000E+00 0.000E+00 8.700E-06 4.381E+00 1.977E+01  0.0000 0.88361
  1.400E+02 2.218E+02 4.264E+00 1.002E-05 0.000E+00 0.000E+00 1.002E-05 4.264E+00 2.440E+01  0.0000 0.90278
  1.700E+02 2.546E+02 4.158E+00 1.208E-05 1.534E-14 0.000E+00 1.208E-05 4.158E+00 3.153E+01  0.0000 0.92363
  2.000E+02 2.868E+02 4.101E+00 1.423E-05 3.406E-12 0.000E+00 1.423E-05 4.101E+00 3.879E+01  0.0000 0.93835
  2.500E+02 3.396E+02 4.053E+00 1.801E-05 2.742E-08 0.000E+00 1.803E-05 4.053E+00 5.106E+01  0.0576 0.95485
  3.000E+02 3.917E+02 4.034E+00 2.202E-05 2.242E-07 0.000E+00 2.224E-05 4.034E+00 6.342E+01  0.1559 0.96548
  3.500E+02 4.432E+02 4.031E+00 2.623E-05 6.033E-07 0.000E+00 2.684E-05 4.031E+00 7.582E+01  0.2711 0.97274
  4.000E+02 4.945E+02 4.035E+00 3.065E-05 1.155E-06 0.000E+00 3.180E-05 4.035E+00 8.822E+01  0.3927 0.97793
  4.500E+02 5.455E+02 4.043E+00 3.524E-05 1.872E-06 0.000E+00 3.711E-05 4.043E+00 1.006E+02  0.5156 0.98176
  5.000E+02 5.964E+02 4.054E+00 4.001E-05 2.749E-06 0.000E+00 4.276E-05 4.054E+00 1.129E+02  0.6370 0.98467
  5.500E+02 6.471E+02 4.067E+00 4.493E-05 3.780E-06 0.000E+00 4.871E-05 4.067E+00 1.253E+02  0.7556 0.98693
  6.000E+02 6.977E+02 4.079E+00 5.000E-05 4.960E-06 0.000E+00 5.496E-05 4.080E+00 1.375E+02  0.8704 0.98873
  7.000E+02 7.987E+02 4.106E+00 6.056E-05 7.746E-06 0.000E+00 6.831E-05 4.106E+00 1.620E+02  1.0881 0.99136
  8.000E+02 8.995E+02 4.131E+00 7.164E-05 1.107E-05 0.000E+00 8.271E-05 4.131E+00 1.863E+02  1.2899 0.99317
  9.000E+02 1.000E+03 4.156E+00 8.318E-05 1.490E-05 0.000E+00 9.808E-05 4.156E+00 2.104E+02  1.4766 0.99447
  1.000E+03 1.101E+03 4.179E+00 9.517E-05 1.920E-05 0.000E+00 1.144E-04 4.179E+00 2.344E+02  1.6498 0.99542
  1.200E+03 1.301E+03 4.221E+00 1.203E-04 2.911E-05 2.266E-05 1.721E-04 4.221E+00 2.820E+02  1.9614 0.99672
  1.400E+03 1.502E+03 4.258E+00 1.469E-04 4.062E-05 6.270E-05 2.503E-04 4.258E+00 3.292E+02  2.2344 0.99753
  1.700E+03 1.803E+03 4.307E+00 1.893E-04 6.056E-05 1.364E-04 3.862E-04 4.307E+00 3.992E+02  2.5881 0.99829
  2.000E+03 2.103E+03 4.348E+00 2.341E-04 8.335E-05 2.249E-04 5.423E-04 4.349E+00 4.686E+02  2.8908 0.99874
  2.500E+03 2.604E+03 4.407E+00 3.140E-04 1.268E-04 3.993E-04 8.401E-04 4.408E+00 5.828E+02  3.3137 0.99918
  3.000E+03 3.104E+03 4.455E+00 3.993E-04 1.762E-04 5.865E-04 1.162E-03 4.456E+00 6.956E+02  3.6637 0.99942
  3.500E+03 3.604E+03 4.496E+00 4.895E-04 2.306E-04 7.880E-04 1.508E-03 4.498E+00 8.073E+02  3.9619 0.99957
  4.000E+03 4.104E+03 4.532E+00 5.840E-04 3.178E-04 1.006E-03 1.908E-03 4.534E+00 9.180E+02  4.2216 0.99967
  4.500E+03 4.604E+03 4.564E+00 6.825E-04 4.214E-04 1.235E-03 2.338E-03 4.566E+00 1.028E+03  4.4515 0.99974
  5.000E+03 5.105E+03 4.592E+00 7.845E-04 5.323E-04 1.457E-03 2.773E-03 4.595E+00 1.137E+03  4.6577 0.99979
  5.500E+03 5.605E+03 4.617E+00 8.899E-04 6.498E-04 1.697E-03 3.237E-03 4.620E+00 1.246E+03  4.8446 0.99982
  6.000E+03 6.105E+03 4.640E+00 9.984E-04 7.737E-04 1.923E-03 3.695E-03 4.644E+00 1.353E+03  5.0155 0.99985
  7.000E+03 7.105E+03 4.681E+00 1.224E-03 1.039E-03 2.403E-03 4.666E-03 4.685E+00 1.568E+03  5.3189 0.99989
  8.000E+03 8.105E+03 4.716E+00 1.460E-03 1.324E-03 2.885E-03 5.669E-03 4.721E+00 1.780E+03  5.5823 0.99992
  9.000E+03 9.105E+03 4.746E+00 1.705E-03 1.628E-03 3.341E-03 6.674E-03 4.753E+00 1.992E+03  5.8150 0.99993
  1.000E+04 1.011E+04 4.773E+00 1.958E-03 1.948E-03 3.816E-03 7.722E-03 4.781E+00 2.201E+03  6.0235 0.99995
  1.200E+04 1.211E+04 4.819E+00 2.488E-03 2.632E-03 4.784E-03 9.904E-03 4.829E+00 2.618E+03  6.3847 0.99996
  1.400E+04 1.411E+04 4.858E+00 3.044E-03 3.366E-03 5.763E-03 1.217E-02 4.870E+00 3.030E+03  6.6905 0.99997
  1.700E+04 1.711E+04 4.905E+00 3.920E-03 4.547E-03 7.224E-03 1.569E-02 4.921E+00 3.643E+03  7.0762 0.99998
  2.000E+04 2.011E+04 4.945E+00 4.839E-03 5.809E-03 8.670E-03 1.932E-02 4.964E+00 4.250E+03  7.3994 0.99999
  2.500E+04 2.511E+04 4.997E+00 6.452E-03 8.059E-03 1.106E-02 2.558E-02 5.023E+00 5.251E+03  7.8436 0.99999
  3.000E+04 3.011E+04 5.040E+00 8.150E-03 1.046E-02 1.344E-02 3.205E-02 5.072E+00 6.242E+03  8.2068 0.99999
  3.500E+04 3.511E+04 5.075E+00 9.918E-03 1.299E-02 1.584E-02 3.875E-02 5.113E+00 7.224E+03  8.5141 1.00000
  4.000E+04 4.011E+04 5.104E+00 1.175E-02 1.562E-02 1.824E-02 4.561E-02 5.150E+00 8.198E+03  8.7804 1.00000
  4.500E+04 4.511E+04 5.130E+00 1.363E-02 1.835E-02 2.062E-02 5.260E-02 5.183E+00 9.166E+03  9.0154 1.00000
  5.000E+04 5.011E+04 5.154E+00 1.556E-02 2.116E-02 2.300E-02 5.972E-02 5.213E+00 1.013E+04  9.2257 1.00000
  5.500E+04 5.511E+04 5.174E+00 1.753E-02 2.404E-02 2.541E-02 6.697E-02 5.241E+00 1.108E+04  9.4159 1.00000
  6.000E+04 6.011E+04 5.193E+00 1.954E-02 2.698E-02 2.780E-02 7.432E-02 5.267E+00 1.204E+04  9.5896 1.00000
  7.000E+04 7.011E+04 5.226E+00 2.366E-02 3.304E-02 3.256E-02 8.925E-02 5.315E+00 1.393E+04  9.8974 1.00000
  8.000E+04 8.011E+04 5.254E+00 2.789E-02 3.930E-02 3.734E-02 1.045E-01 5.359E+00 1.580E+04 10.1641 1.00000
  9.000E+04 9.011E+04 5.279E+00 3.223E-02 4.572E-02 4.215E-02 1.201E-01 5.399E+00 1.766E+04 10.3994 1.00000
  1.000E+05 1.001E+05 5.301E+00 3.666E-02 5.230E-02 4.688E-02 1.358E-01 5.436E+00 1.950E+04 10.6098 1.00000
  1.200E+05 1.201E+05 5.338E+00 4.575E-02 6.581E-02 5.653E-02 1.681E-01 5.506E+00 2.316E+04 10.9741 1.00000
  1.400E+05 1.401E+05 5.370E+00 5.511E-02 7.975E-02 6.621E-02 2.011E-01 5.571E+00 2.677E+04 11.2822 1.00000
  1.700E+05 1.701E+05 5.410E+00 6.955E-02 1.013E-01 8.079E-02 2.516E-01 5.661E+00 3.211E+04 11.6702 1.00000
  2.000E+05 2.001E+05 5.443E+00 8.437E-02 1.234E-01 9.550E-02 3.033E-01 5.746E+00 3.737E+04 11.9951 1.00000
  2.500E+05 2.501E+05 5.488E+00 1.098E-01 1.613E-01 1.201E-01 3.913E-01 5.879E+00 4.598E+04 12.4412 1.00000
  3.000E+05 3.001E+05 5.525E+00 1.360E-01 2.002E-01 1.451E-01 4.813E-01 6.006E+00 5.439E+04 12.8057 1.00000
  3.500E+05 3.501E+05 5.556E+00 1.627E-01 2.399E-01 1.703E-01 5.729E-01 6.129E+00 6.263E+04 13.1139 1.00000
  4.000E+05 4.001E+05 5.583E+00 1.899E-01 2.802E-01 1.957E-01 6.659E-01 6.249E+00 7.071E+04 13.3808 1.00000
  4.500E+05 4.501E+05 5.607E+00 2.175E-01 3.211E-01 2.213E-01 7.598E-01 6.367E+00 7.864E+04 13.6164 1.00000
  5.000E+05 5.001E+05 5.629E+00 2.454E-01 3.624E-01 2.471E-01 8.549E-01 6.484E+00 8.642E+04 13.8270 1.00000
  5.500E+05 5.501E+05 5.648E+00 2.737E-01 4.040E-01 2.728E-01 9.505E-01 6.599E+00 9.406E+04 14.0176 1.00000
  6.000E+05 6.001E+05 5.666E+00 3.023E-01 4.460E-01 2.986E-01 1.047E+00 6.713E+00 1.016E+05 14.1916 1.00000
  7.000E+05 7.001E+05 5.698E+00 3.601E-01 5.307E-01 3.508E-01 1.242E+00 6.939E+00 1.162E+05 14.4999 1.00000
  8.000E+05 8.001E+05 5.725E+00 4.186E-01 6.164E-01 4.035E-01 1.439E+00 7.164E+00 1.304E+05 14.7669 1.00000
  9.000E+05 9.001E+05 5.750E+00 4.779E-01 7.028E-01 4.568E-01 1.637E+00 7.387E+00 1.442E+05 15.0024 1.00000
  1.000E+06 1.000E+06 5.771E+00 5.377E-01 7.897E-01 5.106E-01 1.838E+00 7.610E+00 1.575E+05 15.2131 1.00000
  1.200E+06 1.200E+06 5.809E+00 6.588E-01 9.652E-01 6.196E-01 2.244E+00 8.053E+00 1.831E+05 15.5777 1.00000
  1.400E+06 1.400E+06 5.842E+00 7.815E-01 1.142E+00 7.302E-01 2.654E+00 8.496E+00 2.073E+05 15.8860 1.00000
  1.700E+06 1.700E+06 5.883E+00 9.678E-01 1.410E+00 8.987E-01 3.276E+00 9.159E+00 2.413E+05 16.2743 1.00000
  2.000E+06 2.000E+06 5.917E+00 1.156E+00 1.680E+00 1.070E+00 3.906E+00 9.823E+00 2.729E+05 16.5993 1.00000
  2.500E+06 2.500E+06 5.965E+00 1.474E+00 2.132E+00 1.361E+00 4.967E+00 1.093E+01 3.213E+05 17.0456 1.00000
  3.000E+06 3.000E+06 6.004E+00 1.796E+00 2.588E+00 1.658E+00 6.042E+00 1.205E+01 3.649E+05 17.4102 1.00000
  3.500E+06 3.500E+06 6.037E+00 2.121E+00 3.046E+00 1.959E+00 7.125E+00 1.316E+01 4.046E+05 17.7185 1.00000
  4.000E+06 4.000E+06 6.066E+00 2.447E+00 3.505E+00 2.265E+00 8.217E+00 1.428E+01 4.411E+05 17.9855 1.00000
  4.500E+06 4.500E+06 6.092E+00 2.776E+00 3.965E+00 2.575E+00 9.316E+00 1.541E+01 4.748E+05 18.2211 1.00000
  5.000E+06 5.000E+06 6.115E+00 3.106E+00 4.427E+00 2.888E+00 1.042E+01 1.654E+01 5.062E+05 18.4318 1.00000
  5.500E+06 5.500E+06 6.137E+00 3.438E+00 4.889E+00 3.205E+00 1.153E+01 1.767E+01 5.355E+05 18.6224 1.00000
  6.000E+06 6.000E+06 6.156E+00 3.770E+00 5.352E+00 3.524E+00 1.265E+01 1.880E+01 5.629E+05 18.7965 1.00000
  7.000E+06 7.000E+06 6.190E+00 4.438E+00 6.280E+00 4.172E+00 1.489E+01 2.108E+01 6.132E+05 19.1047 1.00000
  8.000E+06 8.000E+06 6.220E+00 5.109E+00 7.210E+00 4.829E+00 1.715E+01 2.337E+01 6.583E+05 19.3718 1.00000
  9.000E+06 9.000E+06 6.247E+00 5.783E+00 8.141E+00 5.494E+00 1.942E+01 2.567E+01 6.992E+05 19.6074 1.00000
  1.000E+07 1.000E+07 6.271E+00 6.458E+00 9.074E+00 6.168E+00 2.170E+01 2.797E+01 7.366E+05 19.8181 1.00000
  1.200E+07 1.200E+07 6.312E+00 7.814E+00 1.094E+01 7.536E+00 2.629E+01 3.260E+01 8.030E+05 20.1827 1.00000
  1.400E+07 1.400E+07 6.348E+00 9.176E+00 1.281E+01 8.928E+00 3.092E+01 3.726E+01 8.605E+05 20.4910 1.00000
  1.700E+07 1.700E+07 6.393E+00 1.123E+01 1.562E+01 1.106E+01 3.790E+01 4.430E+01 9.346E+05 20.8793 1.00000
  2.000E+07 2.000E+07 6.431E+00 1.328E+01 1.843E+01 1.323E+01 4.494E+01 5.137E+01 9.977E+05 21.2044 1.00000
  2.500E+07 2.500E+07 6.484E+00 1.672E+01 2.312E+01 1.692E+01 5.676E+01 6.325E+01 1.086E+06 21.6507 1.00000
  3.000E+07 3.000E+07 6.527E+00 2.017E+01 2.782E+01 2.070E+01 6.868E+01 7.521E+01 1.159E+06 22.0153 1.00000
  3.500E+07 3.500E+07 6.564E+00 2.362E+01 3.252E+01 2.454E+01 8.068E+01 8.725E+01 1.221E+06 22.3236 1.00000
  4.000E+07 4.000E+07 6.597E+00 2.708E+01 3.722E+01 2.845E+01 9.275E+01 9.935E+01 1.274E+06 22.5907 1.00000
  4.500E+07 4.500E+07 6.625E+00 3.055E+01 4.192E+01 3.241E+01 1.049E+02 1.115E+02 1.322E+06 22.8262 1.00000
  5.000E+07 5.000E+07 6.651E+00 3.402E+01 4.663E+01 3.642E+01 1.171E+02 1.237E+02 1.365E+06 23.0369 1.00000
  5.500E+07 5.500E+07 6.674E+00 3.749E+01 5.134E+01 4.047E+01 1.293E+02 1.360E+02 1.403E+06 23.2276 1.00000
  6.000E+07 6.000E+07 6.696E+00 4.096E+01 5.604E+01 4.457E+01 1.416E+02 1.483E+02 1.438E+06 23.4016 1.00000
  7.000E+07 7.000E+07 6.734E+00 4.791E+01 6.546E+01 5.288E+01 1.662E+02 1.730E+02 1.501E+06 23.7099 1.00000
  8.000E+07 8.000E+07 6.767E+00 5.487E+01 7.488E+01 6.132E+01 1.911E+02 1.978E+02 1.555E+06 23.9770 1.00000
  9.000E+07 9.000E+07 6.797E+00 6.184E+01 8.430E+01 6.987E+01 2.160E+02 2.228E+02 1.603E+06 24.2125 1.00000
  1.000E+08 1.000E+08 6.824E+00 6.880E+01 9.372E+01 7.854E+01 2.411E+02 2.479E+02 1.646E+06 24.4232 1.00000
  1.200E+08 1.200E+08 6.870E+00 8.275E+01 1.126E+02 9.617E+01 2.915E+02 2.983E+02 1.719E+06 24.7879 1.00000
  1.400E+08 1.400E+08 6.910E+00 9.670E+01 1.314E+02 1.141E+02 3.422E+02 3.492E+02 1.782E+06 25.0962 1.00000
  1.700E+08 1.700E+08 6.960E+00 1.176E+02 1.597E+02 1.416E+02 4.189E+02 4.259E+02 1.860E+06 25.4845 1.00000
  2.000E+08 2.000E+08 7.002E+00 1.386E+02 1.880E+02 1.697E+02 4.962E+02 5.032E+02 1.925E+06 25.8095 1.00000
  2.500E+08 2.500E+08 7.061E+00 1.735E+02 2.351E+02 2.175E+02 6.261E+02 6.332E+02 2.014E+06 26.2558 1.00000
  3.000E+08 3.000E+08 7.109E+00 2.085E+02 2.822E+02 2.664E+02 7.571E+02 7.643E+02 2.086E+06 26.6205 1.00000
  3.500E+08 3.500E+08 7.151E+00 2.435E+02 3.294E+02 3.163E+02 8.891E+02 8.963E+02 2.147E+06 26.9288 1.00000
  4.000E+08 4.000E+08 7.187E+00 2.785E+02 3.765E+02 3.670E+02 1.022E+03 1.029E+03 2.199E+06 27.1958 1.00000
  4.500E+08 4.500E+08 7.219E+00 3.134E+02 4.237E+02 4.185E+02 1.156E+03 1.163E+03 2.245E+06 27.4314 1.00000
  5.000E+08 5.000E+08 7.248E+00 3.484E+02 4.708E+02 4.706E+02 1.290E+03 1.297E+03 2.285E+06 27.6421 1.00000
  5.500E+08 5.500E+08 7.274E+00 3.834E+02 5.180E+02 5.234E+02 1.425E+03 1.432E+03 2.322E+06 27.8327 1.00000
  6.000E+08 6.000E+08 7.298E+00 4.184E+02 5.651E+02 5.767E+02 1.560E+03 1.568E+03 2.356E+06 28.0068 1.00000
  7.000E+08 7.000E+08 7.340E+00 4.884E+02 6.594E+02 6.849E+02 1.833E+03 1.840E+03 2.415E+06 28.3151 1.00000
  8.000E+08 8.000E+08 7.378E+00 5.584E+02 7.537E+02 7.949E+02 2.107E+03 2.114E+03 2.465E+06 28.5821 1.00000
  9.000E+08 9.000E+08 7.411E+00 6.284E+02 8.480E+02 9.066E+02 2.383E+03 2.390E+03 2.510E+06 28.8177 1.00000
  1.000E+09 1.000E+09 7.441E+00 6.984E+02 9.423E+02 1.020E+03 2.660E+03 2.668E+03 2.550E+06 29.0284 1.00000
