 Incident particle is a Muon with M = 105.65839 MeV
 Index = 0: LiquidNeon
      Absorber with <Z/A> = 0.49555
 Sternheimer coef:  a     k=m_s   x_0    x_1    I[eV]   Cbar  delta0
                 0.1692  3.0000  0.2000  3.0000  137.0  4.6345 0.00

 *** Table generated with PUMAS v1.00 ***

      T         p     Ionization  brems     pair     photonuc  Radloss    dE/dx   CSDA Range  delta   beta
    [MeV]    [MeV/c]  -----------------------[MeV cm^2/g]------------------------  [g/cm^2]
  1.000E+00 1.457E+01 4.021E+01 1.027E-06 0.000E+00 0.000E+00 1.027E-06 4.021E+01 1.244E-02  0.0000 0.13661
  1.200E+00 1.597E+01 3.482E+01 1.179E-06 0.000E+00 0.000E+00 1.179E-06 3.482E+01 1.779E-02  0.0000 0.14944
  1.400E+00 1.726E+01 3.082E+01 1.324E-06 0.000E+00 0.000E+00 1.324E-06 3.082E+01 2.391E-02  0.0000 0.16119
  1.700E+00 1.903E+01 2.641E+01 1.531E-06 0.000E+00 0.000E+00 1.531E-06 2.641E+01 3.446E-02  0.0000 0.17725
  2.000E+00 2.066E+01 2.320E+01 1.727E-06 0.000E+00 0.000E+00 1.727E-06 2.320E+01 4.660E-02  0.0000 0.19186
  2.500E+00 2.312E+01 1.941E+01 2.034E-06 0.000E+00 0.000E+00 2.034E-06 1.941E+01 7.026E-02  0.0000 0.21376
  3.000E+00 2.536E+01 1.678E+01 2.320E-06 0.000E+00 0.000E+00 2.320E-06 1.678E+01 9.805E-02  0.0000 0.23336
  3.500E+00 2.742E+01 1.483E+01 2.590E-06 0.000E+00 0.000E+00 2.590E-06 1.483E+01 1.298E-01  0.0000 0.25120
  4.000E+00 2.935E+01 1.334E+01 2.846E-06 0.000E+00 0.000E+00 2.846E-06 1.334E+01 1.654E-01  0.0000 0.26763
  4.500E+00 3.116E+01 1.215E+01 3.091E-06 0.000E+00 0.000E+00 3.091E-06 1.215E+01 2.047E-01  0.0000 0.28290
  5.000E+00 3.289E+01 1.118E+01 3.324E-06 0.000E+00 0.000E+00 3.324E-06 1.118E+01 2.476E-01  0.0000 0.29720
  5.500E+00 3.453E+01 1.037E+01 3.549E-06 0.000E+00 0.000E+00 3.549E-06 1.037E+01 2.941E-01  0.0000 0.31066
  6.000E+00 3.611E+01 9.691E+00 3.766E-06 0.000E+00 0.000E+00 3.766E-06 9.691E+00 3.440E-01  0.0000 0.32339
  7.000E+00 3.909E+01 8.598E+00 4.178E-06 0.000E+00 0.000E+00 4.178E-06 8.598E+00 4.538E-01  0.0000 0.34700
  8.000E+00 4.189E+01 7.760E+00 4.566E-06 0.000E+00 0.000E+00 4.566E-06 7.760E+00 5.763E-01  0.0000 0.36854
  9.000E+00 4.453E+01 7.096E+00 4.934E-06 0.000E+00 0.000E+00 4.934E-06 7.096E+00 7.112E-01  0.0000 0.38836
  1.000E+01 4.704E+01 6.556E+00 5.284E-06 0.000E+00 0.000E+00 5.284E-06 6.556E+00 8.580E-01  0.0000 0.40675
  1.200E+01 5.177E+01 5.732E+00 5.943E-06 0.000E+00 0.000E+00 5.943E-06 5.732E+00 1.185E+00  0.0000 0.43998
  1.400E+01 5.616E+01 5.130E+00 6.555E-06 0.000E+00 0.000E+00 6.555E-06 5.130E+00 1.554E+00  0.0000 0.46937
  1.700E+01 6.230E+01 4.481E+00 7.409E-06 0.000E+00 0.000E+00 7.409E-06 4.481E+00 2.181E+00  0.0000 0.50792
  2.000E+01 6.802E+01 4.019E+00 8.204E-06 0.000E+00 0.000E+00 8.204E-06 4.019E+00 2.889E+00  0.0000 0.54129
  2.500E+01 7.686E+01 3.486E+00 9.437E-06 0.000E+00 0.000E+00 9.437E-06 3.486E+00 4.229E+00  0.0000 0.58827
  3.000E+01 8.509E+01 3.127E+00 1.059E-05 0.000E+00 0.000E+00 1.059E-05 3.127E+00 5.745E+00  0.0000 0.62720
  3.500E+01 9.285E+01 2.869E+00 1.170E-05 0.000E+00 0.000E+00 1.170E-05 2.869E+00 7.416E+00  0.0000 0.66011
  4.000E+01 1.003E+02 2.676E+00 1.277E-05 0.000E+00 0.000E+00 1.277E-05 2.676E+00 9.221E+00  0.0000 0.68834
  4.500E+01 1.074E+02 2.526E+00 1.382E-05 0.000E+00 0.000E+00 1.382E-05 2.526E+00 1.115E+01  0.0000 0.71286
  5.000E+01 1.143E+02 2.407E+00 1.485E-05 0.000E+00 0.000E+00 1.485E-05 2.407E+00 1.317E+01  0.0000 0.73434
  5.500E+01 1.210E+02 2.310E+00 1.588E-05 0.000E+00 0.000E+00 1.588E-05 2.310E+00 1.529E+01  0.0000 0.75332
  6.000E+01 1.276E+02 2.230E+00 1.690E-05 0.000E+00 0.000E+00 1.690E-05 2.230E+00 1.750E+01  0.0000 0.77019
  7.000E+01 1.403E+02 2.108E+00 1.895E-05 0.000E+00 0.000E+00 1.895E-05 2.108E+00 2.211E+01  0.0000 0.79887
  8.000E+01 1.527E+02 2.019E+00 2.102E-05 0.000E+00 0.000E+00 2.102E-05 2.019E+00 2.696E+01  0.0000 0.82227
  9.000E+01 1.647E+02 1.952E+00 2.311E-05 0.000E+00 0.000E+00 2.311E-05 1.952E+00 3.200E+01  0.0000 0.84166
  1.000E+02 1.764E+02 1.900E+00 2.523E-05 0.000E+00 0.000E+00 2.523E-05 1.900E+00 3.719E+01  0.0157 0.85794
  1.200E+02 1.994E+02 1.826E+00 2.959E-05 0.000E+00 0.000E+00 2.959E-05 1.826E+00 4.793E+01  0.0563 0.88361
  1.400E+02 2.218E+02 1.779E+00 3.410E-05 0.000E+00 0.000E+00 3.410E-05 1.779E+00 5.903E+01  0.0980 0.90278
  1.700E+02 2.546E+02 1.736E+00 4.116E-05 0.000E+00 0.000E+00 4.116E-05 1.736E+00 7.610E+01  0.1607 0.92363
  2.000E+02 2.868E+02 1.713E+00 4.858E-05 1.368E-11 0.000E+00 4.858E-05 1.713E+00 9.349E+01  0.2225 0.93835
  2.500E+02 3.396E+02 1.697E+00 6.167E-05 1.114E-07 0.000E+00 6.178E-05 1.697E+00 1.228E+02  0.3220 0.95485
  3.000E+02 3.917E+02 1.695E+00 7.561E-05 1.012E-06 0.000E+00 7.662E-05 1.695E+00 1.523E+02  0.4167 0.96548
  3.500E+02 4.432E+02 1.700E+00 9.033E-05 2.805E-06 0.000E+00 9.313E-05 1.700E+00 1.817E+02  0.5065 0.97274
  4.000E+02 4.945E+02 1.709E+00 1.058E-04 5.450E-06 0.000E+00 1.112E-04 1.709E+00 2.111E+02  0.5917 0.97793
  4.500E+02 5.455E+02 1.719E+00 1.218E-04 8.918E-06 0.000E+00 1.308E-04 1.719E+00 2.403E+02  0.6728 0.98176
  5.000E+02 5.964E+02 1.729E+00 1.385E-04 1.318E-05 0.000E+00 1.517E-04 1.729E+00 2.693E+02  0.7500 0.98467
  5.500E+02 6.471E+02 1.740E+00 1.558E-04 1.820E-05 0.000E+00 1.740E-04 1.740E+00 2.981E+02  0.8237 0.98693
  6.000E+02 6.977E+02 1.751E+00 1.736E-04 2.396E-05 0.000E+00 1.975E-04 1.751E+00 3.267E+02  0.8942 0.98873
  7.000E+02 7.987E+02 1.772E+00 2.106E-04 3.760E-05 0.000E+00 2.482E-04 1.773E+00 3.835E+02  1.0267 0.99136
  8.000E+02 8.995E+02 1.792E+00 2.494E-04 5.391E-05 0.000E+00 3.033E-04 1.793E+00 4.396E+02  1.1493 0.99317
  9.000E+02 1.000E+03 1.811E+00 2.898E-04 7.271E-05 0.000E+00 3.625E-04 1.811E+00 4.951E+02  1.2634 0.99447
  1.000E+03 1.101E+03 1.828E+00 3.317E-04 9.386E-05 0.000E+00 4.255E-04 1.828E+00 5.500E+02  1.3702 0.99542
  1.200E+03 1.301E+03 1.858E+00 4.194E-04 1.427E-04 2.254E-05 5.846E-04 1.859E+00 6.585E+02  1.5655 0.99672
  1.400E+03 1.502E+03 1.885E+00 5.118E-04 1.994E-04 6.162E-05 7.728E-04 1.886E+00 7.653E+02  1.7407 0.99753
  1.700E+03 1.803E+03 1.919E+00 6.579E-04 2.977E-04 1.319E-04 1.087E-03 1.920E+00 9.230E+02  1.9741 0.99829
  2.000E+03 2.103E+03 1.947E+00 8.119E-04 4.100E-04 2.146E-04 1.436E-03 1.949E+00 1.078E+03  2.1802 0.99874
  2.500E+03 2.604E+03 1.986E+00 1.083E-03 6.242E-04 3.745E-04 2.082E-03 1.988E+00 1.332E+03  2.4783 0.99918
  3.000E+03 3.104E+03 2.018E+00 1.370E-03 8.675E-04 5.423E-04 2.780E-03 2.021E+00 1.582E+03  2.7343 0.99942
  3.500E+03 3.604E+03 2.044E+00 1.671E-03 1.136E-03 7.200E-04 3.526E-03 2.048E+00 1.827E+03  2.9590 0.99957
  4.000E+03 4.104E+03 2.066E+00 1.983E-03 1.440E-03 9.100E-04 4.332E-03 2.071E+00 2.070E+03  3.1596 0.99967
  4.500E+03 4.604E+03 2.086E+00 2.305E-03 1.769E-03 1.108E-03 5.181E-03 2.091E+00 2.310E+03  3.3409 0.99974
  5.000E+03 5.105E+03 2.103E+00 2.636E-03 2.118E-03 1.297E-03 6.051E-03 2.109E+00 2.549E+03  3.5064 0.99979
  5.500E+03 5.605E+03 2.118E+00 2.975E-03 2.484E-03 1.502E-03 6.962E-03 2.125E+00 2.785E+03  3.6588 0.99982
  6.000E+03 6.105E+03 2.132E+00 3.322E-03 2.867E-03 1.693E-03 7.882E-03 2.140E+00 3.019E+03  3.7999 0.99985
  7.000E+03 7.105E+03 2.156E+00 4.037E-03 3.676E-03 2.097E-03 9.810E-03 2.166E+00 3.484E+03  4.0548 0.99989
  8.000E+03 8.105E+03 2.176E+00 4.776E-03 4.536E-03 2.499E-03 1.181E-02 2.188E+00 3.943E+03  4.2802 0.99992
  9.000E+03 9.105E+03 2.194E+00 5.536E-03 5.442E-03 2.877E-03 1.385E-02 2.208E+00 4.398E+03  4.4824 0.99993
  1.000E+04 1.011E+04 2.209E+00 6.315E-03 6.388E-03 3.267E-03 1.597E-02 2.225E+00 4.849E+03  4.6659 0.99995
  1.200E+04 1.211E+04 2.235E+00 7.924E-03 8.387E-03 4.059E-03 2.037E-02 2.256E+00 5.742E+03  4.9888 0.99996
  1.400E+04 1.411E+04 2.257E+00 9.589E-03 1.051E-02 4.853E-03 2.495E-02 2.282E+00 6.623E+03  5.2668 0.99997
  1.700E+04 1.711E+04 2.283E+00 1.218E-02 1.388E-02 6.030E-03 3.208E-02 2.315E+00 7.929E+03  5.6230 0.99998
  2.000E+04 2.011E+04 2.304E+00 1.486E-02 1.744E-02 7.186E-03 3.948E-02 2.344E+00 9.217E+03  5.9259 0.99999
  2.500E+04 2.511E+04 2.332E+00 1.949E-02 2.371E-02 9.086E-03 5.229E-02 2.384E+00 1.133E+04  6.3479 0.99999
  3.000E+04 3.011E+04 2.354E+00 2.429E-02 3.033E-02 1.095E-02 6.558E-02 2.420E+00 1.341E+04  6.6974 0.99999
  3.500E+04 3.511E+04 2.372E+00 2.923E-02 3.723E-02 1.284E-02 7.931E-02 2.452E+00 1.547E+04  6.9958 1.00000
  4.000E+04 4.011E+04 2.388E+00 3.430E-02 4.436E-02 1.471E-02 9.337E-02 2.481E+00 1.749E+04  7.2562 1.00000
  4.500E+04 4.511E+04 2.401E+00 3.946E-02 5.170E-02 1.655E-02 1.077E-01 2.509E+00 1.950E+04  7.4871 1.00000
  5.000E+04 5.011E+04 2.413E+00 4.472E-02 5.920E-02 1.840E-02 1.223E-01 2.535E+00 2.148E+04  7.6946 1.00000
  5.500E+04 5.511E+04 2.423E+00 5.005E-02 6.686E-02 2.026E-02 1.372E-01 2.560E+00 2.344E+04  7.8829 1.00000
  6.000E+04 6.011E+04 2.433E+00 5.546E-02 7.465E-02 2.210E-02 1.522E-01 2.585E+00 2.539E+04  8.0553 1.00000
  7.000E+04 7.011E+04 2.449E+00 6.647E-02 9.058E-02 2.576E-02 1.828E-01 2.632E+00 2.922E+04  8.3615 1.00000
  8.000E+04 8.011E+04 2.463E+00 7.770E-02 1.069E-01 2.942E-02 2.140E-01 2.677E+00 3.299E+04  8.6276 1.00000
  9.000E+04 9.011E+04 2.476E+00 8.913E-02 1.236E-01 3.310E-02 2.458E-01 2.722E+00 3.669E+04  8.8626 1.00000
  1.000E+05 1.001E+05 2.487E+00 1.007E-01 1.405E-01 3.670E-02 2.779E-01 2.765E+00 4.034E+04  9.0730 1.00000
  1.200E+05 1.201E+05 2.506E+00 1.243E-01 1.751E-01 4.404E-02 3.435E-01 2.849E+00 4.746E+04  9.4373 1.00000
  1.400E+05 1.401E+05 2.521E+00 1.484E-01 2.105E-01 5.138E-02 4.103E-01 2.932E+00 5.439E+04  9.7454 1.00000
  1.700E+05 1.701E+05 2.541E+00 1.853E-01 2.646E-01 6.241E-02 5.123E-01 3.054E+00 6.441E+04 10.1334 1.00000
  2.000E+05 2.001E+05 2.558E+00 2.228E-01 3.198E-01 7.350E-02 6.162E-01 3.174E+00 7.405E+04 10.4583 1.00000
  2.500E+05 2.501E+05 2.580E+00 2.867E-01 4.136E-01 9.205E-02 7.924E-01 3.373E+00 8.934E+04 10.9044 1.00000
  3.000E+05 3.001E+05 2.599E+00 3.519E-01 5.091E-01 1.108E-01 9.717E-01 3.571E+00 1.038E+05 11.2689 1.00000
  3.500E+05 3.501E+05 2.615E+00 4.179E-01 6.058E-01 1.297E-01 1.153E+00 3.768E+00 1.174E+05 11.5771 1.00000
  4.000E+05 4.001E+05 2.628E+00 4.848E-01 7.034E-01 1.487E-01 1.337E+00 3.965E+00 1.303E+05 11.8440 1.00000
  4.500E+05 4.501E+05 2.640E+00 5.524E-01 8.019E-01 1.679E-01 1.522E+00 4.162E+00 1.426E+05 12.0796 1.00000
  5.000E+05 5.001E+05 2.651E+00 6.205E-01 9.010E-01 1.871E-01 1.709E+00 4.360E+00 1.544E+05 12.2902 1.00000
  5.500E+05 5.501E+05 2.661E+00 6.892E-01 1.001E+00 2.063E-01 1.896E+00 4.557E+00 1.656E+05 12.4808 1.00000
  6.000E+05 6.001E+05 2.669E+00 7.583E-01 1.101E+00 2.256E-01 2.085E+00 4.754E+00 1.763E+05 12.6548 1.00000
  7.000E+05 7.001E+05 2.685E+00 8.976E-01 1.302E+00 2.645E-01 2.464E+00 5.150E+00 1.966E+05 12.9631 1.00000
  8.000E+05 8.001E+05 2.699E+00 1.038E+00 1.505E+00 3.038E-01 2.847E+00 5.546E+00 2.153E+05 13.2301 1.00000
  9.000E+05 9.001E+05 2.711E+00 1.180E+00 1.709E+00 3.435E-01 3.232E+00 5.944E+00 2.327E+05 13.4656 1.00000
  1.000E+06 1.000E+06 2.722E+00 1.322E+00 1.914E+00 3.835E-01 3.620E+00 6.342E+00 2.490E+05 13.6763 1.00000
  1.200E+06 1.200E+06 2.741E+00 1.610E+00 2.325E+00 4.646E-01 4.399E+00 7.141E+00 2.788E+05 14.0409 1.00000
  1.400E+06 1.400E+06 2.757E+00 1.899E+00 2.739E+00 5.468E-01 5.185E+00 7.942E+00 3.054E+05 14.3492 1.00000
  1.700E+06 1.700E+06 2.778E+00 2.337E+00 3.362E+00 6.721E-01 6.371E+00 9.149E+00 3.407E+05 14.7375 1.00000
  2.000E+06 2.000E+06 2.795E+00 2.779E+00 3.988E+00 7.994E-01 7.566E+00 1.036E+01 3.715E+05 15.0625 1.00000
  2.500E+06 2.500E+06 2.819E+00 3.519E+00 5.035E+00 1.016E+00 9.569E+00 1.239E+01 4.159E+05 15.5088 1.00000
  3.000E+06 3.000E+06 2.838E+00 4.265E+00 6.086E+00 1.236E+00 1.159E+01 1.442E+01 4.534E+05 15.8734 1.00000
  3.500E+06 3.500E+06 2.855E+00 5.015E+00 7.139E+00 1.460E+00 1.361E+01 1.647E+01 4.859E+05 16.1817 1.00000
  4.000E+06 4.000E+06 2.870E+00 5.767E+00 8.195E+00 1.687E+00 1.565E+01 1.852E+01 5.146E+05 16.4487 1.00000
  4.500E+06 4.500E+06 2.882E+00 6.522E+00 9.252E+00 1.917E+00 1.769E+01 2.057E+01 5.402E+05 16.6843 1.00000
  5.000E+06 5.000E+06 2.894E+00 7.279E+00 1.031E+01 2.149E+00 1.974E+01 2.263E+01 5.634E+05 16.8950 1.00000
  5.500E+06 5.500E+06 2.905E+00 8.037E+00 1.137E+01 2.384E+00 2.179E+01 2.470E+01 5.846E+05 17.0856 1.00000
  6.000E+06 6.000E+06 2.914E+00 8.797E+00 1.243E+01 2.621E+00 2.385E+01 2.676E+01 6.040E+05 17.2597 1.00000
  7.000E+06 7.000E+06 2.931E+00 1.032E+01 1.455E+01 3.101E+00 2.797E+01 3.091E+01 6.389E+05 17.5679 1.00000
  8.000E+06 8.000E+06 2.946E+00 1.185E+01 1.668E+01 3.588E+00 3.211E+01 3.506E+01 6.693E+05 17.8350 1.00000
  9.000E+06 9.000E+06 2.960E+00 1.338E+01 1.880E+01 4.082E+00 3.626E+01 3.922E+01 6.964E+05 18.0706 1.00000
  1.000E+07 1.000E+07 2.972E+00 1.491E+01 2.093E+01 4.581E+00 4.042E+01 4.340E+01 7.206E+05 18.2813 1.00000
  1.200E+07 1.200E+07 2.993E+00 1.798E+01 2.519E+01 5.596E+00 4.877E+01 5.176E+01 7.630E+05 18.6459 1.00000
  1.400E+07 1.400E+07 3.010E+00 2.106E+01 2.946E+01 6.628E+00 5.714E+01 6.015E+01 7.989E+05 18.9542 1.00000
  1.700E+07 1.700E+07 3.033E+00 2.568E+01 3.585E+01 8.206E+00 6.974E+01 7.278E+01 8.445E+05 19.3425 1.00000
  2.000E+07 2.000E+07 3.052E+00 3.032E+01 4.226E+01 9.814E+00 8.239E+01 8.544E+01 8.826E+05 19.6676 1.00000
  2.500E+07 2.500E+07 3.078E+00 3.805E+01 5.293E+01 1.255E+01 1.035E+02 1.066E+02 9.354E+05 20.1139 1.00000
  3.000E+07 3.000E+07 3.100E+00 4.579E+01 6.362E+01 1.535E+01 1.248E+02 1.279E+02 9.784E+05 20.4785 1.00000
  3.500E+07 3.500E+07 3.118E+00 5.354E+01 7.430E+01 1.820E+01 1.460E+02 1.492E+02 1.015E+06 20.7868 1.00000
  4.000E+07 4.000E+07 3.135E+00 6.129E+01 8.499E+01 2.110E+01 1.674E+02 1.705E+02 1.046E+06 21.0539 1.00000
  4.500E+07 4.500E+07 3.149E+00 6.905E+01 9.568E+01 2.403E+01 1.888E+02 1.919E+02 1.074E+06 21.2894 1.00000
  5.000E+07 5.000E+07 3.162E+00 7.682E+01 1.064E+02 2.700E+01 2.102E+02 2.134E+02 1.099E+06 21.5001 1.00000
  5.500E+07 5.500E+07 3.173E+00 8.458E+01 1.171E+02 3.001E+01 2.317E+02 2.348E+02 1.121E+06 21.6908 1.00000
  6.000E+07 6.000E+07 3.184E+00 9.235E+01 1.278E+02 3.304E+01 2.532E+02 2.563E+02 1.141E+06 21.8648 1.00000
  7.000E+07 7.000E+07 3.203E+00 1.079E+02 1.492E+02 3.920E+01 2.962E+02 2.995E+02 1.177E+06 22.1731 1.00000
  8.000E+07 8.000E+07 3.220E+00 1.234E+02 1.706E+02 4.546E+01 3.394E+02 3.427E+02 1.209E+06 22.4402 1.00000
  9.000E+07 9.000E+07 3.235E+00 1.390E+02 1.919E+02 5.180E+01 3.827E+02 3.860E+02 1.236E+06 22.6757 1.00000
  1.000E+08 1.000E+08 3.248E+00 1.546E+02 2.133E+02 5.822E+01 4.261E+02 4.294E+02 1.261E+06 22.8864 1.00000
  1.200E+08 1.200E+08 3.271E+00 1.857E+02 2.561E+02 7.128E+01 5.131E+02 5.164E+02 1.304E+06 23.2511 1.00000
  1.400E+08 1.400E+08 3.291E+00 2.168E+02 2.989E+02 8.459E+01 6.004E+02 6.036E+02 1.340E+06 23.5594 1.00000
  1.700E+08 1.700E+08 3.316E+00 2.635E+02 3.632E+02 1.050E+02 7.316E+02 7.350E+02 1.385E+06 23.9477 1.00000
  2.000E+08 2.000E+08 3.337E+00 3.102E+02 4.274E+02 1.258E+02 8.634E+02 8.667E+02 1.422E+06 24.2727 1.00000
  2.500E+08 2.500E+08 3.367E+00 3.881E+02 5.344E+02 1.612E+02 1.084E+03 1.087E+03 1.474E+06 24.7190 1.00000
  3.000E+08 3.000E+08 3.391E+00 4.660E+02 6.414E+02 1.974E+02 1.305E+03 1.308E+03 1.516E+06 25.0837 1.00000
  3.500E+08 3.500E+08 3.412E+00 5.439E+02 7.484E+02 2.344E+02 1.527E+03 1.530E+03 1.552E+06 25.3920 1.00000
  4.000E+08 4.000E+08 3.430E+00 6.218E+02 8.555E+02 2.720E+02 1.749E+03 1.753E+03 1.582E+06 25.6590 1.00000
  4.500E+08 4.500E+08 3.446E+00 6.997E+02 9.625E+02 3.101E+02 1.972E+03 1.976E+03 1.609E+06 25.8946 1.00000
  5.000E+08 5.000E+08 3.460E+00 7.777E+02 1.070E+03 3.488E+02 2.196E+03 2.199E+03 1.633E+06 26.1053 1.00000
  5.500E+08 5.500E+08 3.473E+00 8.556E+02 1.177E+03 3.879E+02 2.420E+03 2.423E+03 1.655E+06 26.2959 1.00000
  6.000E+08 6.000E+08 3.485E+00 9.335E+02 1.284E+03 4.274E+02 2.644E+03 2.648E+03 1.675E+06 26.4700 1.00000
  7.000E+08 7.000E+08 3.506E+00 1.089E+03 1.498E+03 5.076E+02 3.095E+03 3.098E+03 1.710E+06 26.7783 1.00000
  8.000E+08 8.000E+08 3.525E+00 1.245E+03 1.712E+03 5.891E+02 3.546E+03 3.550E+03 1.740E+06 27.0453 1.00000
  9.000E+08 9.000E+08 3.542E+00 1.401E+03 1.926E+03 6.719E+02 3.999E+03 4.002E+03 1.767E+06 27.2809 1.00000
  1.000E+09 1.000E+09 3.556E+00 1.557E+03 2.140E+03 7.558E+02 4.452E+03 4.456E+03 1.790E+06 27.4916 1.00000
