 Incident particle is a Muon with M = 105.65839 MeV
 Index = 0: LiquidDeuterium
      Absorber with <Z/A> = 0.49650
 Sternheimer coef:  a     k=m_s   x_0    x_1    I[eV]   Cbar  delta0
                 0.1348  5.6249  0.4467  1.8923   21.8  3.1288 0.00

 *** Table generated with PUMAS v1.00 ***

      T         p     Ionization  brems     pair     photonuc  Radloss    dE/dx   CSDA Range  delta   beta
    [MeV]    [MeV/c]  -----------------------[MeV cm^2/g]------------------------  [g/cm^2]
  1.000E+00 1.457E+01 5.530E+01 1.555E-07 0.000E+00 0.000E+00 1.555E-07 5.530E+01 9.041E-03  0.0000 0.13661
  1.200E+00 1.597E+01 4.744E+01 1.735E-07 0.000E+00 0.000E+00 1.735E-07 4.744E+01 1.296E-02  0.0000 0.14944
  1.400E+00 1.726E+01 4.166E+01 1.908E-07 0.000E+00 0.000E+00 1.908E-07 4.166E+01 1.747E-02  0.0000 0.16119
  1.700E+00 1.903E+01 3.538E+01 2.156E-07 0.000E+00 0.000E+00 2.156E-07 3.538E+01 2.531E-02  0.0000 0.17725
  2.000E+00 2.066E+01 3.085E+01 2.393E-07 0.000E+00 0.000E+00 2.393E-07 3.085E+01 3.441E-02  0.0000 0.19186
  2.500E+00 2.312E+01 2.558E+01 2.767E-07 0.000E+00 0.000E+00 2.767E-07 2.558E+01 5.228E-02  0.0000 0.21376
  3.000E+00 2.536E+01 2.195E+01 3.120E-07 0.000E+00 0.000E+00 3.120E-07 2.195E+01 7.345E-02  0.0000 0.23336
  3.500E+00 2.742E+01 1.930E+01 3.456E-07 0.000E+00 0.000E+00 3.456E-07 1.930E+01 9.778E-02  0.0000 0.25120
  4.000E+00 2.935E+01 1.728E+01 3.778E-07 0.000E+00 0.000E+00 3.778E-07 1.728E+01 1.252E-01  0.0000 0.26763
  4.500E+00 3.116E+01 1.568E+01 4.086E-07 0.000E+00 0.000E+00 4.086E-07 1.568E+01 1.556E-01  0.0000 0.28290
  5.000E+00 3.289E+01 1.437E+01 4.383E-07 0.000E+00 0.000E+00 4.383E-07 1.437E+01 1.890E-01  0.0000 0.29720
  5.500E+00 3.453E+01 1.330E+01 4.671E-07 0.000E+00 0.000E+00 4.671E-07 1.330E+01 2.252E-01  0.0000 0.31066
  6.000E+00 3.611E+01 1.239E+01 4.950E-07 0.000E+00 0.000E+00 4.950E-07 1.239E+01 2.641E-01  0.0000 0.32339
  7.000E+00 3.909E+01 1.094E+01 5.484E-07 0.000E+00 0.000E+00 5.484E-07 1.094E+01 3.502E-01  0.0000 0.34700
  8.000E+00 4.189E+01 9.838E+00 5.992E-07 0.000E+00 0.000E+00 5.992E-07 9.838E+00 4.467E-01  0.0000 0.36854
  9.000E+00 4.453E+01 8.967E+00 6.477E-07 0.000E+00 0.000E+00 6.477E-07 8.967E+00 5.533E-01  0.0000 0.38836
  1.000E+01 4.704E+01 8.263E+00 6.942E-07 0.000E+00 0.000E+00 6.942E-07 8.263E+00 6.696E-01  0.0000 0.40675
  1.200E+01 5.177E+01 7.190E+00 7.824E-07 0.000E+00 0.000E+00 7.824E-07 7.190E+00 9.297E-01  0.0000 0.43998
  1.400E+01 5.616E+01 6.412E+00 8.654E-07 0.000E+00 0.000E+00 8.654E-07 6.412E+00 1.225E+00  0.0000 0.46937
  1.700E+01 6.230E+01 5.576E+00 9.820E-07 0.000E+00 0.000E+00 9.820E-07 5.576E+00 1.728E+00  0.0000 0.50792
  2.000E+01 6.802E+01 4.983E+00 1.092E-06 0.000E+00 0.000E+00 1.092E-06 4.983E+00 2.298E+00  0.0000 0.54129
  2.500E+01 7.686E+01 4.303E+00 1.263E-06 0.000E+00 0.000E+00 1.263E-06 4.303E+00 3.380E+00  0.0000 0.58827
  3.000E+01 8.509E+01 3.846E+00 1.424E-06 0.000E+00 0.000E+00 1.424E-06 3.846E+00 4.611E+00  0.0000 0.62720
  3.500E+01 9.285E+01 3.518E+00 1.578E-06 0.000E+00 0.000E+00 1.578E-06 3.518E+00 5.972E+00  0.0000 0.66011
  4.000E+01 1.003E+02 3.273E+00 1.728E-06 0.000E+00 0.000E+00 1.728E-06 3.273E+00 7.447E+00  0.0000 0.68834
  4.500E+01 1.074E+02 3.082E+00 1.875E-06 0.000E+00 0.000E+00 1.875E-06 3.082E+00 9.022E+00  0.0000 0.71286
  5.000E+01 1.143E+02 2.931E+00 2.020E-06 0.000E+00 0.000E+00 2.020E-06 2.931E+00 1.069E+01  0.0000 0.73434
  5.500E+01 1.210E+02 2.808E+00 2.163E-06 0.000E+00 0.000E+00 2.163E-06 2.808E+00 1.243E+01  0.0000 0.75332
  6.000E+01 1.276E+02 2.707E+00 2.306E-06 0.000E+00 0.000E+00 2.306E-06 2.707E+00 1.424E+01  0.0000 0.77019
  7.000E+01 1.403E+02 2.551E+00 2.591E-06 0.000E+00 0.000E+00 2.591E-06 2.551E+00 1.805E+01  0.0000 0.79887
  8.000E+01 1.527E+02 2.437E+00 2.877E-06 0.000E+00 0.000E+00 2.877E-06 2.437E+00 2.206E+01  0.0000 0.82227
  9.000E+01 1.647E+02 2.352E+00 3.166E-06 0.000E+00 0.000E+00 3.166E-06 2.352E+00 2.624E+01  0.0000 0.84166
  1.000E+02 1.764E+02 2.286E+00 3.458E-06 0.000E+00 0.000E+00 3.458E-06 2.286E+00 3.055E+01  0.0000 0.85794
  1.200E+02 1.994E+02 2.194E+00 4.057E-06 0.000E+00 0.000E+00 4.057E-06 2.194E+00 3.948E+01  0.0000 0.88361
  1.400E+02 2.218E+02 2.135E+00 4.675E-06 0.000E+00 0.000E+00 4.675E-06 2.135E+00 4.873E+01  0.0000 0.90278
  1.700E+02 2.546E+02 2.082E+00 5.639E-06 7.681E-15 0.000E+00 5.639E-06 2.082E+00 6.295E+01  0.0000 0.92363
  2.000E+02 2.868E+02 2.054E+00 6.649E-06 1.706E-12 0.000E+00 6.649E-06 2.054E+00 7.746E+01  0.0000 0.93835
  2.500E+02 3.396E+02 2.031E+00 8.427E-06 1.373E-08 0.000E+00 8.441E-06 2.031E+00 1.019E+02  0.0492 0.95485
  3.000E+02 3.917E+02 2.022E+00 1.032E-05 1.123E-07 0.000E+00 1.043E-05 2.022E+00 1.266E+02  0.1432 0.96548
  3.500E+02 4.432E+02 2.020E+00 1.231E-05 3.021E-07 0.000E+00 1.261E-05 2.020E+00 1.514E+02  0.2551 0.97274
  4.000E+02 4.945E+02 2.022E+00 1.440E-05 5.785E-07 0.000E+00 1.498E-05 2.022E+00 1.761E+02  0.3743 0.97793
  4.500E+02 5.455E+02 2.027E+00 1.658E-05 9.378E-07 0.000E+00 1.751E-05 2.027E+00 2.008E+02  0.4953 0.98176
  5.000E+02 5.964E+02 2.032E+00 1.884E-05 1.377E-06 0.000E+00 2.021E-05 2.032E+00 2.254E+02  0.6152 0.98467
  5.500E+02 6.471E+02 2.038E+00 2.118E-05 1.893E-06 0.000E+00 2.307E-05 2.038E+00 2.500E+02  0.7324 0.98693
  6.000E+02 6.977E+02 2.045E+00 2.359E-05 2.484E-06 0.000E+00 2.607E-05 2.045E+00 2.745E+02  0.8462 0.98873
  7.000E+02 7.987E+02 2.058E+00 2.862E-05 3.879E-06 0.000E+00 3.250E-05 2.058E+00 3.232E+02  1.0624 0.99136
  8.000E+02 8.995E+02 2.071E+00 3.390E-05 5.544E-06 0.000E+00 3.944E-05 2.071E+00 3.717E+02  1.2629 0.99317
  9.000E+02 1.000E+03 2.083E+00 3.942E-05 7.460E-06 0.000E+00 4.688E-05 2.083E+00 4.198E+02  1.4488 0.99447
  1.000E+03 1.101E+03 2.095E+00 4.515E-05 9.614E-06 0.000E+00 5.476E-05 2.095E+00 4.677E+02  1.6214 0.99542
  1.200E+03 1.301E+03 2.116E+00 5.720E-05 1.458E-05 2.263E-05 9.442E-05 2.116E+00 5.627E+02  1.9320 0.99672
  1.400E+03 1.502E+03 2.135E+00 6.998E-05 2.034E-05 6.244E-05 1.528E-04 2.135E+00 6.568E+02  2.2045 0.99753
  1.700E+03 1.803E+03 2.159E+00 9.033E-05 3.033E-05 1.353E-04 2.559E-04 2.159E+00 7.965E+02  2.5578 0.99829
  2.000E+03 2.103E+03 2.180E+00 1.120E-04 4.174E-05 2.224E-04 3.761E-04 2.180E+00 9.347E+02  2.8602 0.99874
  2.500E+03 2.604E+03 2.209E+00 1.505E-04 6.351E-05 3.932E-04 6.073E-04 2.210E+00 1.163E+03  3.2828 0.99918
  3.000E+03 3.104E+03 2.234E+00 1.918E-04 8.823E-05 5.756E-04 8.556E-04 2.235E+00 1.388E+03  3.6327 0.99942
  3.500E+03 3.604E+03 2.254E+00 2.355E-04 1.155E-04 7.712E-04 1.122E-03 2.255E+00 1.610E+03  3.9309 0.99957
  4.000E+03 4.104E+03 2.272E+00 2.814E-04 1.592E-04 9.820E-04 1.423E-03 2.274E+00 1.831E+03  4.1905 0.99967
  4.500E+03 4.604E+03 2.288E+00 3.292E-04 2.111E-04 1.203E-03 1.743E-03 2.290E+00 2.050E+03  4.4204 0.99974
  5.000E+03 5.105E+03 2.302E+00 3.789E-04 2.666E-04 1.417E-03 2.062E-03 2.304E+00 2.268E+03  4.6266 0.99979
  5.500E+03 5.605E+03 2.315E+00 4.302E-04 3.254E-04 1.648E-03 2.404E-03 2.317E+00 2.484E+03  4.8135 0.99982
  6.000E+03 6.105E+03 2.326E+00 4.830E-04 3.875E-04 1.865E-03 2.736E-03 2.329E+00 2.700E+03  4.9844 0.99985
  7.000E+03 7.105E+03 2.347E+00 5.930E-04 5.201E-04 2.326E-03 3.440E-03 2.350E+00 3.127E+03  5.2878 0.99989
  8.000E+03 8.105E+03 2.364E+00 7.082E-04 6.631E-04 2.788E-03 4.159E-03 2.368E+00 3.551E+03  5.5512 0.99992
  9.000E+03 9.105E+03 2.379E+00 8.279E-04 8.153E-04 3.224E-03 4.867E-03 2.384E+00 3.972E+03  5.7839 0.99993
  1.000E+04 1.011E+04 2.393E+00 9.519E-04 9.756E-04 3.677E-03 5.605E-03 2.398E+00 4.390E+03  5.9924 0.99995
  1.200E+04 1.211E+04 2.416E+00 1.211E-03 1.318E-03 4.601E-03 7.130E-03 2.423E+00 5.220E+03  6.3536 0.99996
  1.400E+04 1.411E+04 2.435E+00 1.483E-03 1.686E-03 5.532E-03 8.701E-03 2.444E+00 6.041E+03  6.6594 0.99997
  1.700E+04 1.711E+04 2.459E+00 1.913E-03 2.277E-03 6.921E-03 1.111E-02 2.470E+00 7.262E+03  7.0451 0.99998
  2.000E+04 2.011E+04 2.479E+00 2.365E-03 2.909E-03 8.293E-03 1.357E-02 2.492E+00 8.471E+03  7.3683 0.99999
  2.500E+04 2.511E+04 2.505E+00 3.157E-03 4.036E-03 1.056E-02 1.775E-02 2.523E+00 1.047E+04  7.8125 0.99999
  3.000E+04 3.011E+04 2.526E+00 3.993E-03 5.239E-03 1.280E-02 2.204E-02 2.548E+00 1.244E+04  8.1757 0.99999
  3.500E+04 3.511E+04 2.544E+00 4.863E-03 6.506E-03 1.508E-02 2.645E-02 2.570E+00 1.439E+04  8.4830 1.00000
  4.000E+04 4.011E+04 2.559E+00 5.764E-03 7.825E-03 1.734E-02 3.093E-02 2.590E+00 1.633E+04  8.7493 1.00000
  4.500E+04 4.511E+04 2.572E+00 6.692E-03 9.190E-03 1.958E-02 3.546E-02 2.607E+00 1.825E+04  8.9843 1.00000
  5.000E+04 5.011E+04 2.583E+00 7.642E-03 1.060E-02 2.183E-02 4.006E-02 2.623E+00 2.017E+04  9.1946 1.00000
  5.500E+04 5.511E+04 2.594E+00 8.614E-03 1.204E-02 2.409E-02 4.475E-02 2.638E+00 2.207E+04  9.3848 1.00000
  6.000E+04 6.011E+04 2.603E+00 9.605E-03 1.351E-02 2.634E-02 4.946E-02 2.653E+00 2.396E+04  9.5585 1.00000
  7.000E+04 7.011E+04 2.620E+00 1.164E-02 1.655E-02 3.082E-02 5.900E-02 2.679E+00 2.771E+04  9.8663 1.00000
  8.000E+04 8.011E+04 2.634E+00 1.373E-02 1.968E-02 3.532E-02 6.873E-02 2.702E+00 3.142E+04 10.1330 1.00000
  9.000E+04 9.011E+04 2.646E+00 1.587E-02 2.290E-02 3.983E-02 7.860E-02 2.725E+00 3.511E+04 10.3683 1.00000
  1.000E+05 1.001E+05 2.657E+00 1.806E-02 2.619E-02 4.427E-02 8.852E-02 2.746E+00 3.877E+04 10.5787 1.00000
  1.200E+05 1.201E+05 2.676E+00 2.255E-02 3.296E-02 5.333E-02 1.088E-01 2.785E+00 4.600E+04 10.9430 1.00000
  1.400E+05 1.401E+05 2.692E+00 2.718E-02 3.994E-02 6.241E-02 1.295E-01 2.821E+00 5.313E+04 11.2511 1.00000
  1.700E+05 1.701E+05 2.712E+00 3.432E-02 5.072E-02 7.607E-02 1.611E-01 2.873E+00 6.367E+04 11.6391 1.00000
  2.000E+05 2.001E+05 2.728E+00 4.165E-02 6.180E-02 8.985E-02 1.933E-01 2.921E+00 7.403E+04 11.9640 1.00000
  2.500E+05 2.501E+05 2.751E+00 5.425E-02 8.079E-02 1.129E-01 2.480E-01 2.999E+00 9.092E+04 12.4101 1.00000
  3.000E+05 3.001E+05 2.769E+00 6.721E-02 1.003E-01 1.362E-01 3.037E-01 3.073E+00 1.074E+05 12.7746 1.00000
  3.500E+05 3.501E+05 2.785E+00 8.044E-02 1.202E-01 1.599E-01 3.604E-01 3.146E+00 1.235E+05 13.0828 1.00000
  4.000E+05 4.001E+05 2.799E+00 9.389E-02 1.404E-01 1.836E-01 4.179E-01 3.217E+00 1.392E+05 13.3497 1.00000
  4.500E+05 4.501E+05 2.811E+00 1.075E-01 1.608E-01 2.076E-01 4.759E-01 3.287E+00 1.546E+05 13.5853 1.00000
  5.000E+05 5.001E+05 2.821E+00 1.214E-01 1.815E-01 2.317E-01 5.346E-01 3.356E+00 1.696E+05 13.7959 1.00000
  5.500E+05 5.501E+05 2.831E+00 1.354E-01 2.023E-01 2.557E-01 5.934E-01 3.425E+00 1.844E+05 13.9865 1.00000
  6.000E+05 6.001E+05 2.840E+00 1.496E-01 2.233E-01 2.798E-01 6.527E-01 3.493E+00 1.988E+05 14.1605 1.00000
  7.000E+05 7.001E+05 2.856E+00 1.782E-01 2.658E-01 3.286E-01 7.726E-01 3.628E+00 2.269E+05 14.4688 1.00000
  8.000E+05 8.001E+05 2.870E+00 2.072E-01 3.087E-01 3.778E-01 8.938E-01 3.763E+00 2.540E+05 14.7358 1.00000
  9.000E+05 9.001E+05 2.882E+00 2.366E-01 3.520E-01 4.276E-01 1.016E+00 3.898E+00 2.801E+05 14.9713 1.00000
  1.000E+06 1.000E+06 2.893E+00 2.663E-01 3.955E-01 4.779E-01 1.140E+00 4.032E+00 3.053E+05 15.1820 1.00000
  1.200E+06 1.200E+06 2.912E+00 3.263E-01 4.834E-01 5.796E-01 1.389E+00 4.301E+00 3.534E+05 15.5466 1.00000
  1.400E+06 1.400E+06 2.928E+00 3.871E-01 5.721E-01 6.829E-01 1.642E+00 4.570E+00 3.985E+05 15.8549 1.00000
  1.700E+06 1.700E+06 2.948E+00 4.795E-01 7.061E-01 8.403E-01 2.026E+00 4.974E+00 4.615E+05 16.2432 1.00000
  2.000E+06 2.000E+06 2.966E+00 5.730E-01 8.412E-01 1.000E+00 2.415E+00 5.380E+00 5.195E+05 16.5682 1.00000
  2.500E+06 2.500E+06 2.990E+00 7.307E-01 1.068E+00 1.272E+00 3.071E+00 6.060E+00 6.072E+05 17.0145 1.00000
  3.000E+06 3.000E+06 3.009E+00 8.904E-01 1.296E+00 1.549E+00 3.735E+00 6.745E+00 6.856E+05 17.3791 1.00000
  3.500E+06 3.500E+06 3.026E+00 1.051E+00 1.525E+00 1.830E+00 4.407E+00 7.433E+00 7.563E+05 17.6874 1.00000
  4.000E+06 4.000E+06 3.041E+00 1.214E+00 1.755E+00 2.116E+00 5.085E+00 8.125E+00 8.207E+05 17.9544 1.00000
  4.500E+06 4.500E+06 3.053E+00 1.377E+00 1.986E+00 2.405E+00 5.768E+00 8.821E+00 8.798E+05 18.1900 1.00000
  5.000E+06 5.000E+06 3.065E+00 1.540E+00 2.217E+00 2.698E+00 6.455E+00 9.520E+00 9.344E+05 18.4007 1.00000
  5.500E+06 5.500E+06 3.076E+00 1.705E+00 2.449E+00 2.993E+00 7.147E+00 1.022E+01 9.851E+05 18.5913 1.00000
  6.000E+06 6.000E+06 3.085E+00 1.870E+00 2.681E+00 3.291E+00 7.842E+00 1.093E+01 1.032E+06 18.7654 1.00000
  7.000E+06 7.000E+06 3.103E+00 2.201E+00 3.145E+00 3.896E+00 9.242E+00 1.234E+01 1.119E+06 19.0736 1.00000
  8.000E+06 8.000E+06 3.118E+00 2.534E+00 3.611E+00 4.509E+00 1.065E+01 1.377E+01 1.195E+06 19.3407 1.00000
  9.000E+06 9.000E+06 3.131E+00 2.869E+00 4.077E+00 5.130E+00 1.208E+01 1.521E+01 1.265E+06 19.5763 1.00000
  1.000E+07 1.000E+07 3.143E+00 3.204E+00 4.544E+00 5.759E+00 1.351E+01 1.665E+01 1.328E+06 19.7870 1.00000
  1.200E+07 1.200E+07 3.164E+00 3.877E+00 5.479E+00 7.035E+00 1.639E+01 1.956E+01 1.439E+06 20.1516 1.00000
  1.400E+07 1.400E+07 3.182E+00 4.553E+00 6.416E+00 8.335E+00 1.930E+01 2.249E+01 1.534E+06 20.4599 1.00000
  1.700E+07 1.700E+07 3.204E+00 5.571E+00 7.823E+00 1.032E+01 2.371E+01 2.692E+01 1.657E+06 20.8482 1.00000
  2.000E+07 2.000E+07 3.223E+00 6.591E+00 9.231E+00 1.235E+01 2.817E+01 3.139E+01 1.760E+06 21.1733 1.00000
  2.500E+07 2.500E+07 3.250E+00 8.298E+00 1.158E+01 1.579E+01 3.567E+01 3.892E+01 1.904E+06 21.6196 1.00000
  3.000E+07 3.000E+07 3.271E+00 1.001E+01 1.393E+01 1.932E+01 4.326E+01 4.653E+01 2.022E+06 21.9842 1.00000
  3.500E+07 3.500E+07 3.290E+00 1.172E+01 1.629E+01 2.290E+01 5.092E+01 5.421E+01 2.122E+06 22.2925 1.00000
  4.000E+07 4.000E+07 3.306E+00 1.344E+01 1.864E+01 2.655E+01 5.863E+01 6.194E+01 2.208E+06 22.5596 1.00000
  4.500E+07 4.500E+07 3.320E+00 1.516E+01 2.100E+01 3.025E+01 6.641E+01 6.973E+01 2.285E+06 22.7951 1.00000
  5.000E+07 5.000E+07 3.333E+00 1.688E+01 2.335E+01 3.399E+01 7.423E+01 7.756E+01 2.353E+06 23.0058 1.00000
  5.500E+07 5.500E+07 3.345E+00 1.861E+01 2.571E+01 3.777E+01 8.209E+01 8.544E+01 2.414E+06 23.1965 1.00000
  6.000E+07 6.000E+07 3.356E+00 2.033E+01 2.807E+01 4.160E+01 8.999E+01 9.335E+01 2.470E+06 23.3705 1.00000
  7.000E+07 7.000E+07 3.375E+00 2.378E+01 3.278E+01 4.935E+01 1.059E+02 1.093E+02 2.570E+06 23.6788 1.00000
  8.000E+07 8.000E+07 3.392E+00 2.724E+01 3.750E+01 5.722E+01 1.220E+02 1.254E+02 2.655E+06 23.9459 1.00000
  9.000E+07 9.000E+07 3.406E+00 3.070E+01 4.222E+01 6.521E+01 1.381E+02 1.415E+02 2.731E+06 24.1814 1.00000
  1.000E+08 1.000E+08 3.420E+00 3.416E+01 4.693E+01 7.330E+01 1.544E+02 1.578E+02 2.798E+06 24.3921 1.00000
  1.200E+08 1.200E+08 3.443E+00 4.108E+01 5.637E+01 8.974E+01 1.872E+02 1.906E+02 2.913E+06 24.7568 1.00000
  1.400E+08 1.400E+08 3.463E+00 4.801E+01 6.581E+01 1.065E+02 2.203E+02 2.238E+02 3.010E+06 25.0651 1.00000
  1.700E+08 1.700E+08 3.488E+00 5.841E+01 7.997E+01 1.322E+02 2.705E+02 2.740E+02 3.132E+06 25.4534 1.00000
  2.000E+08 2.000E+08 3.509E+00 6.881E+01 9.414E+01 1.583E+02 3.213E+02 3.248E+02 3.233E+06 25.7784 1.00000
  2.500E+08 2.500E+08 3.539E+00 8.616E+01 1.177E+02 2.029E+02 4.068E+02 4.104E+02 3.371E+06 26.2247 1.00000
  3.000E+08 3.000E+08 3.563E+00 1.035E+02 1.414E+02 2.486E+02 4.935E+02 4.970E+02 3.482E+06 26.5894 1.00000
  3.500E+08 3.500E+08 3.584E+00 1.209E+02 1.650E+02 2.952E+02 5.810E+02 5.846E+02 3.575E+06 26.8977 1.00000
  4.000E+08 4.000E+08 3.602E+00 1.382E+02 1.886E+02 3.425E+02 6.693E+02 6.729E+02 3.655E+06 27.1647 1.00000
  4.500E+08 4.500E+08 3.618E+00 1.556E+02 2.122E+02 3.905E+02 7.583E+02 7.619E+02 3.725E+06 27.4003 1.00000
  5.000E+08 5.000E+08 3.632E+00 1.730E+02 2.358E+02 4.392E+02 8.480E+02 8.516E+02 3.787E+06 27.6110 1.00000
  5.500E+08 5.500E+08 3.645E+00 1.904E+02 2.594E+02 4.884E+02 9.382E+02 9.418E+02 3.843E+06 27.8016 1.00000
  6.000E+08 6.000E+08 3.657E+00 2.077E+02 2.830E+02 5.382E+02 1.029E+03 1.033E+03 3.894E+06 27.9757 1.00000
  7.000E+08 7.000E+08 3.679E+00 2.425E+02 3.303E+02 6.391E+02 1.212E+03 1.216E+03 3.984E+06 28.2840 1.00000
  8.000E+08 8.000E+08 3.697E+00 2.772E+02 3.775E+02 7.418E+02 1.397E+03 1.400E+03 4.060E+06 28.5510 1.00000
  9.000E+08 9.000E+08 3.714E+00 3.120E+02 4.247E+02 8.460E+02 1.583E+03 1.586E+03 4.128E+06 28.7866 1.00000
  1.000E+09 1.000E+09 3.729E+00 3.468E+02 4.719E+02 9.516E+02 1.770E+03 1.774E+03 4.187E+06 28.9973 1.00000
