 Incident particle is a Muon with M = 105.65839 MeV
 Index = 0: LiquidChlorine
      Absorber with <Z/A> = 0.47951
 Sternheimer coef:  a     k=m_s   x_0    x_1    I[eV]   Cbar  delta0
                 0.1802  3.0000  0.2000  3.0000  174.0  4.8776 0.00

 *** Table generated with PUMAS v1.00 ***

      T         p     Ionization  brems     pair     photonuc  Radloss    dE/dx   CSDA Range  delta   beta
    [MeV]    [MeV/c]  -----------------------[MeV cm^2/g]------------------------  [g/cm^2]
  1.000E+00 1.457E+01 3.702E+01 1.605E-06 0.000E+00 0.000E+00 1.605E-06 3.702E+01 1.351E-02  0.0000 0.13661
  1.200E+00 1.597E+01 3.212E+01 1.845E-06 0.000E+00 0.000E+00 1.845E-06 3.212E+01 1.932E-02  0.0000 0.14944
  1.400E+00 1.726E+01 2.847E+01 2.073E-06 0.000E+00 0.000E+00 2.073E-06 2.847E+01 2.595E-02  0.0000 0.16119
  1.700E+00 1.903E+01 2.443E+01 2.397E-06 0.000E+00 0.000E+00 2.397E-06 2.443E+01 3.735E-02  0.0000 0.17725
  2.000E+00 2.066E+01 2.149E+01 2.704E-06 0.000E+00 0.000E+00 2.704E-06 2.149E+01 5.047E-02  0.0000 0.19186
  2.500E+00 2.312E+01 1.801E+01 3.183E-06 0.000E+00 0.000E+00 3.183E-06 1.801E+01 7.599E-02  0.0000 0.21376
  3.000E+00 2.536E+01 1.559E+01 3.630E-06 0.000E+00 0.000E+00 3.630E-06 1.559E+01 1.059E-01  0.0000 0.23336
  3.500E+00 2.742E+01 1.380E+01 4.050E-06 0.000E+00 0.000E+00 4.050E-06 1.380E+01 1.401E-01  0.0000 0.25120
  4.000E+00 2.935E+01 1.242E+01 4.447E-06 0.000E+00 0.000E+00 4.447E-06 1.242E+01 1.783E-01  0.0000 0.26763
  4.500E+00 3.116E+01 1.132E+01 4.825E-06 0.000E+00 0.000E+00 4.825E-06 1.132E+01 2.206E-01  0.0000 0.28290
  5.000E+00 3.289E+01 1.042E+01 5.187E-06 0.000E+00 0.000E+00 5.187E-06 1.042E+01 2.666E-01  0.0000 0.29720
  5.500E+00 3.453E+01 9.673E+00 5.534E-06 0.000E+00 0.000E+00 5.534E-06 9.673E+00 3.165E-01  0.0000 0.31066
  6.000E+00 3.611E+01 9.041E+00 5.867E-06 0.000E+00 0.000E+00 5.867E-06 9.041E+00 3.700E-01  0.0000 0.32339
  7.000E+00 3.909E+01 8.027E+00 6.501E-06 0.000E+00 0.000E+00 6.501E-06 8.027E+00 4.876E-01  0.0000 0.34700
  8.000E+00 4.189E+01 7.249E+00 7.097E-06 0.000E+00 0.000E+00 7.097E-06 7.249E+00 6.188E-01  0.0000 0.36854
  9.000E+00 4.453E+01 6.633E+00 7.660E-06 0.000E+00 0.000E+00 7.660E-06 6.633E+00 7.632E-01  0.0000 0.38836
  1.000E+01 4.704E+01 6.131E+00 8.196E-06 0.000E+00 0.000E+00 8.196E-06 6.131E+00 9.201E-01  0.0000 0.40675
  1.200E+01 5.177E+01 5.364E+00 9.200E-06 0.000E+00 0.000E+00 9.200E-06 5.364E+00 1.270E+00  0.0000 0.43998
  1.400E+01 5.616E+01 4.804E+00 1.013E-05 0.000E+00 0.000E+00 1.013E-05 4.804E+00 1.664E+00  0.0000 0.46937
  1.700E+01 6.230E+01 4.200E+00 1.143E-05 0.000E+00 0.000E+00 1.143E-05 4.200E+00 2.334E+00  0.0000 0.50792
  2.000E+01 6.802E+01 3.768E+00 1.264E-05 0.000E+00 0.000E+00 1.264E-05 3.768E+00 3.089E+00  0.0000 0.54129
  2.500E+01 7.686E+01 3.272E+00 1.450E-05 0.000E+00 0.000E+00 1.450E-05 3.272E+00 4.516E+00  0.0000 0.58827
  3.000E+01 8.509E+01 2.937E+00 1.625E-05 0.000E+00 0.000E+00 1.625E-05 2.937E+00 6.132E+00  0.0000 0.62720
  3.500E+01 9.285E+01 2.696E+00 1.793E-05 0.000E+00 0.000E+00 1.793E-05 2.696E+00 7.910E+00  0.0000 0.66011
  4.000E+01 1.003E+02 2.515E+00 1.955E-05 0.000E+00 0.000E+00 1.955E-05 2.515E+00 9.832E+00  0.0000 0.68834
  4.500E+01 1.074E+02 2.375E+00 2.114E-05 0.000E+00 0.000E+00 2.114E-05 2.375E+00 1.188E+01  0.0000 0.71286
  5.000E+01 1.143E+02 2.264E+00 2.271E-05 0.000E+00 0.000E+00 2.271E-05 2.264E+00 1.404E+01  0.0000 0.73434
  5.500E+01 1.210E+02 2.173E+00 2.427E-05 0.000E+00 0.000E+00 2.427E-05 2.173E+00 1.629E+01  0.0000 0.75332
  6.000E+01 1.276E+02 2.099E+00 2.583E-05 0.000E+00 0.000E+00 2.583E-05 2.099E+00 1.863E+01  0.0000 0.77019
  7.000E+01 1.403E+02 1.984E+00 2.895E-05 0.000E+00 0.000E+00 2.895E-05 1.984E+00 2.353E+01  0.0000 0.79887
  8.000E+01 1.527E+02 1.901E+00 3.210E-05 0.000E+00 0.000E+00 3.210E-05 1.901E+00 2.868E+01  0.0000 0.82227
  9.000E+01 1.647E+02 1.839E+00 3.529E-05 0.000E+00 0.000E+00 3.529E-05 1.840E+00 3.403E+01  0.0000 0.84166
  1.000E+02 1.764E+02 1.792E+00 3.853E-05 0.000E+00 0.000E+00 3.853E-05 1.792E+00 3.954E+01  0.0083 0.85794
  1.200E+02 1.994E+02 1.724E+00 4.519E-05 0.000E+00 0.000E+00 4.519E-05 1.724E+00 5.092E+01  0.0356 0.88361
  1.400E+02 2.218E+02 1.681E+00 5.210E-05 0.000E+00 0.000E+00 5.210E-05 1.681E+00 6.267E+01  0.0662 0.90278
  1.700E+02 2.546E+02 1.643E+00 6.294E-05 0.000E+00 0.000E+00 6.294E-05 1.643E+00 8.073E+01  0.1150 0.92363
  2.000E+02 2.868E+02 1.622E+00 7.432E-05 0.000E+00 0.000E+00 7.432E-05 1.623E+00 9.910E+01  0.1653 0.93835
  2.500E+02 3.396E+02 1.609E+00 9.445E-05 1.329E-07 0.000E+00 9.459E-05 1.610E+00 1.300E+02  0.2493 0.95485
  3.000E+02 3.917E+02 1.609E+00 1.159E-04 1.579E-06 0.000E+00 1.175E-04 1.610E+00 1.611E+02  0.3316 0.96548
  3.500E+02 4.432E+02 1.615E+00 1.386E-04 4.472E-06 0.000E+00 1.431E-04 1.616E+00 1.921E+02  0.4112 0.97274
  4.000E+02 4.945E+02 1.624E+00 1.624E-04 8.763E-06 0.000E+00 1.712E-04 1.625E+00 2.230E+02  0.4877 0.97793
  4.500E+02 5.455E+02 1.635E+00 1.873E-04 1.440E-05 0.000E+00 2.017E-04 1.635E+00 2.537E+02  0.5612 0.98176
  5.000E+02 5.964E+02 1.646E+00 2.130E-04 2.134E-05 0.000E+00 2.344E-04 1.646E+00 2.841E+02  0.6319 0.98467
  5.500E+02 6.471E+02 1.657E+00 2.397E-04 2.954E-05 0.000E+00 2.693E-04 1.657E+00 3.144E+02  0.6998 0.98693
  6.000E+02 6.977E+02 1.668E+00 2.672E-04 3.894E-05 0.000E+00 3.062E-04 1.669E+00 3.445E+02  0.7651 0.98873
  7.000E+02 7.987E+02 1.690E+00 3.246E-04 6.122E-05 0.000E+00 3.858E-04 1.690E+00 4.040E+02  0.8886 0.99136
  8.000E+02 8.995E+02 1.709E+00 3.847E-04 8.788E-05 0.000E+00 4.726E-04 1.710E+00 4.628E+02  1.0037 0.99317
  9.000E+02 1.000E+03 1.728E+00 4.474E-04 1.186E-04 0.000E+00 5.661E-04 1.728E+00 5.210E+02  1.1115 0.99447
  1.000E+03 1.101E+03 1.745E+00 5.124E-04 1.532E-04 0.000E+00 6.657E-04 1.746E+00 5.786E+02  1.2128 0.99542
  1.200E+03 1.301E+03 1.775E+00 6.487E-04 2.331E-04 2.252E-05 9.043E-04 1.776E+00 6.922E+02  1.3990 0.99672
  1.400E+03 1.502E+03 1.801E+00 7.923E-04 3.259E-04 6.142E-05 1.180E-03 1.803E+00 8.040E+02  1.5669 0.99753
  1.700E+03 1.803E+03 1.835E+00 1.020E-03 4.868E-04 1.311E-04 1.638E-03 1.837E+00 9.688E+02  1.7918 0.99829
  2.000E+03 2.103E+03 1.863E+00 1.259E-03 6.708E-04 2.128E-04 2.143E-03 1.865E+00 1.131E+03  1.9912 0.99874
  2.500E+03 2.604E+03 1.901E+00 1.682E-03 1.021E-03 3.702E-04 3.074E-03 1.904E+00 1.396E+03  2.2809 0.99918
  3.000E+03 3.104E+03 1.932E+00 2.129E-03 1.420E-03 5.348E-04 4.084E-03 1.936E+00 1.657E+03  2.5307 0.99942
  3.500E+03 3.604E+03 1.958E+00 2.598E-03 1.859E-03 7.086E-04 5.165E-03 1.963E+00 1.913E+03  2.7507 0.99957
  4.000E+03 4.104E+03 1.980E+00 3.084E-03 2.347E-03 8.939E-04 6.324E-03 1.986E+00 2.166E+03  2.9474 0.99967
  4.500E+03 4.604E+03 1.999E+00 3.586E-03 2.872E-03 1.086E-03 7.544E-03 2.007E+00 2.417E+03  3.1255 0.99974
  5.000E+03 5.105E+03 2.016E+00 4.102E-03 3.428E-03 1.271E-03 8.801E-03 2.025E+00 2.665E+03  3.2884 0.99979
  5.500E+03 5.605E+03 2.031E+00 4.631E-03 4.012E-03 1.470E-03 1.011E-02 2.041E+00 2.911E+03  3.4385 0.99982
  6.000E+03 6.105E+03 2.044E+00 5.172E-03 4.621E-03 1.655E-03 1.145E-02 2.056E+00 3.155E+03  3.5777 0.99985
  7.000E+03 7.105E+03 2.068E+00 6.285E-03 5.906E-03 2.047E-03 1.424E-02 2.082E+00 3.638E+03  3.8294 0.99989
  8.000E+03 8.105E+03 2.088E+00 7.436E-03 7.272E-03 2.436E-03 1.714E-02 2.105E+00 4.116E+03  4.0523 0.99992
  9.000E+03 9.105E+03 2.105E+00 8.620E-03 8.708E-03 2.801E-03 2.013E-02 2.125E+00 4.589E+03  4.2526 0.99993
  1.000E+04 1.011E+04 2.120E+00 9.833E-03 1.021E-02 3.178E-03 2.322E-02 2.143E+00 5.058E+03  4.4344 0.99995
  1.200E+04 1.211E+04 2.145E+00 1.234E-02 1.337E-02 3.941E-03 2.965E-02 2.175E+00 5.984E+03  4.7549 0.99996
  1.400E+04 1.411E+04 2.166E+00 1.493E-02 1.672E-02 4.706E-03 3.635E-02 2.202E+00 6.898E+03  5.0311 0.99997
  1.700E+04 1.711E+04 2.191E+00 1.895E-02 2.204E-02 5.837E-03 4.682E-02 2.238E+00 8.249E+03  5.3854 0.99998
  2.000E+04 2.011E+04 2.212E+00 2.311E-02 2.764E-02 6.947E-03 5.770E-02 2.270E+00 9.580E+03  5.6869 0.99999
  2.500E+04 2.511E+04 2.239E+00 3.030E-02 3.751E-02 8.768E-03 7.658E-02 2.316E+00 1.176E+04  6.1075 0.99999
  3.000E+04 3.011E+04 2.261E+00 3.775E-02 4.790E-02 1.056E-02 9.620E-02 2.357E+00 1.390E+04  6.4561 0.99999
  3.500E+04 3.511E+04 2.278E+00 4.540E-02 5.872E-02 1.236E-02 1.165E-01 2.395E+00 1.601E+04  6.7539 1.00000
  4.000E+04 4.011E+04 2.293E+00 5.324E-02 6.988E-02 1.415E-02 1.373E-01 2.430E+00 1.808E+04  7.0139 1.00000
  4.500E+04 4.511E+04 2.306E+00 6.124E-02 8.135E-02 1.591E-02 1.585E-01 2.464E+00 2.012E+04  7.2446 1.00000
  5.000E+04 5.011E+04 2.317E+00 6.936E-02 9.307E-02 1.767E-02 1.801E-01 2.497E+00 2.214E+04  7.4519 1.00000
  5.500E+04 5.511E+04 2.328E+00 7.761E-02 1.050E-01 1.944E-02 2.021E-01 2.530E+00 2.413E+04  7.6401 1.00000
  6.000E+04 6.011E+04 2.337E+00 8.597E-02 1.172E-01 2.119E-02 2.243E-01 2.561E+00 2.609E+04  7.8123 1.00000
  7.000E+04 7.011E+04 2.353E+00 1.030E-01 1.420E-01 2.467E-02 2.696E-01 2.622E+00 2.995E+04  8.1185 1.00000
  8.000E+04 8.011E+04 2.366E+00 1.203E-01 1.674E-01 2.816E-02 3.159E-01 2.682E+00 3.372E+04  8.3845 1.00000
  9.000E+04 9.011E+04 2.378E+00 1.379E-01 1.933E-01 3.166E-02 3.628E-01 2.741E+00 3.741E+04  8.6195 1.00000
  1.000E+05 1.001E+05 2.389E+00 1.558E-01 2.196E-01 3.508E-02 4.104E-01 2.799E+00 4.102E+04  8.8299 1.00000
  1.200E+05 1.201E+05 2.407E+00 1.922E-01 2.732E-01 4.205E-02 5.074E-01 2.915E+00 4.802E+04  9.1942 1.00000
  1.400E+05 1.401E+05 2.423E+00 2.292E-01 3.279E-01 4.903E-02 6.062E-01 3.029E+00 5.476E+04  9.5023 1.00000
  1.700E+05 1.701E+05 2.442E+00 2.859E-01 4.116E-01 5.949E-02 7.570E-01 3.199E+00 6.440E+04  9.8903 1.00000
  2.000E+05 2.001E+05 2.458E+00 3.436E-01 4.968E-01 7.002E-02 9.105E-01 3.368E+00 7.354E+04 10.2152 1.00000
  2.500E+05 2.501E+05 2.480E+00 4.417E-01 6.413E-01 8.761E-02 1.171E+00 3.650E+00 8.781E+04 10.6613 1.00000
  3.000E+05 3.001E+05 2.498E+00 5.415E-01 7.882E-01 1.053E-01 1.435E+00 3.933E+00 1.010E+05 11.0258 1.00000
  3.500E+05 3.501E+05 2.513E+00 6.427E-01 9.368E-01 1.233E-01 1.703E+00 4.215E+00 1.133E+05 11.3340 1.00000
  4.000E+05 4.001E+05 2.526E+00 7.451E-01 1.087E+00 1.413E-01 1.973E+00 4.499E+00 1.248E+05 11.6009 1.00000
  4.500E+05 4.501E+05 2.537E+00 8.485E-01 1.238E+00 1.594E-01 2.246E+00 4.783E+00 1.356E+05 11.8365 1.00000
  5.000E+05 5.001E+05 2.548E+00 9.526E-01 1.390E+00 1.777E-01 2.520E+00 5.068E+00 1.457E+05 12.0471 1.00000
  5.500E+05 5.501E+05 2.557E+00 1.058E+00 1.542E+00 1.958E-01 2.796E+00 5.353E+00 1.553E+05 12.2377 1.00000
  6.000E+05 6.001E+05 2.566E+00 1.163E+00 1.696E+00 2.141E-01 3.073E+00 5.639E+00 1.644E+05 12.4117 1.00000
  7.000E+05 7.001E+05 2.581E+00 1.376E+00 2.004E+00 2.509E-01 3.631E+00 6.212E+00 1.814E+05 12.7200 1.00000
  8.000E+05 8.001E+05 2.594E+00 1.590E+00 2.314E+00 2.881E-01 4.193E+00 6.787E+00 1.968E+05 12.9870 1.00000
  9.000E+05 9.001E+05 2.606E+00 1.806E+00 2.626E+00 3.256E-01 4.758E+00 7.364E+00 2.109E+05 13.2225 1.00000
  1.000E+06 1.000E+06 2.617E+00 2.023E+00 2.939E+00 3.635E-01 5.326E+00 7.942E+00 2.240E+05 13.4332 1.00000
  1.200E+06 1.200E+06 2.635E+00 2.461E+00 3.567E+00 4.402E-01 6.468E+00 9.103E+00 2.476E+05 13.7978 1.00000
  1.400E+06 1.400E+06 2.651E+00 2.902E+00 4.198E+00 5.180E-01 7.617E+00 1.027E+01 2.683E+05 14.1061 1.00000
  1.700E+06 1.700E+06 2.670E+00 3.568E+00 5.148E+00 6.365E-01 9.352E+00 1.202E+01 2.954E+05 14.4944 1.00000
  2.000E+06 2.000E+06 2.687E+00 4.238E+00 6.102E+00 7.569E-01 1.110E+01 1.378E+01 3.188E+05 14.8194 1.00000
  2.500E+06 2.500E+06 2.710E+00 5.362E+00 7.698E+00 9.612E-01 1.402E+01 1.673E+01 3.518E+05 15.2657 1.00000
  3.000E+06 3.000E+06 2.729E+00 6.494E+00 9.298E+00 1.169E+00 1.696E+01 1.969E+01 3.795E+05 15.6303 1.00000
  3.500E+06 3.500E+06 2.745E+00 7.630E+00 1.090E+01 1.381E+00 1.991E+01 2.266E+01 4.032E+05 15.9386 1.00000
  4.000E+06 4.000E+06 2.759E+00 8.771E+00 1.251E+01 1.596E+00 2.288E+01 2.563E+01 4.240E+05 16.2056 1.00000
  4.500E+06 4.500E+06 2.772E+00 9.914E+00 1.412E+01 1.813E+00 2.585E+01 2.862E+01 4.425E+05 16.4412 1.00000
  5.000E+06 5.000E+06 2.783E+00 1.106E+01 1.573E+01 2.033E+00 2.882E+01 3.160E+01 4.591E+05 16.6519 1.00000
  5.500E+06 5.500E+06 2.793E+00 1.221E+01 1.734E+01 2.255E+00 3.180E+01 3.460E+01 4.743E+05 16.8425 1.00000
  6.000E+06 6.000E+06 2.803E+00 1.336E+01 1.895E+01 2.479E+00 3.479E+01 3.759E+01 4.881E+05 17.0166 1.00000
  7.000E+06 7.000E+06 2.819E+00 1.566E+01 2.218E+01 2.933E+00 4.078E+01 4.360E+01 5.129E+05 17.3248 1.00000
  8.000E+06 8.000E+06 2.834E+00 1.797E+01 2.541E+01 3.394E+00 4.678E+01 4.962E+01 5.345E+05 17.5919 1.00000
  9.000E+06 9.000E+06 2.847E+00 2.029E+01 2.865E+01 3.860E+00 5.280E+01 5.564E+01 5.535E+05 17.8275 1.00000
  1.000E+07 1.000E+07 2.858E+00 2.261E+01 3.188E+01 4.332E+00 5.882E+01 6.168E+01 5.706E+05 18.0382 1.00000
  1.200E+07 1.200E+07 2.878E+00 2.725E+01 3.836E+01 5.291E+00 7.090E+01 7.378E+01 6.004E+05 18.4028 1.00000
  1.400E+07 1.400E+07 2.896E+00 3.190E+01 4.484E+01 6.267E+00 8.301E+01 8.590E+01 6.256E+05 18.7111 1.00000
  1.700E+07 1.700E+07 2.917E+00 3.888E+01 5.457E+01 7.759E+00 1.012E+02 1.041E+02 6.574E+05 19.0994 1.00000
  2.000E+07 2.000E+07 2.936E+00 4.588E+01 6.430E+01 9.279E+00 1.195E+02 1.224E+02 6.841E+05 19.4245 1.00000
  2.500E+07 2.500E+07 2.961E+00 5.755E+01 8.054E+01 1.187E+01 1.500E+02 1.529E+02 7.209E+05 19.8708 1.00000
  3.000E+07 3.000E+07 2.982E+00 6.924E+01 9.677E+01 1.451E+01 1.805E+02 1.835E+02 7.508E+05 20.2354 1.00000
  3.500E+07 3.500E+07 3.000E+00 8.093E+01 1.130E+02 1.721E+01 2.112E+02 2.142E+02 7.761E+05 20.5437 1.00000
  4.000E+07 4.000E+07 3.016E+00 9.264E+01 1.293E+02 1.994E+01 2.418E+02 2.449E+02 7.980E+05 20.8108 1.00000
  4.500E+07 4.500E+07 3.030E+00 1.043E+02 1.455E+02 2.272E+01 2.726E+02 2.756E+02 8.173E+05 21.0463 1.00000
  5.000E+07 5.000E+07 3.042E+00 1.161E+02 1.618E+02 2.553E+01 3.033E+02 3.064E+02 8.345E+05 21.2570 1.00000
  5.500E+07 5.500E+07 3.053E+00 1.278E+02 1.780E+02 2.837E+01 3.341E+02 3.372E+02 8.501E+05 21.4477 1.00000
  6.000E+07 6.000E+07 3.064E+00 1.395E+02 1.943E+02 3.124E+01 3.650E+02 3.681E+02 8.643E+05 21.6217 1.00000
  7.000E+07 7.000E+07 3.082E+00 1.629E+02 2.268E+02 3.705E+01 4.268E+02 4.298E+02 8.895E+05 21.9300 1.00000
  8.000E+07 8.000E+07 3.098E+00 1.864E+02 2.593E+02 4.297E+01 4.886E+02 4.917E+02 9.113E+05 22.1971 1.00000
  9.000E+07 9.000E+07 3.113E+00 2.098E+02 2.918E+02 4.896E+01 5.506E+02 5.537E+02 9.305E+05 22.4326 1.00000
  1.000E+08 1.000E+08 3.126E+00 2.333E+02 3.243E+02 5.503E+01 6.127E+02 6.158E+02 9.477E+05 22.6433 1.00000
  1.200E+08 1.200E+08 3.148E+00 2.802E+02 3.894E+02 6.738E+01 7.370E+02 7.401E+02 9.774E+05 23.0080 1.00000
  1.400E+08 1.400E+08 3.167E+00 3.272E+02 4.544E+02 7.996E+01 8.616E+02 8.647E+02 1.003E+06 23.3163 1.00000
  1.700E+08 1.700E+08 3.192E+00 3.976E+02 5.520E+02 9.922E+01 1.049E+03 1.052E+03 1.034E+06 23.7046 1.00000
  2.000E+08 2.000E+08 3.212E+00 4.681E+02 6.495E+02 1.189E+02 1.236E+03 1.240E+03 1.060E+06 24.0296 1.00000
  2.500E+08 2.500E+08 3.240E+00 5.855E+02 8.122E+02 1.524E+02 1.550E+03 1.553E+03 1.097E+06 24.4759 1.00000
  3.000E+08 3.000E+08 3.264E+00 7.030E+02 9.748E+02 1.866E+02 1.864E+03 1.868E+03 1.126E+06 24.8406 1.00000
  3.500E+08 3.500E+08 3.284E+00 8.204E+02 1.137E+03 2.216E+02 2.179E+03 2.183E+03 1.151E+06 25.1489 1.00000
  4.000E+08 4.000E+08 3.301E+00 9.379E+02 1.300E+03 2.571E+02 2.495E+03 2.498E+03 1.173E+06 25.4159 1.00000
  4.500E+08 4.500E+08 3.317E+00 1.055E+03 1.463E+03 2.932E+02 2.811E+03 2.815E+03 1.191E+06 25.6515 1.00000
  5.000E+08 5.000E+08 3.331E+00 1.173E+03 1.625E+03 3.297E+02 3.128E+03 3.131E+03 1.208E+06 25.8622 1.00000
  5.500E+08 5.500E+08 3.343E+00 1.290E+03 1.788E+03 3.666E+02 3.445E+03 3.448E+03 1.224E+06 26.0528 1.00000
  6.000E+08 6.000E+08 3.355E+00 1.408E+03 1.951E+03 4.040E+02 3.762E+03 3.766E+03 1.237E+06 26.2269 1.00000
  7.000E+08 7.000E+08 3.376E+00 1.643E+03 2.276E+03 4.798E+02 4.398E+03 4.402E+03 1.262E+06 26.5352 1.00000
  8.000E+08 8.000E+08 3.394E+00 1.878E+03 2.601E+03 5.569E+02 5.036E+03 5.039E+03 1.283E+06 26.8022 1.00000
  9.000E+08 9.000E+08 3.410E+00 2.113E+03 2.926E+03 6.351E+02 5.674E+03 5.677E+03 1.302E+06 27.0378 1.00000
  1.000E+09 1.000E+09 3.424E+00 2.348E+03 3.252E+03 7.144E+02 6.314E+03 6.317E+03 1.319E+06 27.2485 1.00000
