 Incident particle is a Muon with M = 105.65839 MeV
 Index = 0: LiquidHelium
      Absorber with <Z/A> = 0.49968
 Sternheimer coef:  a     k=m_s   x_0    x_1    I[eV]   Cbar  delta0
                 0.6571  3.0000  0.4729  2.0000   41.8  4.5180 0.00

 *** Table generated with PUMAS v1.00 ***

      T         p     Ionization  brems     pair     photonuc  Radloss    dE/dx   CSDA Range  delta   beta
    [MeV]    [MeV/c]  -----------------------[MeV cm^2/g]------------------------  [g/cm^2]
  1.000E+00 1.457E+01 5.030E+01 2.613E-07 0.000E+00 0.000E+00 2.613E-07 5.030E+01 9.940E-03  0.0000 0.13661
  1.200E+00 1.597E+01 4.327E+01 2.959E-07 0.000E+00 0.000E+00 2.959E-07 4.327E+01 1.424E-02  0.0000 0.14944
  1.400E+00 1.726E+01 3.809E+01 3.289E-07 0.000E+00 0.000E+00 3.289E-07 3.809E+01 1.918E-02  0.0000 0.16119
  1.700E+00 1.903E+01 3.243E+01 3.763E-07 0.000E+00 0.000E+00 3.763E-07 3.243E+01 2.774E-02  0.0000 0.17725
  2.000E+00 2.066E+01 2.834E+01 4.214E-07 0.000E+00 0.000E+00 4.214E-07 2.834E+01 3.766E-02  0.0000 0.19186
  2.500E+00 2.312E+01 2.356E+01 4.925E-07 0.000E+00 0.000E+00 4.925E-07 2.356E+01 5.709E-02  0.0000 0.21376
  3.000E+00 2.536E+01 2.026E+01 5.594E-07 0.000E+00 0.000E+00 5.594E-07 2.026E+01 8.005E-02  0.0000 0.23336
  3.500E+00 2.742E+01 1.785E+01 6.228E-07 0.000E+00 0.000E+00 6.228E-07 1.785E+01 1.064E-01  0.0000 0.25120
  4.000E+00 2.935E+01 1.599E+01 6.834E-07 0.000E+00 0.000E+00 6.834E-07 1.599E+01 1.360E-01  0.0000 0.26763
  4.500E+00 3.116E+01 1.453E+01 7.414E-07 0.000E+00 0.000E+00 7.414E-07 1.453E+01 1.689E-01  0.0000 0.28290
  5.000E+00 3.289E+01 1.334E+01 7.972E-07 0.000E+00 0.000E+00 7.972E-07 1.334E+01 2.048E-01  0.0000 0.29720
  5.500E+00 3.453E+01 1.235E+01 8.511E-07 0.000E+00 0.000E+00 8.511E-07 1.235E+01 2.438E-01  0.0000 0.31066
  6.000E+00 3.611E+01 1.151E+01 9.032E-07 0.000E+00 0.000E+00 9.032E-07 1.151E+01 2.858E-01  0.0000 0.32339
  7.000E+00 3.909E+01 1.018E+01 1.003E-06 0.000E+00 0.000E+00 1.003E-06 1.018E+01 3.783E-01  0.0000 0.34700
  8.000E+00 4.189E+01 9.165E+00 1.097E-06 0.000E+00 0.000E+00 1.097E-06 9.165E+00 4.820E-01  0.0000 0.36854
  9.000E+00 4.453E+01 8.362E+00 1.187E-06 0.000E+00 0.000E+00 1.187E-06 8.362E+00 5.963E-01  0.0000 0.38836
  1.000E+01 4.704E+01 7.712E+00 1.274E-06 0.000E+00 0.000E+00 1.274E-06 7.712E+00 7.209E-01  0.0000 0.40675
  1.200E+01 5.177E+01 6.720E+00 1.437E-06 0.000E+00 0.000E+00 1.437E-06 6.720E+00 9.994E-01  0.0000 0.43998
  1.400E+01 5.616E+01 6.000E+00 1.589E-06 0.000E+00 0.000E+00 1.589E-06 6.000E+00 1.315E+00  0.0000 0.46937
  1.700E+01 6.230E+01 5.225E+00 1.804E-06 0.000E+00 0.000E+00 1.804E-06 5.225E+00 1.852E+00  0.0000 0.50792
  2.000E+01 6.802E+01 4.674E+00 2.004E-06 0.000E+00 0.000E+00 2.004E-06 4.674E+00 2.460E+00  0.0000 0.54129
  2.500E+01 7.686E+01 4.042E+00 2.316E-06 0.000E+00 0.000E+00 2.316E-06 4.042E+00 3.613E+00  0.0000 0.58827
  3.000E+01 8.509E+01 3.616E+00 2.610E-06 0.000E+00 0.000E+00 2.610E-06 3.616E+00 4.923E+00  0.0000 0.62720
  3.500E+01 9.285E+01 3.311E+00 2.891E-06 0.000E+00 0.000E+00 2.891E-06 3.311E+00 6.370E+00  0.0000 0.66011
  4.000E+01 1.003E+02 3.083E+00 3.163E-06 0.000E+00 0.000E+00 3.163E-06 3.083E+00 7.935E+00  0.0000 0.68834
  4.500E+01 1.074E+02 2.905E+00 3.429E-06 0.000E+00 0.000E+00 3.429E-06 2.905E+00 9.607E+00  0.0000 0.71286
  5.000E+01 1.143E+02 2.765E+00 3.692E-06 0.000E+00 0.000E+00 3.692E-06 2.765E+00 1.137E+01  0.0000 0.73434
  5.500E+01 1.210E+02 2.650E+00 3.952E-06 0.000E+00 0.000E+00 3.952E-06 2.650E+00 1.322E+01  0.0000 0.75332
  6.000E+01 1.276E+02 2.556E+00 4.211E-06 0.000E+00 0.000E+00 4.211E-06 2.556E+00 1.514E+01  0.0000 0.77019
  7.000E+01 1.403E+02 2.411E+00 4.728E-06 0.000E+00 0.000E+00 4.728E-06 2.411E+00 1.917E+01  0.0000 0.79887
  8.000E+01 1.527E+02 2.305E+00 5.248E-06 0.000E+00 0.000E+00 5.248E-06 2.305E+00 2.341E+01  0.0000 0.82227
  9.000E+01 1.647E+02 2.226E+00 5.773E-06 0.000E+00 0.000E+00 5.773E-06 2.226E+00 2.783E+01  0.0000 0.84166
  1.000E+02 1.764E+02 2.165E+00 6.305E-06 0.000E+00 0.000E+00 6.305E-06 2.165E+00 3.239E+01  0.0000 0.85794
  1.200E+02 1.994E+02 2.080E+00 7.393E-06 0.000E+00 0.000E+00 7.393E-06 2.080E+00 4.181E+01  0.0000 0.88361
  1.400E+02 2.218E+02 2.026E+00 8.516E-06 0.000E+00 0.000E+00 8.516E-06 2.026E+00 5.155E+01  0.0000 0.90278
  1.700E+02 2.546E+02 1.979E+00 1.027E-05 1.452E-14 0.000E+00 1.027E-05 1.979E+00 6.654E+01  0.0000 0.92363
  2.000E+02 2.868E+02 1.954E+00 1.211E-05 3.230E-12 0.000E+00 1.211E-05 1.954E+00 8.180E+01  0.0000 0.93835
  2.500E+02 3.396E+02 1.938E+00 1.534E-05 2.650E-08 0.000E+00 1.537E-05 1.938E+00 1.075E+02  0.0036 0.95485
  3.000E+02 3.917E+02 1.937E+00 1.878E-05 2.211E-07 0.000E+00 1.900E-05 1.937E+00 1.333E+02  0.0279 0.96548
  3.500E+02 4.432E+02 1.943E+00 2.239E-05 5.984E-07 0.000E+00 2.299E-05 1.943E+00 1.591E+02  0.0665 0.97274
  4.000E+02 4.945E+02 1.952E+00 2.618E-05 1.149E-06 0.000E+00 2.733E-05 1.952E+00 1.848E+02  0.1137 0.97793
  4.500E+02 5.455E+02 1.962E+00 3.013E-05 1.866E-06 0.000E+00 3.200E-05 1.962E+00 2.103E+02  0.1661 0.98176
  5.000E+02 5.964E+02 1.973E+00 3.422E-05 2.744E-06 0.000E+00 3.697E-05 1.973E+00 2.357E+02  0.2217 0.98467
  5.500E+02 6.471E+02 1.985E+00 3.845E-05 3.776E-06 0.000E+00 4.223E-05 1.985E+00 2.610E+02  0.2791 0.98693
  6.000E+02 6.977E+02 1.996E+00 4.281E-05 4.958E-06 0.000E+00 4.776E-05 1.996E+00 2.861E+02  0.3374 0.98873
  7.000E+02 7.987E+02 2.017E+00 5.188E-05 7.751E-06 0.000E+00 5.963E-05 2.017E+00 3.359E+02  0.4545 0.99136
  8.000E+02 8.995E+02 2.037E+00 6.138E-05 1.109E-05 0.000E+00 7.246E-05 2.037E+00 3.853E+02  0.5700 0.99317
  9.000E+02 1.000E+03 2.055E+00 7.128E-05 1.493E-05 0.000E+00 8.621E-05 2.055E+00 4.342E+02  0.6825 0.99447
  1.000E+03 1.101E+03 2.072E+00 8.154E-05 1.924E-05 0.000E+00 1.008E-04 2.072E+00 4.826E+02  0.7916 0.99542
  1.200E+03 1.301E+03 2.101E+00 1.031E-04 2.920E-05 2.260E-05 1.549E-04 2.101E+00 5.785E+02  0.9983 0.99672
  1.400E+03 1.502E+03 2.126E+00 1.258E-04 4.076E-05 6.219E-05 2.287E-04 2.126E+00 6.731E+02  1.1902 0.99753
  1.700E+03 1.803E+03 2.158E+00 1.618E-04 6.078E-05 1.342E-04 3.568E-04 2.158E+00 8.131E+02  1.4532 0.99829
  2.000E+03 2.103E+03 2.184E+00 1.998E-04 8.367E-05 2.200E-04 5.035E-04 2.184E+00 9.513E+02  1.6902 0.99874
  2.500E+03 2.604E+03 2.219E+00 2.672E-04 1.273E-04 3.874E-04 7.819E-04 2.220E+00 1.178E+03  2.0388 0.99918
  3.000E+03 3.104E+03 2.247E+00 3.388E-04 1.769E-04 5.652E-04 1.081E-03 2.248E+00 1.402E+03  2.3413 0.99942
  3.500E+03 3.604E+03 2.270E+00 4.141E-04 2.315E-04 7.551E-04 1.401E-03 2.272E+00 1.623E+03  2.6082 0.99957
  4.000E+03 4.104E+03 2.290E+00 4.926E-04 3.050E-04 9.594E-04 1.757E-03 2.292E+00 1.843E+03  2.8467 0.99967
  4.500E+03 4.604E+03 2.307E+00 5.741E-04 3.886E-04 1.173E-03 2.136E-03 2.309E+00 2.060E+03  3.0620 0.99974
  5.000E+03 5.105E+03 2.322E+00 6.582E-04 4.776E-04 1.379E-03 2.515E-03 2.324E+00 2.276E+03  3.2581 0.99979
  5.500E+03 5.605E+03 2.335E+00 7.448E-04 5.716E-04 1.602E-03 2.919E-03 2.338E+00 2.490E+03  3.4380 0.99982
  6.000E+03 6.105E+03 2.347E+00 8.336E-04 6.703E-04 1.811E-03 3.314E-03 2.350E+00 2.704E+03  3.6041 0.99985
  7.000E+03 7.105E+03 2.368E+00 1.017E-03 8.803E-04 2.254E-03 4.152E-03 2.372E+00 3.127E+03  3.9020 0.99989
  8.000E+03 8.105E+03 2.386E+00 1.209E-03 1.105E-03 2.696E-03 5.010E-03 2.391E+00 3.547E+03  4.1630 0.99992
  9.000E+03 9.105E+03 2.401E+00 1.406E-03 1.344E-03 3.114E-03 5.864E-03 2.407E+00 3.964E+03  4.3949 0.99993
  1.000E+04 1.011E+04 2.415E+00 1.610E-03 1.594E-03 3.547E-03 6.751E-03 2.422E+00 4.378E+03  4.6032 0.99995
  1.200E+04 1.211E+04 2.438E+00 2.033E-03 2.127E-03 4.428E-03 8.588E-03 2.447E+00 5.200E+03  4.9644 0.99996
  1.400E+04 1.411E+04 2.458E+00 2.475E-03 2.696E-03 5.316E-03 1.049E-02 2.468E+00 6.014E+03  5.2702 0.99997
  1.700E+04 1.711E+04 2.482E+00 3.167E-03 3.606E-03 6.637E-03 1.341E-02 2.495E+00 7.223E+03  5.6559 0.99998
  2.000E+04 2.011E+04 2.501E+00 3.888E-03 4.575E-03 7.940E-03 1.640E-02 2.518E+00 8.420E+03  5.9791 0.99999
  2.500E+04 2.511E+04 2.528E+00 5.146E-03 6.296E-03 1.009E-02 2.153E-02 2.549E+00 1.039E+04  6.4233 0.99999
  3.000E+04 3.011E+04 2.549E+00 6.462E-03 8.125E-03 1.221E-02 2.680E-02 2.576E+00 1.234E+04  6.7865 0.99999
  3.500E+04 3.511E+04 2.567E+00 7.826E-03 1.004E-02 1.436E-02 3.223E-02 2.599E+00 1.428E+04  7.0938 1.00000
  4.000E+04 4.011E+04 2.582E+00 9.231E-03 1.204E-02 1.650E-02 3.777E-02 2.620E+00 1.619E+04  7.3601 1.00000
  4.500E+04 4.511E+04 2.595E+00 1.067E-02 1.409E-02 1.861E-02 4.338E-02 2.638E+00 1.809E+04  7.5951 1.00000
  5.000E+04 5.011E+04 2.607E+00 1.214E-02 1.621E-02 2.073E-02 4.908E-02 2.656E+00 1.998E+04  7.8054 1.00000
  5.500E+04 5.511E+04 2.617E+00 1.364E-02 1.837E-02 2.287E-02 5.488E-02 2.672E+00 2.186E+04  7.9956 1.00000
  6.000E+04 6.011E+04 2.626E+00 1.517E-02 2.058E-02 2.498E-02 6.074E-02 2.687E+00 2.373E+04  8.1693 1.00000
  7.000E+04 7.011E+04 2.643E+00 1.829E-02 2.512E-02 2.920E-02 7.261E-02 2.716E+00 2.743E+04  8.4771 1.00000
  8.000E+04 8.011E+04 2.657E+00 2.149E-02 2.980E-02 3.343E-02 8.471E-02 2.742E+00 3.109E+04  8.7438 1.00000
  9.000E+04 9.011E+04 2.670E+00 2.476E-02 3.459E-02 3.767E-02 9.702E-02 2.767E+00 3.472E+04  8.9791 1.00000
  1.000E+05 1.001E+05 2.681E+00 2.809E-02 3.948E-02 4.184E-02 1.094E-01 2.790E+00 3.832E+04  9.1895 1.00000
  1.200E+05 1.201E+05 2.700E+00 3.490E-02 4.951E-02 5.035E-02 1.348E-01 2.834E+00 4.544E+04  9.5538 1.00000
  1.400E+05 1.401E+05 2.716E+00 4.190E-02 5.983E-02 5.887E-02 1.606E-01 2.876E+00 5.244E+04  9.8619 1.00000
  1.700E+05 1.701E+05 2.736E+00 5.265E-02 7.573E-02 7.168E-02 2.001E-01 2.936E+00 6.277E+04 10.2499 1.00000
  2.000E+05 2.001E+05 2.752E+00 6.367E-02 9.204E-02 8.460E-02 2.403E-01 2.993E+00 7.289E+04 10.5748 1.00000
  2.500E+05 2.501E+05 2.775E+00 8.253E-02 1.199E-01 1.062E-01 3.087E-01 3.084E+00 8.935E+04 11.0209 1.00000
  3.000E+05 3.001E+05 2.794E+00 1.019E-01 1.484E-01 1.280E-01 3.784E-01 3.172E+00 1.053E+05 11.3854 1.00000
  3.500E+05 3.501E+05 2.810E+00 1.216E-01 1.775E-01 1.501E-01 4.492E-01 3.259E+00 1.209E+05 11.6936 1.00000
  4.000E+05 4.001E+05 2.823E+00 1.416E-01 2.070E-01 1.724E-01 5.210E-01 3.344E+00 1.360E+05 11.9605 1.00000
  4.500E+05 4.501E+05 2.835E+00 1.619E-01 2.368E-01 1.948E-01 5.935E-01 3.429E+00 1.508E+05 12.1961 1.00000
  5.000E+05 5.001E+05 2.846E+00 1.824E-01 2.670E-01 2.174E-01 6.667E-01 3.513E+00 1.652E+05 12.4067 1.00000
  5.500E+05 5.501E+05 2.856E+00 2.031E-01 2.973E-01 2.398E-01 7.403E-01 3.596E+00 1.793E+05 12.5973 1.00000
  6.000E+05 6.001E+05 2.865E+00 2.241E-01 3.280E-01 2.624E-01 8.144E-01 3.679E+00 1.930E+05 12.7713 1.00000
  7.000E+05 7.001E+05 2.881E+00 2.664E-01 3.897E-01 3.079E-01 9.640E-01 3.845E+00 2.196E+05 13.0796 1.00000
  8.000E+05 8.001E+05 2.895E+00 3.092E-01 4.522E-01 3.540E-01 1.115E+00 4.010E+00 2.451E+05 13.3466 1.00000
  9.000E+05 9.001E+05 2.907E+00 3.525E-01 5.151E-01 4.005E-01 1.268E+00 4.175E+00 2.695E+05 13.5821 1.00000
  1.000E+06 1.000E+06 2.918E+00 3.962E-01 5.784E-01 4.475E-01 1.422E+00 4.340E+00 2.930E+05 13.7928 1.00000
  1.200E+06 1.200E+06 2.937E+00 4.846E-01 7.063E-01 5.426E-01 1.733E+00 4.671E+00 3.375E+05 14.1574 1.00000
  1.400E+06 1.400E+06 2.953E+00 5.739E-01 8.352E-01 6.391E-01 2.048E+00 5.002E+00 3.789E+05 14.4657 1.00000
  1.700E+06 1.700E+06 2.974E+00 7.096E-01 1.030E+00 7.861E-01 2.526E+00 5.500E+00 4.361E+05 14.8540 1.00000
  2.000E+06 2.000E+06 2.991E+00 8.467E-01 1.227E+00 9.356E-01 3.009E+00 6.000E+00 4.884E+05 15.1790 1.00000
  2.500E+06 2.500E+06 3.015E+00 1.078E+00 1.557E+00 1.189E+00 3.824E+00 6.839E+00 5.666E+05 15.6253 1.00000
  3.000E+06 3.000E+06 3.035E+00 1.312E+00 1.889E+00 1.448E+00 4.649E+00 7.684E+00 6.357E+05 15.9899 1.00000
  3.500E+06 3.500E+06 3.052E+00 1.547E+00 2.223E+00 1.711E+00 5.481E+00 8.533E+00 6.976E+05 16.2982 1.00000
  4.000E+06 4.000E+06 3.067E+00 1.784E+00 2.558E+00 1.978E+00 6.320E+00 9.387E+00 7.535E+05 16.5652 1.00000
  4.500E+06 4.500E+06 3.080E+00 2.023E+00 2.894E+00 2.248E+00 7.165E+00 1.024E+01 8.045E+05 16.8008 1.00000
  5.000E+06 5.000E+06 3.091E+00 2.262E+00 3.231E+00 2.521E+00 8.014E+00 1.111E+01 8.514E+05 17.0115 1.00000
  5.500E+06 5.500E+06 3.102E+00 2.502E+00 3.569E+00 2.797E+00 8.868E+00 1.197E+01 8.948E+05 17.2021 1.00000
  6.000E+06 6.000E+06 3.112E+00 2.743E+00 3.907E+00 3.075E+00 9.726E+00 1.284E+01 9.352E+05 17.3762 1.00000
  7.000E+06 7.000E+06 3.129E+00 3.227E+00 4.585E+00 3.639E+00 1.145E+01 1.458E+01 1.008E+06 17.6844 1.00000
  8.000E+06 8.000E+06 3.144E+00 3.714E+00 5.264E+00 4.212E+00 1.319E+01 1.633E+01 1.073E+06 17.9515 1.00000
  9.000E+06 9.000E+06 3.158E+00 4.202E+00 5.944E+00 4.792E+00 1.494E+01 1.810E+01 1.132E+06 18.1871 1.00000
  1.000E+07 1.000E+07 3.170E+00 4.691E+00 6.625E+00 5.379E+00 1.669E+01 1.986E+01 1.184E+06 18.3978 1.00000
  1.200E+07 1.200E+07 3.191E+00 5.674E+00 7.989E+00 6.571E+00 2.023E+01 2.342E+01 1.277E+06 18.7624 1.00000
  1.400E+07 1.400E+07 3.209E+00 6.660E+00 9.355E+00 7.785E+00 2.380E+01 2.701E+01 1.357E+06 19.0707 1.00000
  1.700E+07 1.700E+07 3.231E+00 8.145E+00 1.141E+01 9.639E+00 2.919E+01 3.242E+01 1.459E+06 19.4590 1.00000
  2.000E+07 2.000E+07 3.250E+00 9.634E+00 1.346E+01 1.153E+01 3.462E+01 3.787E+01 1.545E+06 19.7841 1.00000
  2.500E+07 2.500E+07 3.277E+00 1.212E+01 1.689E+01 1.475E+01 4.376E+01 4.704E+01 1.664E+06 20.2304 1.00000
  3.000E+07 3.000E+07 3.299E+00 1.462E+01 2.031E+01 1.804E+01 5.297E+01 5.627E+01 1.762E+06 20.5950 1.00000
  3.500E+07 3.500E+07 3.318E+00 1.712E+01 2.375E+01 2.139E+01 6.226E+01 6.558E+01 1.844E+06 20.9033 1.00000
  4.000E+07 4.000E+07 3.334E+00 1.963E+01 2.718E+01 2.479E+01 7.160E+01 7.494E+01 1.916E+06 21.1704 1.00000
  4.500E+07 4.500E+07 3.348E+00 2.214E+01 3.061E+01 2.824E+01 8.100E+01 8.434E+01 1.979E+06 21.4059 1.00000
  5.000E+07 5.000E+07 3.361E+00 2.465E+01 3.405E+01 3.174E+01 9.044E+01 9.380E+01 2.035E+06 21.6166 1.00000
  5.500E+07 5.500E+07 3.373E+00 2.717E+01 3.748E+01 3.527E+01 9.992E+01 1.033E+02 2.086E+06 21.8073 1.00000
  6.000E+07 6.000E+07 3.384E+00 2.969E+01 4.092E+01 3.884E+01 1.094E+02 1.128E+02 2.132E+06 21.9813 1.00000
  7.000E+07 7.000E+07 3.403E+00 3.472E+01 4.779E+01 4.607E+01 1.286E+02 1.320E+02 2.214E+06 22.2896 1.00000
  8.000E+07 8.000E+07 3.420E+00 3.977E+01 5.466E+01 5.343E+01 1.479E+02 1.513E+02 2.285E+06 22.5567 1.00000
  9.000E+07 9.000E+07 3.435E+00 4.481E+01 6.154E+01 6.089E+01 1.672E+02 1.707E+02 2.348E+06 22.7922 1.00000
  1.000E+08 1.000E+08 3.448E+00 4.987E+01 6.841E+01 6.844E+01 1.867E+02 1.902E+02 2.403E+06 23.0029 1.00000
  1.200E+08 1.200E+08 3.472E+00 5.997E+01 8.217E+01 8.379E+01 2.259E+02 2.294E+02 2.499E+06 23.3676 1.00000
  1.400E+08 1.400E+08 3.492E+00 7.009E+01 9.592E+01 9.944E+01 2.654E+02 2.689E+02 2.580E+06 23.6759 1.00000
  1.700E+08 1.700E+08 3.517E+00 8.527E+01 1.166E+02 1.234E+02 3.252E+02 3.287E+02 2.682E+06 24.0642 1.00000
  2.000E+08 2.000E+08 3.538E+00 1.005E+02 1.372E+02 1.478E+02 3.855E+02 3.890E+02 2.766E+06 24.3892 1.00000
  2.500E+08 2.500E+08 3.568E+00 1.258E+02 1.716E+02 1.895E+02 4.869E+02 4.904E+02 2.881E+06 24.8355 1.00000
  3.000E+08 3.000E+08 3.592E+00 1.511E+02 2.060E+02 2.321E+02 5.892E+02 5.928E+02 2.974E+06 25.2002 1.00000
  3.500E+08 3.500E+08 3.613E+00 1.765E+02 2.404E+02 2.756E+02 6.924E+02 6.961E+02 3.052E+06 25.5085 1.00000
  4.000E+08 4.000E+08 3.631E+00 2.019E+02 2.748E+02 3.198E+02 7.964E+02 8.000E+02 3.119E+06 25.7755 1.00000
  4.500E+08 4.500E+08 3.648E+00 2.272E+02 3.092E+02 3.646E+02 9.010E+02 9.046E+02 3.178E+06 26.0111 1.00000
  5.000E+08 5.000E+08 3.662E+00 2.526E+02 3.436E+02 4.100E+02 1.006E+03 1.010E+03 3.231E+06 26.2218 1.00000
  5.500E+08 5.500E+08 3.675E+00 2.780E+02 3.780E+02 4.560E+02 1.112E+03 1.116E+03 3.278E+06 26.4124 1.00000
  6.000E+08 6.000E+08 3.687E+00 3.033E+02 4.124E+02 5.024E+02 1.218E+03 1.222E+03 3.321E+06 26.5865 1.00000
  7.000E+08 7.000E+08 3.709E+00 3.541E+02 4.812E+02 5.967E+02 1.432E+03 1.436E+03 3.396E+06 26.8948 1.00000
  8.000E+08 8.000E+08 3.728E+00 4.048E+02 5.500E+02 6.926E+02 1.647E+03 1.651E+03 3.462E+06 27.1618 1.00000
  9.000E+08 9.000E+08 3.744E+00 4.556E+02 6.188E+02 7.899E+02 1.864E+03 1.868E+03 3.519E+06 27.3974 1.00000
  1.000E+09 1.000E+09 3.759E+00 5.064E+02 6.876E+02 8.885E+02 2.082E+03 2.086E+03 3.569E+06 27.6081 1.00000
