 Incident particle is a Muon with M = 105.65839 MeV
 Index = 0: LiquidFluorine
      Absorber with <Z/A> = 0.47372
 Sternheimer coef:  a     k=m_s   x_0    x_1    I[eV]   Cbar  delta0
                 0.1450  3.0000  0.2000  3.0000  115.0  4.1050 0.00

 *** Table generated with PUMAS v1.00 ***

      T         p     Ionization  brems     pair     photonuc  Radloss    dE/dx   CSDA Range  delta   beta
    [MeV]    [MeV/c]  -----------------------[MeV cm^2/g]------------------------  [g/cm^2]
  1.000E+00 1.457E+01 3.980E+01 8.909E-07 0.000E+00 0.000E+00 8.909E-07 3.980E+01 1.256E-02  0.0000 0.13661
  1.200E+00 1.597E+01 3.443E+01 1.022E-06 0.000E+00 0.000E+00 1.022E-06 3.443E+01 1.798E-02  0.0000 0.14944
  1.400E+00 1.726E+01 3.044E+01 1.148E-06 0.000E+00 0.000E+00 1.148E-06 3.044E+01 2.417E-02  0.0000 0.16119
  1.700E+00 1.903E+01 2.606E+01 1.327E-06 0.000E+00 0.000E+00 1.327E-06 2.606E+01 3.485E-02  0.0000 0.17725
  2.000E+00 2.066E+01 2.287E+01 1.496E-06 0.000E+00 0.000E+00 1.496E-06 2.287E+01 4.717E-02  0.0000 0.19186
  2.500E+00 2.312E+01 1.911E+01 1.761E-06 0.000E+00 0.000E+00 1.761E-06 1.911E+01 7.118E-02  0.0000 0.21376
  3.000E+00 2.536E+01 1.650E+01 2.009E-06 0.000E+00 0.000E+00 2.009E-06 1.650E+01 9.941E-02  0.0000 0.23336
  3.500E+00 2.742E+01 1.459E+01 2.243E-06 0.000E+00 0.000E+00 2.243E-06 1.459E+01 1.317E-01  0.0000 0.25120
  4.000E+00 2.935E+01 1.311E+01 2.465E-06 0.000E+00 0.000E+00 2.465E-06 1.311E+01 1.679E-01  0.0000 0.26763
  4.500E+00 3.116E+01 1.193E+01 2.676E-06 0.000E+00 0.000E+00 2.676E-06 1.193E+01 2.079E-01  0.0000 0.28290
  5.000E+00 3.289E+01 1.098E+01 2.879E-06 0.000E+00 0.000E+00 2.879E-06 1.098E+01 2.517E-01  0.0000 0.29720
  5.500E+00 3.453E+01 1.018E+01 3.074E-06 0.000E+00 0.000E+00 3.074E-06 1.018E+01 2.990E-01  0.0000 0.31066
  6.000E+00 3.611E+01 9.508E+00 3.261E-06 0.000E+00 0.000E+00 3.261E-06 9.508E+00 3.498E-01  0.0000 0.32339
  7.000E+00 3.909E+01 8.431E+00 3.618E-06 0.000E+00 0.000E+00 3.618E-06 8.431E+00 4.617E-01  0.0000 0.34700
  8.000E+00 4.189E+01 7.605E+00 3.955E-06 0.000E+00 0.000E+00 3.955E-06 7.605E+00 5.868E-01  0.0000 0.36854
  9.000E+00 4.453E+01 6.952E+00 4.274E-06 0.000E+00 0.000E+00 4.274E-06 6.952E+00 7.245E-01  0.0000 0.38836
  1.000E+01 4.704E+01 6.421E+00 4.578E-06 0.000E+00 0.000E+00 4.578E-06 6.421E+00 8.742E-01  0.0000 0.40675
  1.200E+01 5.177E+01 5.611E+00 5.149E-06 0.000E+00 0.000E+00 5.149E-06 5.611E+00 1.208E+00  0.0000 0.43998
  1.400E+01 5.616E+01 5.020E+00 5.680E-06 0.000E+00 0.000E+00 5.680E-06 5.020E+00 1.586E+00  0.0000 0.46937
  1.700E+01 6.230E+01 4.383E+00 6.421E-06 0.000E+00 0.000E+00 6.421E-06 4.383E+00 2.227E+00  0.0000 0.50792
  2.000E+01 6.802E+01 3.929E+00 7.111E-06 0.000E+00 0.000E+00 7.111E-06 3.929E+00 2.951E+00  0.0000 0.54129
  2.500E+01 7.686E+01 3.407E+00 8.182E-06 0.000E+00 0.000E+00 8.182E-06 3.407E+00 4.321E+00  0.0000 0.58827
  3.000E+01 8.509E+01 3.054E+00 9.184E-06 0.000E+00 0.000E+00 9.184E-06 3.054E+00 5.873E+00  0.0000 0.62720
  3.500E+01 9.285E+01 2.802E+00 1.014E-05 0.000E+00 0.000E+00 1.014E-05 2.802E+00 7.584E+00  0.0000 0.66011
  4.000E+01 1.003E+02 2.612E+00 1.107E-05 0.000E+00 0.000E+00 1.107E-05 2.612E+00 9.434E+00  0.0000 0.68834
  4.500E+01 1.074E+02 2.465E+00 1.198E-05 0.000E+00 0.000E+00 1.198E-05 2.465E+00 1.141E+01  0.0000 0.71286
  5.000E+01 1.143E+02 2.348E+00 1.288E-05 0.000E+00 0.000E+00 1.288E-05 2.348E+00 1.348E+01  0.0000 0.73434
  5.500E+01 1.210E+02 2.253E+00 1.377E-05 0.000E+00 0.000E+00 1.377E-05 2.253E+00 1.566E+01  0.0000 0.75332
  6.000E+01 1.276E+02 2.175E+00 1.466E-05 0.000E+00 0.000E+00 1.466E-05 2.175E+00 1.792E+01  0.0000 0.77019
  7.000E+01 1.403E+02 2.055E+00 1.644E-05 0.000E+00 0.000E+00 1.644E-05 2.055E+00 2.265E+01  0.0000 0.79887
  8.000E+01 1.527E+02 1.968E+00 1.823E-05 0.000E+00 0.000E+00 1.823E-05 1.968E+00 2.762E+01  0.0000 0.82227
  9.000E+01 1.647E+02 1.902E+00 2.005E-05 0.000E+00 0.000E+00 2.005E-05 1.902E+00 3.279E+01  0.0000 0.84166
  1.000E+02 1.764E+02 1.850E+00 2.189E-05 0.000E+00 0.000E+00 2.189E-05 1.850E+00 3.812E+01  0.0268 0.85794
  1.200E+02 1.994E+02 1.775E+00 2.567E-05 0.000E+00 0.000E+00 2.567E-05 1.775E+00 4.917E+01  0.0966 0.88361
  1.400E+02 2.218E+02 1.726E+00 2.958E-05 0.000E+00 0.000E+00 2.958E-05 1.726E+00 6.059E+01  0.1627 0.90278
  1.700E+02 2.546E+02 1.681E+00 3.571E-05 5.319E-14 0.000E+00 3.571E-05 1.682E+00 7.820E+01  0.2559 0.92363
  2.000E+02 2.868E+02 1.657E+00 4.214E-05 1.190E-11 0.000E+00 4.214E-05 1.657E+00 9.618E+01  0.3430 0.93835
  2.500E+02 3.396E+02 1.638E+00 5.349E-05 9.731E-08 0.000E+00 5.359E-05 1.638E+00 1.265E+02  0.4766 0.95485
  3.000E+02 3.917E+02 1.634E+00 6.557E-05 8.779E-07 0.000E+00 6.645E-05 1.634E+00 1.571E+02  0.5985 0.96548
  3.500E+02 4.432E+02 1.637E+00 7.833E-05 2.426E-06 0.000E+00 8.076E-05 1.637E+00 1.877E+02  0.7109 0.97274
  4.000E+02 4.945E+02 1.643E+00 9.170E-05 4.708E-06 0.000E+00 9.641E-05 1.643E+00 2.182E+02  0.8152 0.97793
  4.500E+02 5.455E+02 1.651E+00 1.056E-04 7.697E-06 0.000E+00 1.133E-04 1.651E+00 2.485E+02  0.9127 0.98176
  5.000E+02 5.964E+02 1.660E+00 1.201E-04 1.137E-05 0.000E+00 1.315E-04 1.660E+00 2.787E+02  1.0044 0.98467
  5.500E+02 6.471E+02 1.670E+00 1.351E-04 1.569E-05 0.000E+00 1.508E-04 1.670E+00 3.087E+02  1.0909 0.98693
  6.000E+02 6.977E+02 1.679E+00 1.505E-04 2.066E-05 0.000E+00 1.711E-04 1.680E+00 3.386E+02  1.1729 0.98873
  7.000E+02 7.987E+02 1.698E+00 1.826E-04 3.241E-05 0.000E+00 2.150E-04 1.698E+00 3.978E+02  1.3251 0.99136
  8.000E+02 8.995E+02 1.716E+00 2.162E-04 4.645E-05 0.000E+00 2.626E-04 1.716E+00 4.564E+02  1.4642 0.99317
  9.000E+02 1.000E+03 1.733E+00 2.512E-04 6.265E-05 0.000E+00 3.139E-04 1.733E+00 5.144E+02  1.5923 0.99447
  1.000E+03 1.101E+03 1.748E+00 2.875E-04 8.086E-05 0.000E+00 3.684E-04 1.748E+00 5.718E+02  1.7112 0.99542
  1.200E+03 1.301E+03 1.776E+00 3.635E-04 1.229E-04 2.254E-05 5.089E-04 1.776E+00 6.853E+02  1.9265 0.99672
  1.400E+03 1.502E+03 1.800E+00 4.436E-04 1.717E-04 6.164E-05 6.770E-04 1.801E+00 7.971E+02  2.1176 0.99753
  1.700E+03 1.803E+03 1.831E+00 5.702E-04 2.564E-04 1.320E-04 9.586E-04 1.832E+00 9.623E+02  2.3699 0.99829
  2.000E+03 2.103E+03 1.857E+00 7.037E-04 3.531E-04 2.148E-04 1.272E-03 1.859E+00 1.125E+03  2.5905 0.99874
  2.500E+03 2.604E+03 1.893E+00 9.390E-04 5.375E-04 3.749E-04 1.851E-03 1.895E+00 1.391E+03  2.9071 0.99918
  3.000E+03 3.104E+03 1.922E+00 1.188E-03 7.470E-04 5.431E-04 2.478E-03 1.925E+00 1.653E+03  3.1768 0.99942
  3.500E+03 3.604E+03 1.947E+00 1.448E-03 9.780E-04 7.213E-04 3.148E-03 1.950E+00 1.911E+03  3.4121 0.99957
  4.000E+03 4.104E+03 1.967E+00 1.719E-03 1.241E-03 9.117E-04 3.871E-03 1.971E+00 2.166E+03  3.6212 0.99967
  4.500E+03 4.604E+03 1.985E+00 1.998E-03 1.527E-03 1.110E-03 4.635E-03 1.990E+00 2.419E+03  3.8095 0.99974
  5.000E+03 5.105E+03 2.001E+00 2.286E-03 1.829E-03 1.300E-03 5.415E-03 2.007E+00 2.669E+03  3.9808 0.99979
  5.500E+03 5.605E+03 2.016E+00 2.580E-03 2.147E-03 1.506E-03 6.233E-03 2.022E+00 2.917E+03  4.1381 0.99982
  6.000E+03 6.105E+03 2.029E+00 2.881E-03 2.479E-03 1.697E-03 7.057E-03 2.036E+00 3.164E+03  4.2835 0.99985
  7.000E+03 7.105E+03 2.051E+00 3.502E-03 3.181E-03 2.103E-03 8.785E-03 2.060E+00 3.652E+03  4.5453 0.99989
  8.000E+03 8.105E+03 2.070E+00 4.143E-03 3.928E-03 2.506E-03 1.058E-02 2.081E+00 4.135E+03  4.7761 0.99992
  9.000E+03 9.105E+03 2.086E+00 4.803E-03 4.714E-03 2.885E-03 1.240E-02 2.099E+00 4.614E+03  4.9827 0.99993
  1.000E+04 1.011E+04 2.101E+00 5.480E-03 5.536E-03 3.277E-03 1.429E-02 2.115E+00 5.088E+03  5.1698 0.99995
  1.200E+04 1.211E+04 2.125E+00 6.876E-03 7.272E-03 4.072E-03 1.822E-02 2.144E+00 6.028E+03  5.4982 0.99996
  1.400E+04 1.411E+04 2.146E+00 8.323E-03 9.114E-03 4.869E-03 2.231E-02 2.168E+00 6.955E+03  5.7802 0.99997
  1.700E+04 1.711E+04 2.170E+00 1.057E-02 1.204E-02 6.051E-03 2.867E-02 2.199E+00 8.329E+03  6.1406 0.99998
  2.000E+04 2.011E+04 2.190E+00 1.290E-02 1.514E-02 7.212E-03 3.525E-02 2.225E+00 9.686E+03  6.4463 0.99999
  2.500E+04 2.511E+04 2.217E+00 1.693E-02 2.060E-02 9.121E-03 4.665E-02 2.263E+00 1.191E+04  6.8715 0.99999
  3.000E+04 3.011E+04 2.238E+00 2.111E-02 2.636E-02 1.100E-02 5.846E-02 2.296E+00 1.411E+04  7.2230 0.99999
  3.500E+04 3.511E+04 2.255E+00 2.541E-02 3.236E-02 1.289E-02 7.067E-02 2.326E+00 1.627E+04  7.5227 1.00000
  4.000E+04 4.011E+04 2.270E+00 2.981E-02 3.857E-02 1.477E-02 8.316E-02 2.353E+00 1.841E+04  7.7839 1.00000
  4.500E+04 4.511E+04 2.282E+00 3.431E-02 4.496E-02 1.663E-02 9.590E-02 2.378E+00 2.052E+04  8.0154 1.00000
  5.000E+04 5.011E+04 2.294E+00 3.889E-02 5.150E-02 1.848E-02 1.089E-01 2.402E+00 2.261E+04  8.2233 1.00000
  5.500E+04 5.511E+04 2.304E+00 4.353E-02 5.817E-02 2.035E-02 1.221E-01 2.426E+00 2.468E+04  8.4119 1.00000
  6.000E+04 6.011E+04 2.313E+00 4.824E-02 6.496E-02 2.220E-02 1.354E-01 2.448E+00 2.674E+04  8.5844 1.00000
  7.000E+04 7.011E+04 2.328E+00 5.783E-02 7.885E-02 2.588E-02 1.626E-01 2.491E+00 3.079E+04  8.8909 1.00000
  8.000E+04 8.011E+04 2.342E+00 6.762E-02 9.308E-02 2.956E-02 1.903E-01 2.532E+00 3.477E+04  9.1570 1.00000
  9.000E+04 9.011E+04 2.354E+00 7.757E-02 1.076E-01 3.325E-02 2.184E-01 2.572E+00 3.869E+04  9.3921 1.00000
  1.000E+05 1.001E+05 2.364E+00 8.768E-02 1.224E-01 3.688E-02 2.469E-01 2.611E+00 4.255E+04  9.6025 1.00000
  1.200E+05 1.201E+05 2.382E+00 1.083E-01 1.526E-01 4.426E-02 3.051E-01 2.687E+00 5.010E+04  9.9668 1.00000
  1.400E+05 1.401E+05 2.397E+00 1.293E-01 1.834E-01 5.164E-02 3.643E-01 2.762E+00 5.744E+04 10.2749 1.00000
  1.700E+05 1.701E+05 2.416E+00 1.614E-01 2.307E-01 6.273E-02 4.549E-01 2.871E+00 6.809E+04 10.6629 1.00000
  2.000E+05 2.001E+05 2.432E+00 1.942E-01 2.790E-01 7.388E-02 5.470E-01 2.979E+00 7.835E+04 10.9878 1.00000
  2.500E+05 2.501E+05 2.454E+00 2.500E-01 3.609E-01 9.254E-02 7.034E-01 3.157E+00 9.466E+04 11.4339 1.00000
  3.000E+05 3.001E+05 2.471E+00 3.068E-01 4.443E-01 1.114E-01 8.625E-01 3.334E+00 1.101E+05 11.7984 1.00000
  3.500E+05 3.501E+05 2.486E+00 3.645E-01 5.288E-01 1.304E-01 1.024E+00 3.510E+00 1.247E+05 12.1066 1.00000
  4.000E+05 4.001E+05 2.499E+00 4.229E-01 6.142E-01 1.495E-01 1.187E+00 3.686E+00 1.386E+05 12.3735 1.00000
  4.500E+05 4.501E+05 2.511E+00 4.819E-01 7.003E-01 1.688E-01 1.351E+00 3.862E+00 1.519E+05 12.6091 1.00000
  5.000E+05 5.001E+05 2.521E+00 5.414E-01 7.870E-01 1.882E-01 1.517E+00 4.038E+00 1.645E+05 12.8197 1.00000
  5.500E+05 5.501E+05 2.530E+00 6.014E-01 8.742E-01 2.075E-01 1.683E+00 4.214E+00 1.767E+05 13.0103 1.00000
  6.000E+05 6.001E+05 2.539E+00 6.618E-01 9.619E-01 2.268E-01 1.851E+00 4.389E+00 1.883E+05 13.1843 1.00000
  7.000E+05 7.001E+05 2.554E+00 7.836E-01 1.138E+00 2.660E-01 2.188E+00 4.742E+00 2.102E+05 13.4926 1.00000
  8.000E+05 8.001E+05 2.567E+00 9.065E-01 1.316E+00 3.055E-01 2.528E+00 5.095E+00 2.306E+05 13.7596 1.00000
  9.000E+05 9.001E+05 2.579E+00 1.030E+00 1.494E+00 3.454E-01 2.870E+00 5.449E+00 2.496E+05 13.9951 1.00000
  1.000E+06 1.000E+06 2.589E+00 1.155E+00 1.673E+00 3.857E-01 3.214E+00 5.803E+00 2.674E+05 14.2058 1.00000
  1.200E+06 1.200E+06 2.607E+00 1.406E+00 2.033E+00 4.673E-01 3.907E+00 6.514E+00 2.999E+05 14.5704 1.00000
  1.400E+06 1.400E+06 2.623E+00 1.660E+00 2.395E+00 5.500E-01 4.605E+00 7.228E+00 3.291E+05 14.8787 1.00000
  1.700E+06 1.700E+06 2.642E+00 2.043E+00 2.941E+00 6.760E-01 5.660E+00 8.302E+00 3.679E+05 15.2670 1.00000
  2.000E+06 2.000E+06 2.659E+00 2.429E+00 3.489E+00 8.041E-01 6.722E+00 9.381E+00 4.020E+05 15.5920 1.00000
  2.500E+06 2.500E+06 2.682E+00 3.077E+00 4.407E+00 1.021E+00 8.505E+00 1.119E+01 4.510E+05 16.0383 1.00000
  3.000E+06 3.000E+06 2.700E+00 3.730E+00 5.327E+00 1.243E+00 1.030E+01 1.300E+01 4.926E+05 16.4029 1.00000
  3.500E+06 3.500E+06 2.716E+00 4.386E+00 6.250E+00 1.468E+00 1.210E+01 1.482E+01 5.287E+05 16.7112 1.00000
  4.000E+06 4.000E+06 2.730E+00 5.045E+00 7.175E+00 1.697E+00 1.392E+01 1.665E+01 5.606E+05 16.9782 1.00000
  4.500E+06 4.500E+06 2.743E+00 5.705E+00 8.101E+00 1.928E+00 1.573E+01 1.848E+01 5.891E+05 17.2138 1.00000
  5.000E+06 5.000E+06 2.754E+00 6.368E+00 9.028E+00 2.162E+00 1.756E+01 2.031E+01 6.150E+05 17.4245 1.00000
  5.500E+06 5.500E+06 2.764E+00 7.032E+00 9.957E+00 2.398E+00 1.939E+01 2.215E+01 6.386E+05 17.6151 1.00000
  6.000E+06 6.000E+06 2.773E+00 7.698E+00 1.089E+01 2.637E+00 2.122E+01 2.399E+01 6.603E+05 17.7892 1.00000
  7.000E+06 7.000E+06 2.789E+00 9.032E+00 1.275E+01 3.120E+00 2.490E+01 2.769E+01 6.992E+05 18.0974 1.00000
  8.000E+06 8.000E+06 2.804E+00 1.037E+01 1.461E+01 3.610E+00 2.859E+01 3.139E+01 7.331E+05 18.3645 1.00000
  9.000E+06 9.000E+06 2.816E+00 1.171E+01 1.647E+01 4.106E+00 3.229E+01 3.510E+01 7.633E+05 18.6001 1.00000
  1.000E+07 1.000E+07 2.828E+00 1.305E+01 1.834E+01 4.609E+00 3.600E+01 3.883E+01 7.904E+05 18.8108 1.00000
  1.200E+07 1.200E+07 2.848E+00 1.574E+01 2.207E+01 5.629E+00 4.344E+01 4.629E+01 8.378E+05 19.1754 1.00000
  1.400E+07 1.400E+07 2.865E+00 1.844E+01 2.581E+01 6.668E+00 5.091E+01 5.378E+01 8.780E+05 19.4837 1.00000
  1.700E+07 1.700E+07 2.886E+00 2.249E+01 3.141E+01 8.255E+00 6.216E+01 6.505E+01 9.289E+05 19.8720 1.00000
  2.000E+07 2.000E+07 2.904E+00 2.655E+01 3.703E+01 9.873E+00 7.345E+01 7.635E+01 9.717E+05 20.1971 1.00000
  2.500E+07 2.500E+07 2.930E+00 3.332E+01 4.638E+01 1.263E+01 9.234E+01 9.526E+01 1.031E+06 20.6434 1.00000
  3.000E+07 3.000E+07 2.950E+00 4.011E+01 5.575E+01 1.544E+01 1.113E+02 1.142E+02 1.079E+06 21.0080 1.00000
  3.500E+07 3.500E+07 2.968E+00 4.690E+01 6.511E+01 1.831E+01 1.303E+02 1.333E+02 1.119E+06 21.3163 1.00000
  4.000E+07 4.000E+07 2.983E+00 5.370E+01 7.448E+01 2.122E+01 1.494E+02 1.524E+02 1.155E+06 21.5834 1.00000
  4.500E+07 4.500E+07 2.997E+00 6.050E+01 8.385E+01 2.418E+01 1.685E+02 1.715E+02 1.186E+06 21.8189 1.00000
  5.000E+07 5.000E+07 3.009E+00 6.730E+01 9.322E+01 2.717E+01 1.877E+02 1.907E+02 1.213E+06 22.0296 1.00000
  5.500E+07 5.500E+07 3.021E+00 7.411E+01 1.026E+02 3.019E+01 2.069E+02 2.099E+02 1.238E+06 22.2203 1.00000
  6.000E+07 6.000E+07 3.031E+00 8.092E+01 1.120E+02 3.324E+01 2.261E+02 2.292E+02 1.261E+06 22.3943 1.00000
  7.000E+07 7.000E+07 3.049E+00 9.454E+01 1.307E+02 3.944E+01 2.647E+02 2.677E+02 1.302E+06 22.7026 1.00000
  8.000E+07 8.000E+07 3.065E+00 1.082E+02 1.495E+02 4.573E+01 3.034E+02 3.064E+02 1.337E+06 22.9697 1.00000
  9.000E+07 9.000E+07 3.079E+00 1.218E+02 1.682E+02 5.211E+01 3.421E+02 3.452E+02 1.367E+06 23.2052 1.00000
  1.000E+08 1.000E+08 3.092E+00 1.354E+02 1.870E+02 5.857E+01 3.810E+02 3.841E+02 1.395E+06 23.4159 1.00000
  1.200E+08 1.200E+08 3.114E+00 1.627E+02 2.245E+02 7.171E+01 4.589E+02 4.620E+02 1.443E+06 23.7806 1.00000
  1.400E+08 1.400E+08 3.133E+00 1.900E+02 2.620E+02 8.511E+01 5.371E+02 5.403E+02 1.483E+06 24.0889 1.00000
  1.700E+08 1.700E+08 3.157E+00 2.310E+02 3.183E+02 1.056E+02 6.548E+02 6.580E+02 1.533E+06 24.4772 1.00000
  2.000E+08 2.000E+08 3.177E+00 2.719E+02 3.746E+02 1.265E+02 7.730E+02 7.762E+02 1.575E+06 24.8022 1.00000
  2.500E+08 2.500E+08 3.205E+00 3.402E+02 4.684E+02 1.622E+02 9.707E+02 9.739E+02 1.633E+06 25.2485 1.00000
  3.000E+08 3.000E+08 3.229E+00 4.085E+02 5.622E+02 1.986E+02 1.169E+03 1.172E+03 1.680E+06 25.6132 1.00000
  3.500E+08 3.500E+08 3.248E+00 4.767E+02 6.560E+02 2.358E+02 1.369E+03 1.372E+03 1.720E+06 25.9215 1.00000
  4.000E+08 4.000E+08 3.266E+00 5.450E+02 7.498E+02 2.736E+02 1.568E+03 1.572E+03 1.754E+06 26.1885 1.00000
  4.500E+08 4.500E+08 3.281E+00 6.133E+02 8.436E+02 3.120E+02 1.769E+03 1.772E+03 1.784E+06 26.4241 1.00000
  5.000E+08 5.000E+08 3.295E+00 6.816E+02 9.374E+02 3.509E+02 1.970E+03 1.973E+03 1.811E+06 26.6348 1.00000
  5.500E+08 5.500E+08 3.307E+00 7.500E+02 1.031E+03 3.902E+02 2.171E+03 2.175E+03 1.835E+06 26.8254 1.00000
  6.000E+08 6.000E+08 3.319E+00 8.183E+02 1.125E+03 4.300E+02 2.373E+03 2.377E+03 1.857E+06 26.9995 1.00000
  7.000E+08 7.000E+08 3.339E+00 9.549E+02 1.313E+03 5.107E+02 2.778E+03 2.781E+03 1.896E+06 27.3078 1.00000
  8.000E+08 8.000E+08 3.357E+00 1.092E+03 1.500E+03 5.927E+02 3.184E+03 3.188E+03 1.930E+06 27.5748 1.00000
  9.000E+08 9.000E+08 3.373E+00 1.228E+03 1.688E+03 6.760E+02 3.592E+03 3.595E+03 1.959E+06 27.8104 1.00000
  1.000E+09 1.000E+09 3.387E+00 1.365E+03 1.875E+03 7.603E+02 4.001E+03 4.004E+03 1.986E+06 28.0211 1.00000
