 Incident particle is a Muon with M = 105.65839 MeV
 Index = 0: LiquidArgon
      Absorber with <Z/A> = 0.45058
 Sternheimer coef:  a     k=m_s   x_0    x_1    I[eV]   Cbar  delta0
                 0.1956  3.0000  0.2000  3.0000  188.0  5.2146 0.00

 *** Table generated with PUMAS v1.00 ***

      T         p     Ionization  brems     pair     photonuc  Radloss    dE/dx   CSDA Range  delta   beta
    [MeV]    [MeV/c]  -----------------------[MeV cm^2/g]------------------------  [g/cm^2]
  1.000E+00 1.457E+01 3.421E+01 1.583E-06 0.000E+00 0.000E+00 1.583E-06 3.421E+01 1.461E-02  0.0000 0.13661
  1.200E+00 1.597E+01 2.970E+01 1.819E-06 0.000E+00 0.000E+00 1.819E-06 2.970E+01 2.090E-02  0.0000 0.14944
  1.400E+00 1.726E+01 2.634E+01 2.044E-06 0.000E+00 0.000E+00 2.044E-06 2.634E+01 2.807E-02  0.0000 0.16119
  1.700E+00 1.903E+01 2.262E+01 2.364E-06 0.000E+00 0.000E+00 2.364E-06 2.262E+01 4.039E-02  0.0000 0.17725
  2.000E+00 2.066E+01 1.990E+01 2.666E-06 0.000E+00 0.000E+00 2.666E-06 1.990E+01 5.456E-02  0.0000 0.19186
  2.500E+00 2.312E+01 1.669E+01 3.138E-06 0.000E+00 0.000E+00 3.138E-06 1.669E+01 8.210E-02  0.0000 0.21376
  3.000E+00 2.536E+01 1.445E+01 3.577E-06 0.000E+00 0.000E+00 3.577E-06 1.445E+01 1.144E-01  0.0000 0.23336
  3.500E+00 2.742E+01 1.279E+01 3.989E-06 0.000E+00 0.000E+00 3.989E-06 1.279E+01 1.512E-01  0.0000 0.25120
  4.000E+00 2.935E+01 1.152E+01 4.380E-06 0.000E+00 0.000E+00 4.380E-06 1.152E+01 1.925E-01  0.0000 0.26763
  4.500E+00 3.116E+01 1.050E+01 4.751E-06 0.000E+00 0.000E+00 4.751E-06 1.050E+01 2.380E-01  0.0000 0.28290
  5.000E+00 3.289E+01 9.670E+00 5.106E-06 0.000E+00 0.000E+00 5.106E-06 9.670E+00 2.876E-01  0.0000 0.29720
  5.500E+00 3.453E+01 8.979E+00 5.446E-06 0.000E+00 0.000E+00 5.446E-06 8.979E+00 3.413E-01  0.0000 0.31066
  6.000E+00 3.611E+01 8.393E+00 5.774E-06 0.000E+00 0.000E+00 5.774E-06 8.393E+00 3.990E-01  0.0000 0.32339
  7.000E+00 3.909E+01 7.454E+00 6.395E-06 0.000E+00 0.000E+00 6.395E-06 7.454E+00 5.256E-01  0.0000 0.34700
  8.000E+00 4.189E+01 6.733E+00 6.979E-06 0.000E+00 0.000E+00 6.979E-06 6.733E+00 6.670E-01  0.0000 0.36854
  9.000E+00 4.453E+01 6.162E+00 7.531E-06 0.000E+00 0.000E+00 7.531E-06 6.162E+00 8.224E-01  0.0000 0.38836
  1.000E+01 4.704E+01 5.697E+00 8.056E-06 0.000E+00 0.000E+00 8.056E-06 5.697E+00 9.913E-01  0.0000 0.40675
  1.200E+01 5.177E+01 4.985E+00 9.039E-06 0.000E+00 0.000E+00 9.039E-06 4.985E+00 1.367E+00  0.0000 0.43998
  1.400E+01 5.616E+01 4.466E+00 9.952E-06 0.000E+00 0.000E+00 9.952E-06 4.466E+00 1.792E+00  0.0000 0.46937
  1.700E+01 6.230E+01 3.905E+00 1.122E-05 0.000E+00 0.000E+00 1.122E-05 3.905E+00 2.512E+00  0.0000 0.50792
  2.000E+01 6.802E+01 3.505E+00 1.240E-05 0.000E+00 0.000E+00 1.240E-05 3.505E+00 3.324E+00  0.0000 0.54129
  2.500E+01 7.686E+01 3.044E+00 1.423E-05 0.000E+00 0.000E+00 1.423E-05 3.044E+00 4.859E+00  0.0000 0.58827
  3.000E+01 8.509E+01 2.732E+00 1.594E-05 0.000E+00 0.000E+00 1.594E-05 2.732E+00 6.595E+00  0.0000 0.62720
  3.500E+01 9.285E+01 2.509E+00 1.757E-05 0.000E+00 0.000E+00 1.757E-05 2.509E+00 8.507E+00  0.0000 0.66011
  4.000E+01 1.003E+02 2.341E+00 1.916E-05 0.000E+00 0.000E+00 1.916E-05 2.341E+00 1.057E+01  0.0000 0.68834
  4.500E+01 1.074E+02 2.211E+00 2.072E-05 0.000E+00 0.000E+00 2.072E-05 2.211E+00 1.277E+01  0.0000 0.71286
  5.000E+01 1.143E+02 2.107E+00 2.225E-05 0.000E+00 0.000E+00 2.225E-05 2.107E+00 1.509E+01  0.0000 0.73434
  5.500E+01 1.210E+02 2.023E+00 2.378E-05 0.000E+00 0.000E+00 2.378E-05 2.023E+00 1.751E+01  0.0000 0.75332
  6.000E+01 1.276E+02 1.954E+00 2.531E-05 0.000E+00 0.000E+00 2.531E-05 1.954E+00 2.002E+01  0.0000 0.77019
  7.000E+01 1.403E+02 1.848E+00 2.836E-05 0.000E+00 0.000E+00 2.836E-05 1.848E+00 2.529E+01  0.0000 0.79887
  8.000E+01 1.527E+02 1.771E+00 3.144E-05 0.000E+00 0.000E+00 3.144E-05 1.771E+00 3.082E+01  0.0000 0.82227
  9.000E+01 1.647E+02 1.713E+00 3.457E-05 0.000E+00 0.000E+00 3.457E-05 1.713E+00 3.656E+01  0.0000 0.84166
  1.000E+02 1.764E+02 1.670E+00 3.774E-05 0.000E+00 0.000E+00 3.774E-05 1.670E+00 4.247E+01  0.0012 0.85794
  1.200E+02 1.994E+02 1.609E+00 4.427E-05 0.000E+00 0.000E+00 4.427E-05 1.609E+00 5.468E+01  0.0100 0.88361
  1.400E+02 2.218E+02 1.570E+00 5.104E-05 0.000E+00 0.000E+00 5.104E-05 1.570E+00 6.726E+01  0.0249 0.90278
  1.700E+02 2.546E+02 1.536E+00 6.167E-05 0.000E+00 0.000E+00 6.167E-05 1.536E+00 8.658E+01  0.0543 0.92363
  2.000E+02 2.868E+02 1.518E+00 7.283E-05 0.000E+00 0.000E+00 7.283E-05 1.519E+00 1.062E+02  0.0886 0.93835
  2.500E+02 3.396E+02 1.508E+00 9.259E-05 8.375E-08 0.000E+00 9.267E-05 1.508E+00 1.393E+02  0.1509 0.95485
  3.000E+02 3.917E+02 1.509E+00 1.137E-04 1.561E-06 0.000E+00 1.152E-04 1.510E+00 1.724E+02  0.2159 0.96548
  3.500E+02 4.432E+02 1.516E+00 1.359E-04 4.430E-06 0.000E+00 1.404E-04 1.516E+00 2.055E+02  0.2811 0.97274
  4.000E+02 4.945E+02 1.526E+00 1.593E-04 8.695E-06 0.000E+00 1.680E-04 1.526E+00 2.383E+02  0.3454 0.97793
  4.500E+02 5.455E+02 1.536E+00 1.837E-04 1.430E-05 0.000E+00 1.980E-04 1.536E+00 2.710E+02  0.4085 0.98176
  5.000E+02 5.964E+02 1.547E+00 2.090E-04 2.119E-05 0.000E+00 2.302E-04 1.547E+00 3.034E+02  0.4699 0.98467
  5.500E+02 6.471E+02 1.558E+00 2.353E-04 2.934E-05 0.000E+00 2.646E-04 1.559E+00 3.356E+02  0.5297 0.98693
  6.000E+02 6.977E+02 1.569E+00 2.623E-04 3.869E-05 0.000E+00 3.010E-04 1.569E+00 3.676E+02  0.5877 0.98873
  7.000E+02 7.987E+02 1.590E+00 3.187E-04 6.084E-05 0.000E+00 3.795E-04 1.590E+00 4.309E+02  0.6987 0.99136
  8.000E+02 8.995E+02 1.610E+00 3.778E-04 8.734E-05 0.000E+00 4.652E-04 1.610E+00 4.934E+02  0.8033 0.99317
  9.000E+02 1.000E+03 1.627E+00 4.395E-04 1.179E-04 0.000E+00 5.574E-04 1.628E+00 5.551E+02  0.9022 0.99447
  1.000E+03 1.101E+03 1.644E+00 5.034E-04 1.523E-04 0.000E+00 6.557E-04 1.645E+00 6.162E+02  0.9958 0.99542
  1.200E+03 1.301E+03 1.673E+00 6.375E-04 2.317E-04 2.251E-05 8.917E-04 1.674E+00 7.368E+02  1.1692 0.99672
  1.400E+03 1.502E+03 1.699E+00 7.788E-04 3.241E-04 6.138E-05 1.164E-03 1.700E+00 8.553E+02  1.3270 0.99753
  1.700E+03 1.803E+03 1.731E+00 1.003E-03 4.841E-04 1.309E-04 1.618E-03 1.733E+00 1.030E+03  1.5399 0.99829
  2.000E+03 2.103E+03 1.758E+00 1.239E-03 6.669E-04 2.124E-04 2.118E-03 1.760E+00 1.202E+03  1.7300 0.99874
  2.500E+03 2.604E+03 1.795E+00 1.655E-03 1.016E-03 3.693E-04 3.040E-03 1.798E+00 1.483E+03  2.0080 0.99918
  3.000E+03 3.104E+03 1.824E+00 2.096E-03 1.412E-03 5.332E-04 4.041E-03 1.829E+00 1.759E+03  2.2491 0.99942
  3.500E+03 3.604E+03 1.849E+00 2.557E-03 1.848E-03 7.062E-04 5.111E-03 1.854E+00 2.030E+03  2.4623 0.99957
  4.000E+03 4.104E+03 1.870E+00 3.036E-03 2.333E-03 8.906E-04 6.259E-03 1.876E+00 2.298E+03  2.6536 0.99967
  4.500E+03 4.604E+03 1.888E+00 3.531E-03 2.854E-03 1.082E-03 7.467E-03 1.896E+00 2.564E+03  2.8273 0.99974
  5.000E+03 5.105E+03 1.904E+00 4.039E-03 3.406E-03 1.266E-03 8.711E-03 1.913E+00 2.826E+03  2.9865 0.99979
  5.500E+03 5.605E+03 1.919E+00 4.561E-03 3.985E-03 1.463E-03 1.001E-02 1.929E+00 3.086E+03  3.1334 0.99982
  6.000E+03 6.105E+03 1.932E+00 5.094E-03 4.589E-03 1.647E-03 1.133E-02 1.943E+00 3.345E+03  3.2700 0.99985
  7.000E+03 7.105E+03 1.954E+00 6.192E-03 5.864E-03 2.037E-03 1.409E-02 1.968E+00 3.856E+03  3.5172 0.99989
  8.000E+03 8.105E+03 1.973E+00 7.327E-03 7.219E-03 2.423E-03 1.697E-02 1.990E+00 4.361E+03  3.7367 0.99992
  9.000E+03 9.105E+03 1.989E+00 8.494E-03 8.643E-03 2.785E-03 1.992E-02 2.009E+00 4.862E+03  3.9342 0.99993
  1.000E+04 1.011E+04 2.003E+00 9.690E-03 1.013E-02 3.159E-03 2.298E-02 2.026E+00 5.357E+03  4.1138 0.99995
  1.200E+04 1.211E+04 2.027E+00 1.216E-02 1.327E-02 3.917E-03 2.934E-02 2.057E+00 6.337E+03  4.4307 0.99996
  1.400E+04 1.411E+04 2.047E+00 1.471E-02 1.659E-02 4.675E-03 3.597E-02 2.083E+00 7.303E+03  4.7044 0.99997
  1.700E+04 1.711E+04 2.071E+00 1.868E-02 2.186E-02 5.798E-03 4.634E-02 2.118E+00 8.732E+03  5.0560 0.99998
  2.000E+04 2.011E+04 2.091E+00 2.279E-02 2.741E-02 6.898E-03 5.710E-02 2.148E+00 1.014E+04  5.3557 0.99999
  2.500E+04 2.511E+04 2.116E+00 2.988E-02 3.719E-02 8.703E-03 7.577E-02 2.192E+00 1.244E+04  5.7742 0.99999
  3.000E+04 3.011E+04 2.137E+00 3.722E-02 4.749E-02 1.047E-02 9.519E-02 2.232E+00 1.470E+04  6.1216 0.99999
  3.500E+04 3.511E+04 2.153E+00 4.478E-02 5.820E-02 1.226E-02 1.152E-01 2.268E+00 1.693E+04  6.4186 1.00000
  4.000E+04 4.011E+04 2.167E+00 5.251E-02 6.926E-02 1.403E-02 1.358E-01 2.303E+00 1.911E+04  6.6781 1.00000
  4.500E+04 4.511E+04 2.179E+00 6.040E-02 8.062E-02 1.577E-02 1.568E-01 2.336E+00 2.127E+04  6.9084 1.00000
  5.000E+04 5.011E+04 2.190E+00 6.842E-02 9.223E-02 1.752E-02 1.782E-01 2.368E+00 2.339E+04  7.1154 1.00000
  5.500E+04 5.511E+04 2.200E+00 7.655E-02 1.041E-01 1.927E-02 1.999E-01 2.400E+00 2.549E+04  7.3034 1.00000
  6.000E+04 6.011E+04 2.208E+00 8.480E-02 1.161E-01 2.101E-02 2.219E-01 2.430E+00 2.756E+04  7.4756 1.00000
  7.000E+04 7.011E+04 2.223E+00 1.016E-01 1.407E-01 2.445E-02 2.667E-01 2.490E+00 3.163E+04  7.7816 1.00000
  8.000E+04 8.011E+04 2.236E+00 1.187E-01 1.658E-01 2.791E-02 3.124E-01 2.549E+00 3.560E+04  8.0475 1.00000
  9.000E+04 9.011E+04 2.248E+00 1.361E-01 1.914E-01 3.136E-02 3.588E-01 2.606E+00 3.948E+04  8.2825 1.00000
  1.000E+05 1.001E+05 2.258E+00 1.537E-01 2.174E-01 3.475E-02 4.059E-01 2.663E+00 4.327E+04  8.4929 1.00000
  1.200E+05 1.201E+05 2.275E+00 1.895E-01 2.705E-01 4.165E-02 5.017E-01 2.776E+00 5.063E+04  8.8572 1.00000
  1.400E+05 1.401E+05 2.289E+00 2.261E-01 3.246E-01 4.854E-02 5.993E-01 2.888E+00 5.769E+04  9.1653 1.00000
  1.700E+05 1.701E+05 2.307E+00 2.820E-01 4.074E-01 5.890E-02 7.484E-01 3.055E+00 6.780E+04  9.5533 1.00000
  2.000E+05 2.001E+05 2.322E+00 3.390E-01 4.917E-01 6.930E-02 9.000E-01 3.222E+00 7.736E+04  9.8782 1.00000
  2.500E+05 2.501E+05 2.343E+00 4.357E-01 6.346E-01 8.670E-02 1.157E+00 3.500E+00 9.226E+04 10.3243 1.00000
  3.000E+05 3.001E+05 2.359E+00 5.341E-01 7.798E-01 1.042E-01 1.418E+00 3.778E+00 1.060E+05 10.6888 1.00000
  3.500E+05 3.501E+05 2.374E+00 6.339E-01 9.267E-01 1.220E-01 1.683E+00 4.056E+00 1.188E+05 10.9970 1.00000
  4.000E+05 4.001E+05 2.386E+00 7.349E-01 1.075E+00 1.398E-01 1.950E+00 4.336E+00 1.307E+05 11.2639 1.00000
  4.500E+05 4.501E+05 2.397E+00 8.368E-01 1.224E+00 1.577E-01 2.219E+00 4.616E+00 1.419E+05 11.4995 1.00000
  5.000E+05 5.001E+05 2.407E+00 9.395E-01 1.374E+00 1.758E-01 2.490E+00 4.896E+00 1.524E+05 11.7101 1.00000
  5.500E+05 5.501E+05 2.416E+00 1.043E+00 1.525E+00 1.937E-01 2.762E+00 5.178E+00 1.624E+05 11.9007 1.00000
  6.000E+05 6.001E+05 2.424E+00 1.147E+00 1.677E+00 2.117E-01 3.036E+00 5.459E+00 1.718E+05 12.0747 1.00000
  7.000E+05 7.001E+05 2.438E+00 1.357E+00 1.982E+00 2.481E-01 3.587E+00 6.025E+00 1.892E+05 12.3830 1.00000
  8.000E+05 8.001E+05 2.450E+00 1.568E+00 2.288E+00 2.848E-01 4.141E+00 6.592E+00 2.051E+05 12.6500 1.00000
  9.000E+05 9.001E+05 2.462E+00 1.781E+00 2.596E+00 3.219E-01 4.699E+00 7.161E+00 2.197E+05 12.8855 1.00000
  1.000E+06 1.000E+06 2.471E+00 1.995E+00 2.905E+00 3.594E-01 5.260E+00 7.731E+00 2.331E+05 13.0962 1.00000
  1.200E+06 1.200E+06 2.489E+00 2.426E+00 3.526E+00 4.352E-01 6.387E+00 8.876E+00 2.573E+05 13.4608 1.00000
  1.400E+06 1.400E+06 2.503E+00 2.861E+00 4.149E+00 5.121E-01 7.522E+00 1.003E+01 2.786E+05 13.7691 1.00000
  1.700E+06 1.700E+06 2.522E+00 3.517E+00 5.088E+00 6.292E-01 9.235E+00 1.176E+01 3.063E+05 14.1574 1.00000
  2.000E+06 2.000E+06 2.538E+00 4.178E+00 6.031E+00 7.482E-01 1.096E+01 1.349E+01 3.302E+05 14.4824 1.00000
  2.500E+06 2.500E+06 2.559E+00 5.286E+00 7.607E+00 9.501E-01 1.384E+01 1.640E+01 3.639E+05 14.9287 1.00000
  3.000E+06 3.000E+06 2.577E+00 6.401E+00 9.188E+00 1.156E+00 1.674E+01 1.932E+01 3.921E+05 15.2933 1.00000
  3.500E+06 3.500E+06 2.592E+00 7.521E+00 1.077E+01 1.365E+00 1.966E+01 2.225E+01 4.163E+05 15.6016 1.00000
  4.000E+06 4.000E+06 2.606E+00 8.645E+00 1.236E+01 1.577E+00 2.258E+01 2.519E+01 4.375E+05 15.8686 1.00000
  4.500E+06 4.500E+06 2.617E+00 9.772E+00 1.395E+01 1.792E+00 2.551E+01 2.813E+01 4.563E+05 16.1042 1.00000
  5.000E+06 5.000E+06 2.628E+00 1.090E+01 1.554E+01 2.009E+00 2.845E+01 3.108E+01 4.732E+05 16.3149 1.00000
  5.500E+06 5.500E+06 2.637E+00 1.203E+01 1.713E+01 2.229E+00 3.139E+01 3.403E+01 4.886E+05 16.5055 1.00000
  6.000E+06 6.000E+06 2.646E+00 1.317E+01 1.872E+01 2.450E+00 3.434E+01 3.699E+01 5.027E+05 16.6796 1.00000
  7.000E+06 7.000E+06 2.662E+00 1.544E+01 2.191E+01 2.899E+00 4.025E+01 4.291E+01 5.279E+05 16.9878 1.00000
  8.000E+06 8.000E+06 2.675E+00 1.771E+01 2.511E+01 3.354E+00 4.617E+01 4.885E+01 5.498E+05 17.2549 1.00000
  9.000E+06 9.000E+06 2.688E+00 1.999E+01 2.830E+01 3.815E+00 5.211E+01 5.480E+01 5.691E+05 17.4905 1.00000
  1.000E+07 1.000E+07 2.698E+00 2.228E+01 3.150E+01 4.281E+00 5.805E+01 6.075E+01 5.865E+05 17.7012 1.00000
  1.200E+07 1.200E+07 2.717E+00 2.685E+01 3.789E+01 5.229E+00 6.997E+01 7.269E+01 6.167E+05 18.0658 1.00000
  1.400E+07 1.400E+07 2.734E+00 3.143E+01 4.430E+01 6.193E+00 8.192E+01 8.465E+01 6.423E+05 18.3741 1.00000
  1.700E+07 1.700E+07 2.754E+00 3.831E+01 5.390E+01 7.667E+00 9.988E+01 1.026E+02 6.746E+05 18.7624 1.00000
  2.000E+07 2.000E+07 2.771E+00 4.520E+01 6.352E+01 9.169E+00 1.179E+02 1.207E+02 7.016E+05 19.0875 1.00000
  2.500E+07 2.500E+07 2.795E+00 5.670E+01 7.955E+01 1.173E+01 1.480E+02 1.508E+02 7.389E+05 19.5338 1.00000
  3.000E+07 3.000E+07 2.815E+00 6.822E+01 9.558E+01 1.434E+01 1.781E+02 1.810E+02 7.693E+05 19.8984 1.00000
  3.500E+07 3.500E+07 2.832E+00 7.974E+01 1.116E+02 1.700E+01 2.084E+02 2.112E+02 7.950E+05 20.2067 1.00000
  4.000E+07 4.000E+07 2.847E+00 9.126E+01 1.277E+02 1.971E+01 2.386E+02 2.415E+02 8.172E+05 20.4738 1.00000
  4.500E+07 4.500E+07 2.860E+00 1.028E+02 1.437E+02 2.245E+01 2.690E+02 2.718E+02 8.367E+05 20.7093 1.00000
  5.000E+07 5.000E+07 2.871E+00 1.143E+02 1.598E+02 2.522E+01 2.993E+02 3.022E+02 8.542E+05 20.9200 1.00000
  5.500E+07 5.500E+07 2.882E+00 1.259E+02 1.758E+02 2.803E+01 3.297E+02 3.326E+02 8.700E+05 21.1107 1.00000
  6.000E+07 6.000E+07 2.892E+00 1.374E+02 1.919E+02 3.087E+01 3.602E+02 3.630E+02 8.844E+05 21.2847 1.00000
  7.000E+07 7.000E+07 2.909E+00 1.605E+02 2.240E+02 3.662E+01 4.211E+02 4.240E+02 9.100E+05 21.5930 1.00000
  8.000E+07 8.000E+07 2.924E+00 1.836E+02 2.561E+02 4.246E+01 4.822E+02 4.851E+02 9.321E+05 21.8601 1.00000
  9.000E+07 9.000E+07 2.938E+00 2.067E+02 2.882E+02 4.838E+01 5.433E+02 5.462E+02 9.515E+05 22.0956 1.00000
  1.000E+08 1.000E+08 2.950E+00 2.298E+02 3.203E+02 5.438E+01 6.045E+02 6.075E+02 9.689E+05 22.3063 1.00000
  1.200E+08 1.200E+08 2.971E+00 2.761E+02 3.845E+02 6.658E+01 7.272E+02 7.302E+02 9.991E+05 22.6710 1.00000
  1.400E+08 1.400E+08 2.989E+00 3.223E+02 4.488E+02 7.901E+01 8.501E+02 8.531E+02 1.024E+06 22.9793 1.00000
  1.700E+08 1.700E+08 3.012E+00 3.917E+02 5.451E+02 9.804E+01 1.035E+03 1.038E+03 1.057E+06 23.3676 1.00000
  2.000E+08 2.000E+08 3.031E+00 4.611E+02 6.415E+02 1.175E+02 1.220E+03 1.223E+03 1.083E+06 23.6926 1.00000
  2.500E+08 2.500E+08 3.058E+00 5.768E+02 8.021E+02 1.505E+02 1.529E+03 1.532E+03 1.120E+06 24.1389 1.00000
  3.000E+08 3.000E+08 3.080E+00 6.924E+02 9.627E+02 1.844E+02 1.840E+03 1.843E+03 1.150E+06 24.5036 1.00000
  3.500E+08 3.500E+08 3.098E+00 8.081E+02 1.123E+03 2.189E+02 2.150E+03 2.154E+03 1.175E+06 24.8119 1.00000
  4.000E+08 4.000E+08 3.115E+00 9.238E+02 1.284E+03 2.541E+02 2.462E+03 2.465E+03 1.197E+06 25.0789 1.00000
  4.500E+08 4.500E+08 3.129E+00 1.040E+03 1.445E+03 2.897E+02 2.774E+03 2.777E+03 1.216E+06 25.3145 1.00000
  5.000E+08 5.000E+08 3.142E+00 1.155E+03 1.605E+03 3.258E+02 3.086E+03 3.089E+03 1.233E+06 25.5252 1.00000
  5.500E+08 5.500E+08 3.154E+00 1.271E+03 1.766E+03 3.623E+02 3.399E+03 3.402E+03 1.248E+06 25.7158 1.00000
  6.000E+08 6.000E+08 3.165E+00 1.387E+03 1.926E+03 3.992E+02 3.712E+03 3.715E+03 1.263E+06 25.8899 1.00000
  7.000E+08 7.000E+08 3.185E+00 1.618E+03 2.248E+03 4.741E+02 4.340E+03 4.343E+03 1.288E+06 26.1982 1.00000
  8.000E+08 8.000E+08 3.202E+00 1.850E+03 2.569E+03 5.502E+02 4.969E+03 4.972E+03 1.309E+06 26.4652 1.00000
  9.000E+08 9.000E+08 3.217E+00 2.081E+03 2.890E+03 6.275E+02 5.599E+03 5.602E+03 1.328E+06 26.7008 1.00000
  1.000E+09 1.000E+09 3.230E+00 2.312E+03 3.211E+03 7.059E+02 6.230E+03 6.233E+03 1.345E+06 26.9115 1.00000
