 Incident particle is a Muon with M = 105.65839 MeV
 Index = 0: Lithium
      Absorber with <Z/A> = 0.43215
 Sternheimer coef:  a     k=m_s   x_0    x_1    I[eV]   Cbar  delta0
                 0.9514  2.4993  0.1304  1.6397   40.0  3.1221 0.14

 *** Table generated with PUMAS v1.00 ***

      T         p     Ionization  brems     pair     photonuc  Radloss    dE/dx   CSDA Range  delta   beta
    [MeV]    [MeV/c]  -----------------------[MeV cm^2/g]------------------------  [g/cm^2]
  1.000E+00 1.457E+01 4.381E+01 3.117E-07 0.000E+00 0.000E+00 3.117E-07 4.381E+01 1.141E-02  0.0015 0.13661
  1.200E+00 1.597E+01 3.768E+01 3.548E-07 0.000E+00 0.000E+00 3.548E-07 3.768E+01 1.635E-02  0.0018 0.14944
  1.400E+00 1.726E+01 3.316E+01 3.960E-07 0.000E+00 0.000E+00 3.960E-07 3.316E+01 2.202E-02  0.0020 0.16119
  1.700E+00 1.903E+01 2.822E+01 4.550E-07 0.000E+00 0.000E+00 4.550E-07 2.822E+01 3.186E-02  0.0025 0.17725
  2.000E+00 2.066E+01 2.466E+01 5.110E-07 0.000E+00 0.000E+00 5.110E-07 2.466E+01 4.325E-02  0.0029 0.19186
  2.500E+00 2.312E+01 2.049E+01 5.991E-07 0.000E+00 0.000E+00 5.991E-07 2.049E+01 6.559E-02  0.0037 0.21376
  3.000E+00 2.536E+01 1.762E+01 6.818E-07 0.000E+00 0.000E+00 6.818E-07 1.762E+01 9.197E-02  0.0044 0.23336
  3.500E+00 2.742E+01 1.552E+01 7.600E-07 0.000E+00 0.000E+00 7.600E-07 1.552E+01 1.223E-01  0.0052 0.25120
  4.000E+00 2.935E+01 1.391E+01 8.346E-07 0.000E+00 0.000E+00 8.346E-07 1.391E+01 1.563E-01  0.0059 0.26763
  4.500E+00 3.116E+01 1.263E+01 9.059E-07 0.000E+00 0.000E+00 9.059E-07 1.263E+01 1.941E-01  0.0067 0.28290
  5.000E+00 3.289E+01 1.159E+01 9.744E-07 0.000E+00 0.000E+00 9.744E-07 1.159E+01 2.355E-01  0.0074 0.29720
  5.500E+00 3.453E+01 1.073E+01 1.040E-06 0.000E+00 0.000E+00 1.040E-06 1.073E+01 2.803E-01  0.0082 0.31066
  6.000E+00 3.611E+01 1.001E+01 1.104E-06 0.000E+00 0.000E+00 1.104E-06 1.001E+01 3.286E-01  0.0090 0.32339
  7.000E+00 3.909E+01 8.849E+00 1.226E-06 0.000E+00 0.000E+00 1.226E-06 8.849E+00 4.351E-01  0.0105 0.34700
  8.000E+00 4.189E+01 7.964E+00 1.341E-06 0.000E+00 0.000E+00 1.341E-06 7.964E+00 5.543E-01  0.0121 0.36854
  9.000E+00 4.453E+01 7.265E+00 1.451E-06 0.000E+00 0.000E+00 1.451E-06 7.265E+00 6.859E-01  0.0136 0.38836
  1.000E+01 4.704E+01 6.699E+00 1.556E-06 0.000E+00 0.000E+00 1.556E-06 6.699E+00 8.294E-01  0.0152 0.40675
  1.200E+01 5.177E+01 5.836E+00 1.753E-06 0.000E+00 0.000E+00 1.753E-06 5.836E+00 1.150E+00  0.0184 0.43998
  1.400E+01 5.616E+01 5.209E+00 1.938E-06 0.000E+00 0.000E+00 1.938E-06 5.209E+00 1.513E+00  0.0217 0.46937
  1.700E+01 6.230E+01 4.534E+00 2.197E-06 0.000E+00 0.000E+00 2.197E-06 4.534E+00 2.132E+00  0.0267 0.50792
  2.000E+01 6.802E+01 4.055E+00 2.438E-06 0.000E+00 0.000E+00 2.438E-06 4.055E+00 2.833E+00  0.0318 0.54129
  2.500E+01 7.686E+01 3.505E+00 2.814E-06 0.000E+00 0.000E+00 2.814E-06 3.505E+00 4.163E+00  0.0406 0.58827
  3.000E+01 8.509E+01 3.134E+00 3.167E-06 0.000E+00 0.000E+00 3.167E-06 3.134E+00 5.674E+00  0.0498 0.62720
  3.500E+01 9.285E+01 2.868E+00 3.504E-06 0.000E+00 0.000E+00 3.504E-06 2.868E+00 7.343E+00  0.0593 0.66011
  4.000E+01 1.003E+02 2.669E+00 3.831E-06 0.000E+00 0.000E+00 3.831E-06 2.669E+00 9.151E+00  0.0692 0.68834
  4.500E+01 1.074E+02 2.514E+00 4.151E-06 0.000E+00 0.000E+00 4.151E-06 2.514E+00 1.108E+01  0.0793 0.71286
  5.000E+01 1.143E+02 2.391E+00 4.466E-06 0.000E+00 0.000E+00 4.466E-06 2.391E+00 1.312E+01  0.0899 0.73434
  5.500E+01 1.210E+02 2.291E+00 4.779E-06 0.000E+00 0.000E+00 4.779E-06 2.291E+00 1.526E+01  0.1008 0.75332
  6.000E+01 1.276E+02 2.208E+00 5.091E-06 0.000E+00 0.000E+00 5.091E-06 2.208E+00 1.748E+01  0.1120 0.77019
  7.000E+01 1.403E+02 2.080E+00 5.713E-06 0.000E+00 0.000E+00 5.713E-06 2.080E+00 2.215E+01  0.1355 0.79887
  8.000E+01 1.527E+02 1.988E+00 6.339E-06 0.000E+00 0.000E+00 6.339E-06 1.988E+00 2.707E+01  0.1479 0.82227
  9.000E+01 1.647E+02 1.918E+00 6.972E-06 0.000E+00 0.000E+00 6.972E-06 1.918E+00 3.219E+01  0.1610 0.84166
  1.000E+02 1.764E+02 1.864E+00 7.613E-06 0.000E+00 0.000E+00 7.613E-06 1.864E+00 3.748E+01  0.1769 0.85794
  1.200E+02 1.994E+02 1.788E+00 8.927E-06 0.000E+00 0.000E+00 8.927E-06 1.788E+00 4.844E+01  0.2145 0.88361
  1.400E+02 2.218E+02 1.739E+00 1.028E-05 0.000E+00 0.000E+00 1.028E-05 1.739E+00 5.978E+01  0.2567 0.90278
  1.700E+02 2.546E+02 1.693E+00 1.241E-05 1.812E-14 0.000E+00 1.241E-05 1.693E+00 7.727E+01  0.3245 0.92363
  2.000E+02 2.868E+02 1.667E+00 1.463E-05 4.036E-12 0.000E+00 1.463E-05 1.667E+00 9.513E+01  0.3946 0.93835
  2.500E+02 3.396E+02 1.645E+00 1.855E-05 3.336E-08 0.000E+00 1.858E-05 1.645E+00 1.253E+02  0.5118 0.95485
  3.000E+02 3.917E+02 1.639E+00 2.271E-05 2.825E-07 0.000E+00 2.299E-05 1.639E+00 1.558E+02  0.6268 0.96548
  3.500E+02 4.432E+02 1.639E+00 2.710E-05 7.679E-07 0.000E+00 2.787E-05 1.639E+00 1.863E+02  0.7380 0.97274
  4.000E+02 4.945E+02 1.643E+00 3.170E-05 1.478E-06 0.000E+00 3.317E-05 1.643E+00 2.167E+02  0.8449 0.97793
  4.500E+02 5.455E+02 1.649E+00 3.648E-05 2.403E-06 0.000E+00 3.889E-05 1.649E+00 2.471E+02  0.9477 0.98176
  5.000E+02 5.964E+02 1.656E+00 4.145E-05 3.537E-06 0.000E+00 4.499E-05 1.656E+00 2.774E+02  1.0464 0.98467
  5.500E+02 6.471E+02 1.664E+00 4.658E-05 4.871E-06 0.000E+00 5.145E-05 1.664E+00 3.075E+02  1.1412 0.98693
  6.000E+02 6.977E+02 1.671E+00 5.187E-05 6.399E-06 0.000E+00 5.827E-05 1.671E+00 3.375E+02  1.2323 0.98873
  7.000E+02 7.987E+02 1.686E+00 6.288E-05 1.001E-05 0.000E+00 7.289E-05 1.686E+00 3.970E+02  1.4045 0.99136
  8.000E+02 8.995E+02 1.701E+00 7.441E-05 1.432E-05 0.000E+00 8.873E-05 1.701E+00 4.561E+02  1.5648 0.99317
  9.000E+02 1.000E+03 1.714E+00 8.642E-05 1.929E-05 0.000E+00 1.057E-04 1.714E+00 5.146E+02  1.7145 0.99447
  1.000E+03 1.101E+03 1.726E+00 9.887E-05 2.488E-05 0.000E+00 1.237E-04 1.727E+00 5.728E+02  1.8551 0.99542
  1.200E+03 1.301E+03 1.749E+00 1.250E-04 3.776E-05 2.258E-05 1.853E-04 1.749E+00 6.879E+02  2.1126 0.99672
  1.400E+03 1.502E+03 1.768E+00 1.524E-04 5.273E-05 6.199E-05 2.672E-04 1.768E+00 8.016E+02  2.3440 0.99753
  1.700E+03 1.803E+03 1.792E+00 1.960E-04 7.865E-05 1.334E-04 4.081E-04 1.793E+00 9.701E+02  2.6525 0.99829
  2.000E+03 2.103E+03 1.813E+00 2.420E-04 1.083E-04 2.181E-04 5.683E-04 1.813E+00 1.137E+03  2.9243 0.99874
  2.500E+03 2.604E+03 1.840E+00 3.232E-04 1.648E-04 3.829E-04 8.708E-04 1.841E+00 1.410E+03  3.3159 0.99918
  3.000E+03 3.104E+03 1.862E+00 4.093E-04 2.289E-04 5.571E-04 1.195E-03 1.864E+00 1.680E+03  3.6499 0.99942
  3.500E+03 3.604E+03 1.881E+00 4.997E-04 2.997E-04 7.428E-04 1.542E-03 1.882E+00 1.947E+03  3.9407 0.99957
  4.000E+03 4.104E+03 1.897E+00 5.939E-04 3.885E-04 9.419E-04 1.924E-03 1.899E+00 2.212E+03  4.1976 0.99967
  4.500E+03 4.604E+03 1.910E+00 6.913E-04 4.879E-04 1.150E-03 2.329E-03 1.913E+00 2.474E+03  4.4270 0.99974
  5.000E+03 5.105E+03 1.923E+00 7.918E-04 5.935E-04 1.350E-03 2.736E-03 1.925E+00 2.735E+03  4.6333 0.99979
  5.500E+03 5.605E+03 1.934E+00 8.951E-04 7.048E-04 1.567E-03 3.167E-03 1.937E+00 2.993E+03  4.8202 0.99982
  6.000E+03 6.105E+03 1.944E+00 1.001E-03 8.214E-04 1.769E-03 3.591E-03 1.947E+00 3.251E+03  4.9911 0.99985
  7.000E+03 7.105E+03 1.961E+00 1.219E-03 1.069E-03 2.198E-03 4.487E-03 1.966E+00 3.762E+03  5.2945 0.99989
  8.000E+03 8.105E+03 1.977E+00 1.446E-03 1.334E-03 2.626E-03 5.406E-03 1.982E+00 4.269E+03  5.5579 0.99992
  9.000E+03 9.105E+03 1.990E+00 1.680E-03 1.613E-03 3.030E-03 6.324E-03 1.996E+00 4.771E+03  5.7906 0.99993
  1.000E+04 1.011E+04 2.002E+00 1.921E-03 1.907E-03 3.448E-03 7.275E-03 2.009E+00 5.271E+03  5.9991 0.99995
  1.200E+04 1.211E+04 2.022E+00 2.420E-03 2.529E-03 4.297E-03 9.246E-03 2.031E+00 6.261E+03  6.3603 0.99996
  1.400E+04 1.411E+04 2.039E+00 2.939E-03 3.192E-03 5.151E-03 1.128E-02 2.050E+00 7.241E+03  6.6661 0.99997
  1.700E+04 1.711E+04 2.059E+00 3.749E-03 4.252E-03 6.421E-03 1.442E-02 2.074E+00 8.696E+03  7.0518 0.99998
  2.000E+04 2.011E+04 2.077E+00 4.593E-03 5.377E-03 7.672E-03 1.764E-02 2.094E+00 1.014E+04  7.3750 0.99999
  2.500E+04 2.511E+04 2.099E+00 6.058E-03 7.369E-03 9.733E-03 2.316E-02 2.123E+00 1.251E+04  7.8192 0.99999
  3.000E+04 3.011E+04 2.118E+00 7.587E-03 9.483E-03 1.176E-02 2.883E-02 2.147E+00 1.485E+04  8.1824 0.99999
  3.500E+04 3.511E+04 2.133E+00 9.167E-03 1.169E-02 1.382E-02 3.468E-02 2.168E+00 1.717E+04  8.4897 1.00000
  4.000E+04 4.011E+04 2.146E+00 1.079E-02 1.399E-02 1.586E-02 4.064E-02 2.187E+00 1.946E+04  8.7560 1.00000
  4.500E+04 4.511E+04 2.157E+00 1.245E-02 1.636E-02 1.788E-02 4.669E-02 2.204E+00 2.174E+04  8.9910 1.00000
  5.000E+04 5.011E+04 2.168E+00 1.415E-02 1.879E-02 1.990E-02 5.284E-02 2.220E+00 2.400E+04  9.2013 1.00000
  5.500E+04 5.511E+04 2.177E+00 1.588E-02 2.127E-02 2.194E-02 5.908E-02 2.236E+00 2.625E+04  9.3915 1.00000
  6.000E+04 6.011E+04 2.185E+00 1.763E-02 2.381E-02 2.395E-02 6.539E-02 2.250E+00 2.847E+04  9.5652 1.00000
  7.000E+04 7.011E+04 2.199E+00 2.121E-02 2.900E-02 2.797E-02 7.819E-02 2.277E+00 3.289E+04  9.8730 1.00000
  8.000E+04 8.011E+04 2.211E+00 2.488E-02 3.435E-02 3.200E-02 9.123E-02 2.303E+00 3.726E+04 10.1397 1.00000
  9.000E+04 9.011E+04 2.222E+00 2.862E-02 3.982E-02 3.604E-02 1.045E-01 2.327E+00 4.158E+04 10.3750 1.00000
  1.000E+05 1.001E+05 2.232E+00 3.243E-02 4.540E-02 4.000E-02 1.178E-01 2.350E+00 4.586E+04 10.5854 1.00000
  1.200E+05 1.201E+05 2.248E+00 4.020E-02 5.684E-02 4.809E-02 1.451E-01 2.393E+00 5.429E+04 10.9497 1.00000
  1.400E+05 1.401E+05 2.262E+00 4.817E-02 6.857E-02 5.619E-02 1.729E-01 2.435E+00 6.258E+04 11.2578 1.00000
  1.700E+05 1.701E+05 2.279E+00 6.040E-02 8.663E-02 6.837E-02 2.154E-01 2.495E+00 7.475E+04 11.6458 1.00000
  2.000E+05 2.001E+05 2.294E+00 7.291E-02 1.051E-01 8.063E-02 2.586E-01 2.552E+00 8.664E+04 11.9707 1.00000
  2.500E+05 2.501E+05 2.313E+00 9.428E-02 1.367E-01 1.012E-01 3.321E-01 2.645E+00 1.059E+05 12.4168 1.00000
  3.000E+05 3.001E+05 2.329E+00 1.161E-01 1.689E-01 1.219E-01 4.069E-01 2.736E+00 1.245E+05 12.7813 1.00000
  3.500E+05 3.501E+05 2.343E+00 1.384E-01 2.017E-01 1.428E-01 4.829E-01 2.826E+00 1.425E+05 13.0895 1.00000
  4.000E+05 4.001E+05 2.355E+00 1.610E-01 2.349E-01 1.639E-01 5.598E-01 2.915E+00 1.599E+05 13.3564 1.00000
  4.500E+05 4.501E+05 2.365E+00 1.838E-01 2.684E-01 1.851E-01 6.374E-01 3.003E+00 1.768E+05 13.5920 1.00000
  5.000E+05 5.001E+05 2.375E+00 2.070E-01 3.023E-01 2.065E-01 7.158E-01 3.091E+00 1.932E+05 13.8026 1.00000
  5.500E+05 5.501E+05 2.383E+00 2.303E-01 3.364E-01 2.278E-01 7.945E-01 3.178E+00 2.092E+05 13.9932 1.00000
  6.000E+05 6.001E+05 2.391E+00 2.538E-01 3.708E-01 2.492E-01 8.738E-01 3.265E+00 2.247E+05 14.1672 1.00000
  7.000E+05 7.001E+05 2.405E+00 3.014E-01 4.400E-01 2.923E-01 1.034E+00 3.439E+00 2.545E+05 14.4755 1.00000
  8.000E+05 8.001E+05 2.417E+00 3.494E-01 5.099E-01 3.360E-01 1.195E+00 3.612E+00 2.829E+05 14.7425 1.00000
  9.000E+05 9.001E+05 2.427E+00 3.980E-01 5.803E-01 3.801E-01 1.358E+00 3.786E+00 3.100E+05 14.9780 1.00000
  1.000E+06 1.000E+06 2.437E+00 4.469E-01 6.511E-01 4.246E-01 1.523E+00 3.959E+00 3.358E+05 15.1887 1.00000
  1.200E+06 1.200E+06 2.453E+00 5.458E-01 7.937E-01 5.146E-01 1.854E+00 4.308E+00 3.843E+05 15.5533 1.00000
  1.400E+06 1.400E+06 2.468E+00 6.457E-01 9.374E-01 6.060E-01 2.189E+00 4.657E+00 4.290E+05 15.8616 1.00000
  1.700E+06 1.700E+06 2.485E+00 7.971E-01 1.155E+00 7.452E-01 2.697E+00 5.182E+00 4.901E+05 16.2499 1.00000
  2.000E+06 2.000E+06 2.500E+00 9.501E-01 1.373E+00 8.868E-01 3.210E+00 5.710E+00 5.453E+05 16.5749 1.00000
  2.500E+06 2.500E+06 2.521E+00 1.208E+00 1.739E+00 1.127E+00 4.074E+00 6.595E+00 6.270E+05 17.0212 1.00000
  3.000E+06 3.000E+06 2.538E+00 1.468E+00 2.108E+00 1.372E+00 4.947E+00 7.485E+00 6.983E+05 17.3858 1.00000
  3.500E+06 3.500E+06 2.553E+00 1.729E+00 2.478E+00 1.621E+00 5.828E+00 8.381E+00 7.616E+05 17.6941 1.00000
  4.000E+06 4.000E+06 2.566E+00 1.993E+00 2.849E+00 1.873E+00 6.715E+00 9.280E+00 8.183E+05 17.9611 1.00000
  4.500E+06 4.500E+06 2.577E+00 2.257E+00 3.221E+00 2.129E+00 7.607E+00 1.018E+01 8.698E+05 18.1967 1.00000
  5.000E+06 5.000E+06 2.587E+00 2.523E+00 3.593E+00 2.388E+00 8.503E+00 1.109E+01 9.169E+05 18.4074 1.00000
  5.500E+06 5.500E+06 2.596E+00 2.789E+00 3.966E+00 2.649E+00 9.404E+00 1.200E+01 9.603E+05 18.5980 1.00000
  6.000E+06 6.000E+06 2.604E+00 3.056E+00 4.340E+00 2.912E+00 1.031E+01 1.291E+01 1.000E+06 18.7721 1.00000
  7.000E+06 7.000E+06 2.619E+00 3.592E+00 5.088E+00 3.446E+00 1.213E+01 1.475E+01 1.073E+06 19.0803 1.00000
  8.000E+06 8.000E+06 2.633E+00 4.131E+00 5.838E+00 3.988E+00 1.396E+01 1.659E+01 1.137E+06 19.3474 1.00000
  9.000E+06 9.000E+06 2.644E+00 4.670E+00 6.589E+00 4.537E+00 1.580E+01 1.844E+01 1.194E+06 19.5830 1.00000
  1.000E+07 1.000E+07 2.655E+00 5.212E+00 7.340E+00 5.093E+00 1.764E+01 2.030E+01 1.246E+06 19.7937 1.00000
  1.200E+07 1.200E+07 2.673E+00 6.297E+00 8.845E+00 6.221E+00 2.136E+01 2.404E+01 1.337E+06 20.1583 1.00000
  1.400E+07 1.400E+07 2.688E+00 7.387E+00 1.035E+01 7.370E+00 2.511E+01 2.780E+01 1.415E+06 20.4666 1.00000
  1.700E+07 1.700E+07 2.708E+00 9.025E+00 1.261E+01 9.125E+00 3.076E+01 3.347E+01 1.513E+06 20.8549 1.00000
  2.000E+07 2.000E+07 2.724E+00 1.067E+01 1.488E+01 1.091E+01 3.646E+01 3.918E+01 1.596E+06 21.1800 1.00000
  2.500E+07 2.500E+07 2.747E+00 1.341E+01 1.865E+01 1.396E+01 4.603E+01 4.877E+01 1.712E+06 21.6263 1.00000
  3.000E+07 3.000E+07 2.766E+00 1.617E+01 2.243E+01 1.707E+01 5.567E+01 5.844E+01 1.806E+06 21.9909 1.00000
  3.500E+07 3.500E+07 2.783E+00 1.892E+01 2.621E+01 2.024E+01 6.538E+01 6.816E+01 1.885E+06 22.2992 1.00000
  4.000E+07 4.000E+07 2.797E+00 2.168E+01 2.999E+01 2.347E+01 7.514E+01 7.794E+01 1.954E+06 22.5663 1.00000
  4.500E+07 4.500E+07 2.809E+00 2.445E+01 3.378E+01 2.673E+01 8.495E+01 8.776E+01 2.014E+06 22.8018 1.00000
  5.000E+07 5.000E+07 2.820E+00 2.721E+01 3.756E+01 3.004E+01 9.481E+01 9.763E+01 2.068E+06 23.0125 1.00000
  5.500E+07 5.500E+07 2.831E+00 2.998E+01 4.134E+01 3.338E+01 1.047E+02 1.075E+02 2.117E+06 23.2032 1.00000
  6.000E+07 6.000E+07 2.840E+00 3.275E+01 4.513E+01 3.676E+01 1.146E+02 1.175E+02 2.162E+06 23.3772 1.00000
  7.000E+07 7.000E+07 2.857E+00 3.829E+01 5.270E+01 4.361E+01 1.346E+02 1.375E+02 2.241E+06 23.6855 1.00000
  8.000E+07 8.000E+07 2.871E+00 4.383E+01 6.027E+01 5.057E+01 1.547E+02 1.575E+02 2.309E+06 23.9526 1.00000
  9.000E+07 9.000E+07 2.884E+00 4.938E+01 6.785E+01 5.763E+01 1.749E+02 1.777E+02 2.369E+06 24.1881 1.00000
  1.000E+08 1.000E+08 2.896E+00 5.493E+01 7.542E+01 6.477E+01 1.951E+02 1.980E+02 2.422E+06 24.3988 1.00000
  1.200E+08 1.200E+08 2.916E+00 6.604E+01 9.057E+01 7.931E+01 2.359E+02 2.388E+02 2.514E+06 24.7635 1.00000
  1.400E+08 1.400E+08 2.933E+00 7.716E+01 1.057E+02 9.412E+01 2.770E+02 2.799E+02 2.592E+06 25.0718 1.00000
  1.700E+08 1.700E+08 2.955E+00 9.384E+01 1.285E+02 1.168E+02 3.391E+02 3.420E+02 2.690E+06 25.4601 1.00000
  2.000E+08 2.000E+08 2.973E+00 1.105E+02 1.512E+02 1.399E+02 4.016E+02 4.046E+02 2.770E+06 25.7851 1.00000
  2.500E+08 2.500E+08 2.999E+00 1.384E+02 1.891E+02 1.793E+02 5.068E+02 5.098E+02 2.881E+06 26.2314 1.00000
  3.000E+08 3.000E+08 3.020E+00 1.662E+02 2.270E+02 2.197E+02 6.128E+02 6.158E+02 2.971E+06 26.5961 1.00000
  3.500E+08 3.500E+08 3.038E+00 1.940E+02 2.648E+02 2.608E+02 7.197E+02 7.227E+02 3.046E+06 26.9044 1.00000
  4.000E+08 4.000E+08 3.054E+00 2.219E+02 3.027E+02 3.026E+02 8.273E+02 8.303E+02 3.111E+06 27.1714 1.00000
  4.500E+08 4.500E+08 3.068E+00 2.497E+02 3.406E+02 3.451E+02 9.354E+02 9.385E+02 3.168E+06 27.4070 1.00000
  5.000E+08 5.000E+08 3.080E+00 2.776E+02 3.785E+02 3.881E+02 1.044E+03 1.047E+03 3.218E+06 27.6177 1.00000
  5.500E+08 5.500E+08 3.092E+00 3.055E+02 4.164E+02 4.316E+02 1.153E+03 1.157E+03 3.264E+06 27.8083 1.00000
  6.000E+08 6.000E+08 3.102E+00 3.333E+02 4.543E+02 4.755E+02 1.263E+03 1.266E+03 3.305E+06 27.9824 1.00000
  7.000E+08 7.000E+08 3.121E+00 3.890E+02 5.301E+02 5.647E+02 1.484E+03 1.487E+03 3.378E+06 28.2907 1.00000
  8.000E+08 8.000E+08 3.137E+00 4.448E+02 6.059E+02 6.555E+02 1.706E+03 1.709E+03 3.441E+06 28.5577 1.00000
  9.000E+08 9.000E+08 3.152E+00 5.005E+02 6.817E+02 7.476E+02 1.930E+03 1.933E+03 3.496E+06 28.7933 1.00000
  1.000E+09 1.000E+09 3.165E+00 5.562E+02 7.574E+02 8.409E+02 2.155E+03 2.158E+03 3.545E+06 29.0040 1.00000
