 Incident particle is a Muon with M = 105.65839 MeV
 Index = 0: LithiumIodide
      Absorber with <Z/A> = 0.41839
 Sternheimer coef:  a     k=m_s   x_0    x_1    I[eV]   Cbar  delta0
                 0.2327  2.7146  0.0892  3.3702  485.1  6.2671 0.00

 *** Table generated with PUMAS v1.00 ***

      T         p     Ionization  brems     pair     photonuc  Radloss    dE/dx   CSDA Range  delta   beta
    [MeV]    [MeV/c]  -----------------------[MeV cm^2/g]------------------------  [g/cm^2]
  1.000E+00 1.457E+01 2.524E+01 3.751E-06 0.000E+00 0.000E+00 3.751E-06 2.524E+01 1.981E-02  0.0000 0.13661
  1.200E+00 1.597E+01 2.213E+01 4.310E-06 0.000E+00 0.000E+00 4.310E-06 2.213E+01 2.829E-02  0.0000 0.14944
  1.400E+00 1.726E+01 1.977E+01 4.840E-06 0.000E+00 0.000E+00 4.840E-06 1.977E+01 3.786E-02  0.0000 0.16119
  1.700E+00 1.903E+01 1.713E+01 5.589E-06 0.000E+00 0.000E+00 5.589E-06 1.713E+01 5.421E-02  0.0000 0.17725
  2.000E+00 2.066E+01 1.517E+01 6.294E-06 0.000E+00 0.000E+00 6.294E-06 1.517E+01 7.285E-02  0.0000 0.19186
  2.500E+00 2.312E+01 1.283E+01 7.388E-06 0.000E+00 0.000E+00 7.388E-06 1.283E+01 1.088E-01  0.0000 0.21376
  3.000E+00 2.536E+01 1.118E+01 8.401E-06 0.000E+00 0.000E+00 8.401E-06 1.118E+01 1.507E-01  0.0000 0.23336
  3.500E+00 2.742E+01 9.951E+00 9.348E-06 0.000E+00 0.000E+00 9.348E-06 9.951E+00 1.981E-01  0.0000 0.25120
  4.000E+00 2.935E+01 8.995E+00 1.024E-05 0.000E+00 0.000E+00 1.024E-05 8.995E+00 2.511E-01  0.0000 0.26763
  4.500E+00 3.116E+01 8.229E+00 1.108E-05 0.000E+00 0.000E+00 1.108E-05 8.229E+00 3.092E-01  0.0000 0.28290
  5.000E+00 3.289E+01 7.601E+00 1.189E-05 0.000E+00 0.000E+00 1.189E-05 7.601E+00 3.725E-01  0.0000 0.29720
  5.500E+00 3.453E+01 7.075E+00 1.266E-05 0.000E+00 0.000E+00 1.266E-05 7.075E+00 4.407E-01  0.0000 0.31066
  6.000E+00 3.611E+01 6.629E+00 1.339E-05 0.000E+00 0.000E+00 1.339E-05 6.629E+00 5.138E-01  0.0000 0.32339
  7.000E+00 3.909E+01 5.910E+00 1.479E-05 0.000E+00 0.000E+00 1.479E-05 5.910E+00 6.738E-01  0.0000 0.34700
  8.000E+00 4.189E+01 5.355E+00 1.609E-05 0.000E+00 0.000E+00 1.609E-05 5.355E+00 8.518E-01  0.0000 0.36854
  9.000E+00 4.453E+01 4.914E+00 1.731E-05 0.000E+00 0.000E+00 1.731E-05 4.914E+00 1.047E+00  0.0000 0.38836
  1.000E+01 4.704E+01 4.554E+00 1.848E-05 0.000E+00 0.000E+00 1.848E-05 4.554E+00 1.258E+00  0.0000 0.40675
  1.200E+01 5.177E+01 4.000E+00 2.064E-05 0.000E+00 0.000E+00 2.064E-05 4.000E+00 1.728E+00  0.0000 0.43998
  1.400E+01 5.616E+01 3.594E+00 2.265E-05 0.000E+00 0.000E+00 2.265E-05 3.594E+00 2.256E+00  0.0000 0.46937
  1.700E+01 6.230E+01 3.154E+00 2.542E-05 0.000E+00 0.000E+00 2.542E-05 3.154E+00 3.149E+00  0.0000 0.50792
  2.000E+01 6.802E+01 2.839E+00 2.800E-05 0.000E+00 0.000E+00 2.800E-05 2.839E+00 4.153E+00  0.0000 0.54129
  2.500E+01 7.686E+01 2.474E+00 3.198E-05 0.000E+00 0.000E+00 3.198E-05 2.474E+00 6.044E+00  0.0000 0.58827
  3.000E+01 8.509E+01 2.228E+00 3.571E-05 0.000E+00 0.000E+00 3.571E-05 2.228E+00 8.177E+00  0.0000 0.62720
  3.500E+01 9.285E+01 2.050E+00 3.928E-05 0.000E+00 0.000E+00 3.928E-05 2.050E+00 1.052E+01  0.0000 0.66011
  4.000E+01 1.003E+02 1.916E+00 4.275E-05 0.000E+00 0.000E+00 4.275E-05 1.917E+00 1.304E+01  0.0000 0.68834
  4.500E+01 1.074E+02 1.813E+00 4.616E-05 0.000E+00 0.000E+00 4.616E-05 1.813E+00 1.573E+01  0.0000 0.71286
  5.000E+01 1.143E+02 1.731E+00 4.953E-05 0.000E+00 0.000E+00 4.953E-05 1.731E+00 1.855E+01  0.0000 0.73434
  5.500E+01 1.210E+02 1.664E+00 5.289E-05 0.000E+00 0.000E+00 5.289E-05 1.664E+00 2.150E+01  0.0000 0.75332
  6.000E+01 1.276E+02 1.609E+00 5.624E-05 0.000E+00 0.000E+00 5.624E-05 1.609E+00 2.455E+01  0.0000 0.77019
  7.000E+01 1.403E+02 1.526E+00 6.299E-05 0.000E+00 0.000E+00 6.299E-05 1.526E+00 3.094E+01 -0.0077 0.79887
  8.000E+01 1.527E+02 1.465E+00 6.981E-05 0.000E+00 0.000E+00 6.981E-05 1.465E+00 3.763E+01 -0.0117 0.82227
  9.000E+01 1.647E+02 1.420E+00 7.674E-05 0.000E+00 0.000E+00 7.674E-05 1.420E+00 4.456E+01 -0.0124 0.84166
  1.000E+02 1.764E+02 1.386E+00 8.381E-05 0.000E+00 0.000E+00 8.381E-05 1.386E+00 5.169E+01 -0.0107 0.85794
  1.200E+02 1.994E+02 1.339E+00 9.836E-05 0.000E+00 0.000E+00 9.836E-05 1.339E+00 6.637E+01 -0.0022 0.88361
  1.400E+02 2.218E+02 1.309E+00 1.135E-04 0.000E+00 0.000E+00 1.135E-04 1.310E+00 8.148E+01  0.0107 0.90278
  1.700E+02 2.546E+02 1.285E+00 1.373E-04 9.394E-16 0.000E+00 1.373E-04 1.285E+00 1.046E+02  0.0351 0.92363
  2.000E+02 2.868E+02 1.274E+00 1.624E-04 2.093E-13 0.000E+00 1.624E-04 1.274E+00 1.281E+02  0.0630 0.93835
  2.500E+02 3.396E+02 1.269E+00 2.070E-04 1.730E-09 0.000E+00 2.070E-04 1.270E+00 1.674E+02  0.1132 0.95485
  3.000E+02 3.917E+02 1.274E+00 2.547E-04 1.465E-08 0.000E+00 2.547E-04 1.275E+00 2.067E+02  0.1653 0.96548
  3.500E+02 4.432E+02 1.283E+00 3.052E-04 3.982E-08 0.000E+00 3.053E-04 1.284E+00 2.458E+02  0.2175 0.97274
  4.000E+02 4.945E+02 1.294E+00 3.584E-04 1.352E-05 0.000E+00 3.719E-04 1.295E+00 2.845E+02  0.2690 0.97793
  4.500E+02 5.455E+02 1.306E+00 4.140E-04 3.457E-05 0.000E+00 4.486E-04 1.306E+00 3.230E+02  0.3195 0.98176
  5.000E+02 5.964E+02 1.318E+00 4.719E-04 5.250E-05 0.000E+00 5.244E-04 1.318E+00 3.611E+02  0.3687 0.98467
  5.500E+02 6.471E+02 1.329E+00 5.319E-04 7.323E-05 0.000E+00 6.051E-04 1.330E+00 3.988E+02  0.4167 0.98693
  6.000E+02 6.977E+02 1.341E+00 5.938E-04 9.701E-05 0.000E+00 6.908E-04 1.341E+00 4.363E+02  0.4633 0.98873
  7.000E+02 7.987E+02 1.362E+00 7.232E-04 1.535E-04 0.000E+00 8.766E-04 1.363E+00 5.102E+02  0.5526 0.99136
  8.000E+02 8.995E+02 1.382E+00 8.592E-04 2.211E-04 0.000E+00 1.080E-03 1.383E+00 5.831E+02  0.6371 0.99317
  9.000E+02 1.000E+03 1.400E+00 1.001E-03 2.992E-04 0.000E+00 1.301E-03 1.401E+00 6.549E+02  0.7170 0.99447
  1.000E+03 1.101E+03 1.417E+00 1.149E-03 3.872E-04 0.000E+00 1.536E-03 1.418E+00 7.258E+02  0.7929 0.99542
  1.200E+03 1.301E+03 1.446E+00 1.459E-03 5.905E-04 2.247E-05 2.072E-03 1.449E+00 8.654E+02  0.9340 0.99672
  1.400E+03 1.502E+03 1.472E+00 1.787E-03 8.269E-04 6.104E-05 2.675E-03 1.475E+00 1.002E+03  1.0629 0.99753
  1.700E+03 1.803E+03 1.505E+00 2.307E-03 1.237E-03 1.296E-04 3.674E-03 1.508E+00 1.203E+03  1.2377 0.99829
  2.000E+03 2.103E+03 1.532E+00 2.858E-03 1.706E-03 2.094E-04 4.772E-03 1.537E+00 1.400E+03  1.3945 0.99874
  2.500E+03 2.604E+03 1.569E+00 3.830E-03 2.599E-03 3.622E-04 6.792E-03 1.576E+00 1.722E+03  1.6251 0.99918
  3.000E+03 3.104E+03 1.599E+00 4.862E-03 3.614E-03 5.207E-04 8.996E-03 1.608E+00 2.036E+03  1.8264 0.99942
  3.500E+03 3.604E+03 1.625E+00 5.943E-03 4.732E-03 6.872E-04 1.136E-02 1.636E+00 2.344E+03  2.0054 0.99957
  4.000E+03 4.104E+03 1.646E+00 7.068E-03 5.952E-03 8.640E-04 1.388E-02 1.660E+00 2.648E+03  2.1668 0.99967
  4.500E+03 4.604E+03 1.665E+00 8.231E-03 7.257E-03 1.047E-03 1.654E-02 1.681E+00 2.947E+03  2.3139 0.99974
  5.000E+03 5.105E+03 1.681E+00 9.428E-03 8.636E-03 1.222E-03 1.929E-02 1.700E+00 3.243E+03  2.4493 0.99979
  5.500E+03 5.605E+03 1.696E+00 1.066E-02 1.008E-02 1.410E-03 2.215E-02 1.718E+00 3.535E+03  2.5747 0.99982
  6.000E+03 6.105E+03 1.709E+00 1.191E-02 1.159E-02 1.585E-03 2.508E-02 1.734E+00 3.825E+03  2.6916 0.99985
  7.000E+03 7.105E+03 1.732E+00 1.450E-02 1.476E-02 1.954E-03 3.122E-02 1.763E+00 4.397E+03  2.9043 0.99989
  8.000E+03 8.105E+03 1.751E+00 1.717E-02 1.813E-02 2.319E-03 3.763E-02 1.789E+00 4.960E+03  3.0941 0.99992
  9.000E+03 9.105E+03 1.768E+00 1.993E-02 2.167E-02 2.661E-03 4.426E-02 1.812E+00 5.515E+03  3.2657 0.99993
  1.000E+04 1.011E+04 1.783E+00 2.275E-02 2.535E-02 3.014E-03 5.112E-02 1.834E+00 6.064E+03  3.4225 0.99995
  1.200E+04 1.211E+04 1.808E+00 2.858E-02 3.311E-02 3.725E-03 6.541E-02 1.873E+00 7.143E+03  3.7007 0.99996
  1.400E+04 1.411E+04 1.828E+00 3.461E-02 4.131E-02 4.436E-03 8.035E-02 1.908E+00 8.201E+03  3.9427 0.99997
  1.700E+04 1.711E+04 1.853E+00 4.398E-02 5.429E-02 5.485E-03 1.038E-01 1.957E+00 9.753E+03  4.2557 0.99998
  2.000E+04 2.011E+04 1.873E+00 5.368E-02 6.793E-02 6.510E-03 1.281E-01 2.001E+00 1.127E+04  4.5246 0.99999
  2.500E+04 2.511E+04 1.899E+00 7.042E-02 9.188E-02 8.188E-03 1.705E-01 2.070E+00 1.373E+04  4.9033 0.99999
  3.000E+04 3.011E+04 1.920E+00 8.777E-02 1.170E-01 9.829E-03 2.146E-01 2.135E+00 1.611E+04  5.2205 0.99999
  3.500E+04 3.511E+04 1.937E+00 1.056E-01 1.431E-01 1.148E-02 2.602E-01 2.197E+00 1.841E+04  5.4938 1.00000
  4.000E+04 4.011E+04 1.951E+00 1.238E-01 1.700E-01 1.312E-02 3.069E-01 2.258E+00 2.066E+04  5.7341 1.00000
  4.500E+04 4.511E+04 1.964E+00 1.424E-01 1.975E-01 1.472E-02 3.546E-01 2.318E+00 2.285E+04  5.9487 1.00000
  5.000E+04 5.011E+04 1.974E+00 1.613E-01 2.256E-01 1.633E-02 4.032E-01 2.378E+00 2.498E+04  6.1427 1.00000
  5.500E+04 5.511E+04 1.984E+00 1.805E-01 2.541E-01 1.795E-02 4.526E-01 2.437E+00 2.705E+04  6.3196 1.00000
  6.000E+04 6.011E+04 1.993E+00 1.999E-01 2.831E-01 1.954E-02 5.026E-01 2.495E+00 2.908E+04  6.4824 1.00000
  7.000E+04 7.011E+04 2.008E+00 2.394E-01 3.422E-01 2.271E-02 6.044E-01 2.612E+00 3.300E+04  6.7735 1.00000
  8.000E+04 8.011E+04 2.020E+00 2.796E-01 4.026E-01 2.588E-02 7.081E-01 2.728E+00 3.675E+04  7.0283 1.00000
  9.000E+04 9.011E+04 2.031E+00 3.205E-01 4.640E-01 2.904E-02 8.135E-01 2.845E+00 4.034E+04  7.2549 1.00000
  1.000E+05 1.001E+05 2.041E+00 3.619E-01 5.262E-01 3.215E-02 9.203E-01 2.961E+00 4.378E+04  7.4590 1.00000
  1.200E+05 1.201E+05 2.057E+00 4.461E-01 6.528E-01 3.846E-02 1.137E+00 3.195E+00 5.029E+04  7.8148 1.00000
  1.400E+05 1.401E+05 2.071E+00 5.319E-01 7.816E-01 4.477E-02 1.358E+00 3.429E+00 5.634E+04  8.1180 1.00000
  1.700E+05 1.701E+05 2.088E+00 6.629E-01 9.782E-01 5.422E-02 1.695E+00 3.783E+00 6.467E+04  8.5025 1.00000
  2.000E+05 2.001E+05 2.102E+00 7.961E-01 1.178E+00 6.372E-02 2.038E+00 4.140E+00 7.226E+04  8.8260 1.00000
  2.500E+05 2.501E+05 2.121E+00 1.022E+00 1.515E+00 7.957E-02 2.617E+00 4.738E+00 8.358E+04  9.2718 1.00000
  3.000E+05 3.001E+05 2.137E+00 1.252E+00 1.858E+00 9.554E-02 3.205E+00 5.342E+00 9.353E+04  9.6363 1.00000
  3.500E+05 3.501E+05 2.150E+00 1.485E+00 2.203E+00 1.117E-01 3.799E+00 5.949E+00 1.024E+05  9.9445 1.00000
  4.000E+05 4.001E+05 2.161E+00 1.720E+00 2.551E+00 1.279E-01 4.399E+00 6.560E+00 1.104E+05 10.2114 1.00000
  4.500E+05 4.501E+05 2.172E+00 1.957E+00 2.902E+00 1.442E-01 5.003E+00 7.174E+00 1.177E+05 10.4470 1.00000
  5.000E+05 5.001E+05 2.181E+00 2.196E+00 3.254E+00 1.606E-01 5.610E+00 7.791E+00 1.244E+05 10.6576 1.00000
  5.500E+05 5.501E+05 2.189E+00 2.436E+00 3.607E+00 1.769E-01 6.220E+00 8.409E+00 1.306E+05 10.8482 1.00000
  6.000E+05 6.001E+05 2.196E+00 2.678E+00 3.962E+00 1.933E-01 6.833E+00 9.029E+00 1.363E+05 11.0222 1.00000
  7.000E+05 7.001E+05 2.210E+00 3.164E+00 4.675E+00 2.263E-01 8.065E+00 1.027E+01 1.467E+05 11.3305 1.00000
  8.000E+05 8.001E+05 2.221E+00 3.654E+00 5.391E+00 2.597E-01 9.305E+00 1.153E+01 1.560E+05 11.5975 1.00000
  9.000E+05 9.001E+05 2.232E+00 4.147E+00 6.110E+00 2.934E-01 1.055E+01 1.278E+01 1.642E+05 11.8330 1.00000
  1.000E+06 1.000E+06 2.241E+00 4.643E+00 6.830E+00 3.274E-01 1.180E+01 1.404E+01 1.717E+05 12.0437 1.00000
  1.200E+06 1.200E+06 2.257E+00 5.639E+00 8.277E+00 3.962E-01 1.431E+01 1.657E+01 1.848E+05 12.4083 1.00000
  1.400E+06 1.400E+06 2.270E+00 6.643E+00 9.729E+00 4.660E-01 1.684E+01 1.911E+01 1.961E+05 12.7166 1.00000
  1.700E+06 1.700E+06 2.288E+00 8.157E+00 1.191E+01 5.722E-01 2.064E+01 2.293E+01 2.105E+05 13.1049 1.00000
  2.000E+06 2.000E+06 2.302E+00 9.680E+00 1.411E+01 6.802E-01 2.447E+01 2.677E+01 2.226E+05 13.4299 1.00000
  2.500E+06 2.500E+06 2.322E+00 1.223E+01 1.777E+01 8.634E-01 3.086E+01 3.319E+01 2.395E+05 13.8762 1.00000
  3.000E+06 3.000E+06 2.339E+00 1.480E+01 2.144E+01 1.050E+00 3.729E+01 3.963E+01 2.533E+05 14.2408 1.00000
  3.500E+06 3.500E+06 2.353E+00 1.737E+01 2.512E+01 1.240E+00 4.373E+01 4.608E+01 2.651E+05 14.5491 1.00000
  4.000E+06 4.000E+06 2.365E+00 1.995E+01 2.880E+01 1.432E+00 5.019E+01 5.255E+01 2.753E+05 14.8161 1.00000
  4.500E+06 4.500E+06 2.376E+00 2.254E+01 3.249E+01 1.627E+00 5.666E+01 5.903E+01 2.843E+05 15.0517 1.00000
  5.000E+06 5.000E+06 2.386E+00 2.513E+01 3.618E+01 1.824E+00 6.314E+01 6.552E+01 2.923E+05 15.2624 1.00000
  5.500E+06 5.500E+06 2.395E+00 2.772E+01 3.988E+01 2.023E+00 6.962E+01 7.202E+01 2.996E+05 15.4530 1.00000
  6.000E+06 6.000E+06 2.403E+00 3.032E+01 4.357E+01 2.224E+00 7.612E+01 7.852E+01 3.062E+05 15.6271 1.00000
  7.000E+06 7.000E+06 2.418E+00 3.553E+01 5.097E+01 2.630E+00 8.913E+01 9.154E+01 3.181E+05 15.9353 1.00000
  8.000E+06 8.000E+06 2.430E+00 4.074E+01 5.837E+01 3.043E+00 1.022E+02 1.046E+02 3.283E+05 16.2024 1.00000
  9.000E+06 9.000E+06 2.441E+00 4.596E+01 6.578E+01 3.461E+00 1.152E+02 1.176E+02 3.374E+05 16.4380 1.00000
  1.000E+07 1.000E+07 2.451E+00 5.119E+01 7.318E+01 3.884E+00 1.283E+02 1.307E+02 3.454E+05 16.6487 1.00000
  1.200E+07 1.200E+07 2.469E+00 6.165E+01 8.801E+01 4.743E+00 1.544E+02 1.569E+02 3.595E+05 17.0133 1.00000
  1.400E+07 1.400E+07 2.484E+00 7.213E+01 1.028E+02 5.617E+00 1.806E+02 1.831E+02 3.713E+05 17.3216 1.00000
  1.700E+07 1.700E+07 2.503E+00 8.787E+01 1.251E+02 6.953E+00 2.199E+02 2.224E+02 3.862E+05 17.7099 1.00000
  2.000E+07 2.000E+07 2.519E+00 1.036E+02 1.474E+02 8.315E+00 2.593E+02 2.618E+02 3.987E+05 18.0350 1.00000
  2.500E+07 2.500E+07 2.541E+00 1.299E+02 1.845E+02 1.063E+01 3.250E+02 3.276E+02 4.159E+05 18.4813 1.00000
  3.000E+07 3.000E+07 2.560E+00 1.562E+02 2.217E+02 1.300E+01 3.909E+02 3.934E+02 4.299E+05 18.8459 1.00000
  3.500E+07 3.500E+07 2.575E+00 1.825E+02 2.588E+02 1.541E+01 4.567E+02 4.593E+02 4.417E+05 19.1542 1.00000
  4.000E+07 4.000E+07 2.589E+00 2.089E+02 2.960E+02 1.787E+01 5.227E+02 5.253E+02 4.519E+05 19.4213 1.00000
  4.500E+07 4.500E+07 2.601E+00 2.352E+02 3.331E+02 2.035E+01 5.887E+02 5.913E+02 4.609E+05 19.6568 1.00000
  5.000E+07 5.000E+07 2.612E+00 2.615E+02 3.703E+02 2.287E+01 6.547E+02 6.573E+02 4.689E+05 19.8675 1.00000
  5.500E+07 5.500E+07 2.622E+00 2.879E+02 4.075E+02 2.541E+01 7.208E+02 7.234E+02 4.761E+05 20.0582 1.00000
  6.000E+07 6.000E+07 2.631E+00 3.142E+02 4.446E+02 2.798E+01 7.869E+02 7.895E+02 4.828E+05 20.2322 1.00000
  7.000E+07 7.000E+07 2.647E+00 3.670E+02 5.190E+02 3.319E+01 9.191E+02 9.218E+02 4.945E+05 20.5405 1.00000
  8.000E+07 8.000E+07 2.661E+00 4.197E+02 5.933E+02 3.849E+01 1.052E+03 1.054E+03 5.047E+05 20.8076 1.00000
  9.000E+07 9.000E+07 2.674E+00 4.724E+02 6.677E+02 4.386E+01 1.184E+03 1.187E+03 5.136E+05 21.0431 1.00000
  1.000E+08 1.000E+08 2.685E+00 5.252E+02 7.421E+02 4.930E+01 1.317E+03 1.319E+03 5.217E+05 21.2538 1.00000
  1.200E+08 1.200E+08 2.704E+00 6.307E+02 8.908E+02 6.036E+01 1.582E+03 1.585E+03 5.355E+05 21.6185 1.00000
  1.400E+08 1.400E+08 2.721E+00 7.362E+02 1.040E+03 7.162E+01 1.847E+03 1.850E+03 5.473E+05 21.9268 1.00000
  1.700E+08 1.700E+08 2.742E+00 8.946E+02 1.263E+03 8.887E+01 2.246E+03 2.249E+03 5.620E+05 22.3151 1.00000
  2.000E+08 2.000E+08 2.760E+00 1.053E+03 1.486E+03 1.065E+02 2.645E+03 2.648E+03 5.744E+05 22.6401 1.00000
  2.500E+08 2.500E+08 2.785E+00 1.317E+03 1.858E+03 1.365E+02 3.311E+03 3.314E+03 5.914E+05 23.0864 1.00000
  3.000E+08 3.000E+08 2.805E+00 1.581E+03 2.229E+03 1.672E+02 3.977E+03 3.980E+03 6.052E+05 23.4511 1.00000
  3.500E+08 3.500E+08 2.823E+00 1.845E+03 2.601E+03 1.985E+02 4.645E+03 4.647E+03 6.168E+05 23.7594 1.00000
  4.000E+08 4.000E+08 2.838E+00 2.109E+03 2.973E+03 2.303E+02 5.312E+03 5.315E+03 6.269E+05 24.0264 1.00000
  4.500E+08 4.500E+08 2.852E+00 2.373E+03 3.345E+03 2.626E+02 5.980E+03 5.983E+03 6.358E+05 24.2620 1.00000
  5.000E+08 5.000E+08 2.864E+00 2.637E+03 3.717E+03 2.953E+02 6.649E+03 6.652E+03 6.437E+05 24.4727 1.00000
  5.500E+08 5.500E+08 2.875E+00 2.901E+03 4.089E+03 3.284E+02 7.318E+03 7.321E+03 6.509E+05 24.6633 1.00000
  6.000E+08 6.000E+08 2.885E+00 3.165E+03 4.461E+03 3.618E+02 7.987E+03 7.990E+03 6.575E+05 24.8374 1.00000
  7.000E+08 7.000E+08 2.903E+00 3.693E+03 5.204E+03 4.297E+02 9.327E+03 9.330E+03 6.691E+05 25.1457 1.00000
  8.000E+08 8.000E+08 2.919E+00 4.221E+03 5.948E+03 4.988E+02 1.067E+04 1.067E+04 6.791E+05 25.4127 1.00000
  9.000E+08 9.000E+08 2.933E+00 4.749E+03 6.692E+03 5.688E+02 1.201E+04 1.201E+04 6.880E+05 25.6483 1.00000
  1.000E+09 1.000E+09 2.945E+00 5.277E+03 7.435E+03 6.398E+02 1.335E+04 1.335E+04 6.959E+05 25.8590 1.00000
