 Incident particle is a Muon with M = 105.65839 MeV
 Index = 0: LithiumTetraborate
      Absorber with <Z/A> = 0.48479
 Sternheimer coef:  a     k=m_s   x_0    x_1    I[eV]   Cbar  delta0
                 0.1107  3.4389  0.0737  2.6502   94.6  3.2093 0.00

 *** Table generated with PUMAS v1.00 ***

      T         p     Ionization  brems     pair     photonuc  Radloss    dE/dx   CSDA Range  delta   beta
    [MeV]    [MeV/c]  -----------------------[MeV cm^2/g]------------------------  [g/cm^2]
  1.000E+00 1.457E+01 4.229E+01 7.198E-07 0.000E+00 0.000E+00 7.198E-07 4.229E+01 1.182E-02  0.0000 0.13661
  1.200E+00 1.597E+01 3.654E+01 8.251E-07 0.000E+00 0.000E+00 8.251E-07 3.654E+01 1.692E-02  0.0000 0.14944
  1.400E+00 1.726E+01 3.227E+01 9.257E-07 0.000E+00 0.000E+00 9.257E-07 3.227E+01 2.276E-02  0.0000 0.16119
  1.700E+00 1.903E+01 2.759E+01 1.069E-06 0.000E+00 0.000E+00 1.069E-06 2.759E+01 3.285E-02  0.0000 0.17725
  2.000E+00 2.066E+01 2.419E+01 1.205E-06 0.000E+00 0.000E+00 1.205E-06 2.419E+01 4.448E-02  0.0000 0.19186
  2.500E+00 2.312E+01 2.019E+01 1.418E-06 0.000E+00 0.000E+00 1.418E-06 2.019E+01 6.720E-02  0.0000 0.21376
  3.000E+00 2.536E+01 1.742E+01 1.618E-06 0.000E+00 0.000E+00 1.618E-06 1.742E+01 9.393E-02  0.0000 0.23336
  3.500E+00 2.742E+01 1.539E+01 1.806E-06 0.000E+00 0.000E+00 1.806E-06 1.539E+01 1.245E-01  0.0000 0.25120
  4.000E+00 2.935E+01 1.382E+01 1.985E-06 0.000E+00 0.000E+00 1.985E-06 1.382E+01 1.589E-01  0.0000 0.26763
  4.500E+00 3.116E+01 1.258E+01 2.156E-06 0.000E+00 0.000E+00 2.156E-06 1.258E+01 1.968E-01  0.0000 0.28290
  5.000E+00 3.289E+01 1.156E+01 2.319E-06 0.000E+00 0.000E+00 2.319E-06 1.156E+01 2.383E-01  0.0000 0.29720
  5.500E+00 3.453E+01 1.072E+01 2.477E-06 0.000E+00 0.000E+00 2.477E-06 1.072E+01 2.833E-01  0.0000 0.31066
  6.000E+00 3.611E+01 1.001E+01 2.629E-06 0.000E+00 0.000E+00 2.629E-06 1.001E+01 3.316E-01  0.0000 0.32339
  7.000E+00 3.909E+01 8.869E+00 2.918E-06 0.000E+00 0.000E+00 2.918E-06 8.869E+00 4.379E-01  0.0000 0.34700
  8.000E+00 4.189E+01 7.997E+00 3.190E-06 0.000E+00 0.000E+00 3.190E-06 7.997E+00 5.568E-01  0.0000 0.36854
  9.000E+00 4.453E+01 7.307E+00 3.449E-06 0.000E+00 0.000E+00 3.449E-06 7.307E+00 6.878E-01  0.0000 0.38836
  1.000E+01 4.704E+01 6.747E+00 3.696E-06 0.000E+00 0.000E+00 3.696E-06 6.747E+00 8.303E-01  0.0000 0.40675
  1.200E+01 5.177E+01 5.892E+00 4.160E-06 0.000E+00 0.000E+00 4.160E-06 5.892E+00 1.148E+00  0.0000 0.43998
  1.400E+01 5.616E+01 5.269E+00 4.592E-06 0.000E+00 0.000E+00 4.592E-06 5.269E+00 1.508E+00  0.0000 0.46937
  1.700E+01 6.230E+01 4.598E+00 5.196E-06 0.000E+00 0.000E+00 5.196E-06 4.598E+00 2.119E+00  0.0000 0.50792
  2.000E+01 6.802E+01 4.120E+00 5.758E-06 0.000E+00 0.000E+00 5.758E-06 4.120E+00 2.809E+00  0.0000 0.54129
  2.500E+01 7.686E+01 3.570E+00 6.631E-06 0.000E+00 0.000E+00 6.631E-06 3.570E+00 4.116E+00  0.0000 0.58827
  3.000E+01 8.509E+01 3.200E+00 7.450E-06 0.000E+00 0.000E+00 7.450E-06 3.200E+00 5.598E+00  0.0000 0.62720
  3.500E+01 9.285E+01 2.934E+00 8.232E-06 0.000E+00 0.000E+00 8.232E-06 2.934E+00 7.231E+00  0.0000 0.66011
  4.000E+01 1.003E+02 2.734E+00 8.990E-06 0.000E+00 0.000E+00 8.990E-06 2.734E+00 8.998E+00  0.0000 0.68834
  4.500E+01 1.074E+02 2.580E+00 9.733E-06 0.000E+00 0.000E+00 9.733E-06 2.580E+00 1.088E+01  0.0000 0.71286
  5.000E+01 1.143E+02 2.457E+00 1.047E-05 0.000E+00 0.000E+00 1.047E-05 2.457E+00 1.287E+01  0.0000 0.73434
  5.500E+01 1.210E+02 2.357E+00 1.119E-05 0.000E+00 0.000E+00 1.119E-05 2.357E+00 1.495E+01  0.0000 0.75332
  6.000E+01 1.276E+02 2.274E+00 1.192E-05 0.000E+00 0.000E+00 1.192E-05 2.274E+00 1.711E+01  0.0050 0.77019
  7.000E+01 1.403E+02 2.143E+00 1.336E-05 0.000E+00 0.000E+00 1.336E-05 2.143E+00 2.164E+01  0.0414 0.79887
  8.000E+01 1.527E+02 2.048E+00 1.482E-05 0.000E+00 0.000E+00 1.482E-05 2.048E+00 2.641E+01  0.0786 0.82227
  9.000E+01 1.647E+02 1.976E+00 1.630E-05 0.000E+00 0.000E+00 1.630E-05 1.976E+00 3.138E+01  0.1161 0.84166
  1.000E+02 1.764E+02 1.920E+00 1.780E-05 0.000E+00 0.000E+00 1.780E-05 1.920E+00 3.652E+01  0.1533 0.85794
  1.200E+02 1.994E+02 1.841E+00 2.087E-05 0.000E+00 0.000E+00 2.087E-05 1.841E+00 4.716E+01  0.2267 0.88361
  1.400E+02 2.218E+02 1.790E+00 2.405E-05 0.000E+00 0.000E+00 2.405E-05 1.790E+00 5.818E+01  0.2980 0.90278
  1.700E+02 2.546E+02 1.742E+00 2.902E-05 4.281E-14 0.000E+00 2.902E-05 1.742E+00 7.517E+01  0.4004 0.92363
  2.000E+02 2.868E+02 1.715E+00 3.423E-05 9.568E-12 0.000E+00 3.423E-05 1.715E+00 9.252E+01  0.4974 0.93835
  2.500E+02 3.396E+02 1.694E+00 4.344E-05 7.869E-08 0.000E+00 4.352E-05 1.694E+00 1.219E+02  0.6485 0.95485
  3.000E+02 3.917E+02 1.688E+00 5.323E-05 6.990E-07 0.000E+00 5.393E-05 1.688E+00 1.514E+02  0.7876 0.96548
  3.500E+02 4.432E+02 1.689E+00 6.356E-05 1.923E-06 0.000E+00 6.549E-05 1.689E+00 1.810E+02  0.9166 0.97274
  4.000E+02 4.945E+02 1.694E+00 7.439E-05 3.724E-06 0.000E+00 7.811E-05 1.695E+00 2.106E+02  1.0369 0.97793
  4.500E+02 5.455E+02 1.702E+00 8.567E-05 6.079E-06 0.000E+00 9.175E-05 1.702E+00 2.400E+02  1.1497 0.98176
  5.000E+02 5.964E+02 1.710E+00 9.737E-05 8.970E-06 0.000E+00 1.063E-04 1.710E+00 2.693E+02  1.2558 0.98467
  5.500E+02 6.471E+02 1.718E+00 1.095E-04 1.238E-05 0.000E+00 1.218E-04 1.719E+00 2.985E+02  1.3560 0.98693
  6.000E+02 6.977E+02 1.727E+00 1.219E-04 1.629E-05 0.000E+00 1.382E-04 1.727E+00 3.275E+02  1.4511 0.98873
  7.000E+02 7.987E+02 1.744E+00 1.479E-04 2.553E-05 0.000E+00 1.734E-04 1.745E+00 3.851E+02  1.6276 0.99136
  8.000E+02 8.995E+02 1.761E+00 1.750E-04 3.658E-05 0.000E+00 2.116E-04 1.761E+00 4.422E+02  1.7887 0.99317
  9.000E+02 1.000E+03 1.776E+00 2.034E-04 4.932E-05 0.000E+00 2.527E-04 1.777E+00 4.987E+02  1.9371 0.99447
  1.000E+03 1.101E+03 1.791E+00 2.327E-04 6.364E-05 0.000E+00 2.963E-04 1.791E+00 5.548E+02  2.0747 0.99542
  1.200E+03 1.301E+03 1.817E+00 2.941E-04 9.669E-05 2.255E-05 4.133E-04 1.817E+00 6.656E+02  2.3231 0.99672
  1.400E+03 1.502E+03 1.839E+00 3.587E-04 1.351E-04 6.176E-05 5.556E-04 1.840E+00 7.750E+02  2.5431 0.99753
  1.700E+03 1.803E+03 1.868E+00 4.610E-04 2.016E-04 1.325E-04 7.951E-04 1.869E+00 9.368E+02  2.8323 0.99829
  2.000E+03 2.103E+03 1.893E+00 5.688E-04 2.777E-04 2.159E-04 1.062E-03 1.894E+00 1.096E+03  3.0842 0.99874
  2.500E+03 2.604E+03 1.926E+00 7.588E-04 4.227E-04 3.776E-04 1.559E-03 1.928E+00 1.358E+03  3.4436 0.99918
  3.000E+03 3.104E+03 1.954E+00 9.599E-04 5.874E-04 5.478E-04 2.095E-03 1.956E+00 1.615E+03  3.7479 0.99942
  3.500E+03 3.604E+03 1.976E+00 1.170E-03 7.690E-04 7.284E-04 2.668E-03 1.979E+00 1.870E+03  4.0120 0.99957
  4.000E+03 4.104E+03 1.996E+00 1.389E-03 9.790E-04 9.218E-04 3.290E-03 1.999E+00 2.121E+03  4.2455 0.99967
  4.500E+03 4.604E+03 2.013E+00 1.615E-03 1.208E-03 1.123E-03 3.946E-03 2.017E+00 2.370E+03  4.4547 0.99974
  5.000E+03 5.105E+03 2.028E+00 1.847E-03 1.451E-03 1.317E-03 4.615E-03 2.032E+00 2.617E+03  4.6444 0.99979
  5.500E+03 5.605E+03 2.041E+00 2.085E-03 1.707E-03 1.526E-03 5.318E-03 2.047E+00 2.862E+03  4.8178 0.99982
  6.000E+03 6.105E+03 2.053E+00 2.329E-03 1.973E-03 1.721E-03 6.023E-03 2.059E+00 3.106E+03  4.9776 0.99985
  7.000E+03 7.105E+03 2.074E+00 2.831E-03 2.538E-03 2.134E-03 7.503E-03 2.082E+00 3.589E+03  5.2639 0.99989
  8.000E+03 8.105E+03 2.092E+00 3.350E-03 3.139E-03 2.546E-03 9.035E-03 2.101E+00 4.067E+03  5.5149 0.99992
  9.000E+03 9.105E+03 2.108E+00 3.885E-03 3.773E-03 2.933E-03 1.059E-02 2.119E+00 4.541E+03  5.7383 0.99993
  1.000E+04 1.011E+04 2.122E+00 4.433E-03 4.436E-03 3.334E-03 1.220E-02 2.134E+00 5.011E+03  5.9397 0.99995
  1.200E+04 1.211E+04 2.145E+00 5.565E-03 5.836E-03 4.147E-03 1.555E-02 2.161E+00 5.942E+03  6.2912 0.99996
  1.400E+04 1.411E+04 2.164E+00 6.739E-03 7.324E-03 4.963E-03 1.903E-02 2.183E+00 6.863E+03  6.5909 0.99997
  1.700E+04 1.711E+04 2.188E+00 8.564E-03 9.691E-03 6.174E-03 2.443E-02 2.213E+00 8.228E+03  6.9712 0.99998
  2.000E+04 2.011E+04 2.208E+00 1.046E-02 1.220E-02 7.365E-03 3.002E-02 2.238E+00 9.576E+03  7.2914 0.99999
  2.500E+04 2.511E+04 2.233E+00 1.373E-02 1.661E-02 9.324E-03 3.967E-02 2.273E+00 1.179E+04  7.7333 0.99999
  3.000E+04 3.011E+04 2.254E+00 1.713E-02 2.128E-02 1.125E-02 4.966E-02 2.304E+00 1.398E+04  8.0956 0.99999
  3.500E+04 3.511E+04 2.271E+00 2.063E-02 2.615E-02 1.320E-02 5.999E-02 2.331E+00 1.614E+04  8.4026 1.00000
  4.000E+04 4.011E+04 2.286E+00 2.422E-02 3.120E-02 1.513E-02 7.055E-02 2.356E+00 1.827E+04  8.6688 1.00000
  4.500E+04 4.511E+04 2.299E+00 2.788E-02 3.638E-02 1.704E-02 8.130E-02 2.380E+00 2.038E+04  8.9038 1.00000
  5.000E+04 5.011E+04 2.310E+00 3.161E-02 4.170E-02 1.895E-02 9.226E-02 2.402E+00 2.247E+04  9.1141 1.00000
  5.500E+04 5.511E+04 2.320E+00 3.540E-02 4.712E-02 2.088E-02 1.034E-01 2.423E+00 2.454E+04  9.3043 1.00000
  6.000E+04 6.011E+04 2.329E+00 3.924E-02 5.264E-02 2.278E-02 1.147E-01 2.444E+00 2.660E+04  9.4780 1.00000
  7.000E+04 7.011E+04 2.345E+00 4.707E-02 6.394E-02 2.657E-02 1.376E-01 2.483E+00 3.066E+04  9.7858 1.00000
  8.000E+04 8.011E+04 2.359E+00 5.506E-02 7.553E-02 3.037E-02 1.610E-01 2.520E+00 3.466E+04 10.0525 1.00000
  9.000E+04 9.011E+04 2.371E+00 6.319E-02 8.737E-02 3.418E-02 1.847E-01 2.556E+00 3.860E+04 10.2878 1.00000
  1.000E+05 1.001E+05 2.382E+00 7.145E-02 9.942E-02 3.791E-02 2.088E-01 2.591E+00 4.248E+04 10.4982 1.00000
  1.200E+05 1.201E+05 2.400E+00 8.828E-02 1.240E-01 4.552E-02 2.578E-01 2.658E+00 5.011E+04 10.8625 1.00000
  1.400E+05 1.401E+05 2.416E+00 1.055E-01 1.492E-01 5.314E-02 3.079E-01 2.724E+00 5.754E+04 11.1706 1.00000
  1.700E+05 1.701E+05 2.435E+00 1.318E-01 1.879E-01 6.459E-02 3.843E-01 2.819E+00 6.837E+04 11.5586 1.00000
  2.000E+05 2.001E+05 2.451E+00 1.586E-01 2.273E-01 7.611E-02 4.621E-01 2.913E+00 7.884E+04 11.8835 1.00000
  2.500E+05 2.501E+05 2.473E+00 2.043E-01 2.944E-01 9.539E-02 5.941E-01 3.068E+00 9.557E+04 12.3296 1.00000
  3.000E+05 3.001E+05 2.492E+00 2.510E-01 3.627E-01 1.148E-01 7.285E-01 3.220E+00 1.115E+05 12.6941 1.00000
  3.500E+05 3.501E+05 2.507E+00 2.983E-01 4.320E-01 1.345E-01 8.648E-01 3.372E+00 1.267E+05 13.0023 1.00000
  4.000E+05 4.001E+05 2.520E+00 3.463E-01 5.020E-01 1.543E-01 1.003E+00 3.523E+00 1.412E+05 13.2692 1.00000
  4.500E+05 4.501E+05 2.532E+00 3.947E-01 5.727E-01 1.742E-01 1.142E+00 3.674E+00 1.551E+05 13.5048 1.00000
  5.000E+05 5.001E+05 2.542E+00 4.437E-01 6.439E-01 1.943E-01 1.282E+00 3.824E+00 1.684E+05 13.7154 1.00000
  5.500E+05 5.501E+05 2.552E+00 4.930E-01 7.155E-01 2.142E-01 1.423E+00 3.975E+00 1.812E+05 13.9060 1.00000
  6.000E+05 6.001E+05 2.561E+00 5.426E-01 7.875E-01 2.342E-01 1.564E+00 4.125E+00 1.936E+05 14.0800 1.00000
  7.000E+05 7.001E+05 2.576E+00 6.428E-01 9.323E-01 2.747E-01 1.850E+00 4.426E+00 2.170E+05 14.3883 1.00000
  8.000E+05 8.001E+05 2.590E+00 7.439E-01 1.078E+00 3.156E-01 2.138E+00 4.727E+00 2.389E+05 14.6553 1.00000
  9.000E+05 9.001E+05 2.601E+00 8.458E-01 1.225E+00 3.569E-01 2.428E+00 5.029E+00 2.594E+05 14.8908 1.00000
  1.000E+06 1.000E+06 2.612E+00 9.484E-01 1.372E+00 3.985E-01 2.719E+00 5.331E+00 2.787E+05 15.1015 1.00000
  1.200E+06 1.200E+06 2.631E+00 1.155E+00 1.669E+00 4.829E-01 3.307E+00 5.938E+00 3.143E+05 15.4661 1.00000
  1.400E+06 1.400E+06 2.646E+00 1.364E+00 1.967E+00 5.685E-01 3.900E+00 6.546E+00 3.464E+05 15.7744 1.00000
  1.700E+06 1.700E+06 2.666E+00 1.680E+00 2.416E+00 6.989E-01 4.795E+00 7.462E+00 3.895E+05 16.1627 1.00000
  2.000E+06 2.000E+06 2.683E+00 1.998E+00 2.868E+00 8.314E-01 5.698E+00 8.381E+00 4.275E+05 16.4877 1.00000
  2.500E+06 2.500E+06 2.707E+00 2.533E+00 3.624E+00 1.056E+00 7.214E+00 9.920E+00 4.825E+05 16.9340 1.00000
  3.000E+06 3.000E+06 2.726E+00 3.072E+00 4.383E+00 1.286E+00 8.741E+00 1.147E+01 5.295E+05 17.2986 1.00000
  3.500E+06 3.500E+06 2.742E+00 3.614E+00 5.144E+00 1.519E+00 1.028E+01 1.302E+01 5.705E+05 17.6069 1.00000
  4.000E+06 4.000E+06 2.756E+00 4.158E+00 5.907E+00 1.755E+00 1.182E+01 1.458E+01 6.068E+05 17.8739 1.00000
  4.500E+06 4.500E+06 2.769E+00 4.705E+00 6.671E+00 1.994E+00 1.337E+01 1.614E+01 6.395E+05 18.1095 1.00000
  5.000E+06 5.000E+06 2.780E+00 5.252E+00 7.436E+00 2.236E+00 1.493E+01 1.771E+01 6.691E+05 18.3202 1.00000
  5.500E+06 5.500E+06 2.791E+00 5.801E+00 8.202E+00 2.481E+00 1.648E+01 1.928E+01 6.962E+05 18.5108 1.00000
  6.000E+06 6.000E+06 2.800E+00 6.352E+00 8.969E+00 2.728E+00 1.805E+01 2.085E+01 7.211E+05 18.6849 1.00000
  7.000E+06 7.000E+06 2.817E+00 7.455E+00 1.050E+01 3.228E+00 2.119E+01 2.400E+01 7.660E+05 18.9931 1.00000
  8.000E+06 8.000E+06 2.832E+00 8.561E+00 1.204E+01 3.735E+00 2.434E+01 2.717E+01 8.052E+05 19.2602 1.00000
  9.000E+06 9.000E+06 2.845E+00 9.670E+00 1.358E+01 4.249E+00 2.750E+01 3.034E+01 8.401E+05 19.4958 1.00000
  1.000E+07 1.000E+07 2.856E+00 1.078E+01 1.512E+01 4.769E+00 3.067E+01 3.353E+01 8.715E+05 19.7065 1.00000
  1.200E+07 1.200E+07 2.877E+00 1.301E+01 1.820E+01 5.825E+00 3.703E+01 3.991E+01 9.264E+05 20.0711 1.00000
  1.400E+07 1.400E+07 2.894E+00 1.524E+01 2.129E+01 6.900E+00 4.342E+01 4.632E+01 9.730E+05 20.3794 1.00000
  1.700E+07 1.700E+07 2.916E+00 1.859E+01 2.592E+01 8.543E+00 5.305E+01 5.597E+01 1.032E+06 20.7677 1.00000
  2.000E+07 2.000E+07 2.935E+00 2.196E+01 3.055E+01 1.022E+01 6.272E+01 6.566E+01 1.082E+06 21.0928 1.00000
  2.500E+07 2.500E+07 2.960E+00 2.757E+01 3.828E+01 1.307E+01 7.891E+01 8.187E+01 1.150E+06 21.5391 1.00000
  3.000E+07 3.000E+07 2.982E+00 3.319E+01 4.601E+01 1.598E+01 9.518E+01 9.816E+01 1.206E+06 21.9037 1.00000
  3.500E+07 3.500E+07 3.000E+00 3.881E+01 5.374E+01 1.895E+01 1.115E+02 1.145E+02 1.254E+06 22.2120 1.00000
  4.000E+07 4.000E+07 3.016E+00 4.445E+01 6.148E+01 2.196E+01 1.279E+02 1.309E+02 1.295E+06 22.4791 1.00000
  4.500E+07 4.500E+07 3.030E+00 5.008E+01 6.921E+01 2.502E+01 1.443E+02 1.473E+02 1.331E+06 22.7146 1.00000
  5.000E+07 5.000E+07 3.042E+00 5.572E+01 7.695E+01 2.812E+01 1.608E+02 1.638E+02 1.363E+06 22.9253 1.00000
  5.500E+07 5.500E+07 3.054E+00 6.136E+01 8.469E+01 3.124E+01 1.773E+02 1.804E+02 1.392E+06 23.1160 1.00000
  6.000E+07 6.000E+07 3.064E+00 6.700E+01 9.243E+01 3.441E+01 1.938E+02 1.969E+02 1.419E+06 23.2900 1.00000
  7.000E+07 7.000E+07 3.083E+00 7.829E+01 1.079E+02 4.082E+01 2.270E+02 2.301E+02 1.466E+06 23.5983 1.00000
  8.000E+07 8.000E+07 3.099E+00 8.959E+01 1.234E+02 4.733E+01 2.603E+02 2.634E+02 1.506E+06 23.8654 1.00000
  9.000E+07 9.000E+07 3.114E+00 1.009E+02 1.389E+02 5.393E+01 2.937E+02 2.968E+02 1.542E+06 24.1009 1.00000
  1.000E+08 1.000E+08 3.127E+00 1.122E+02 1.544E+02 6.062E+01 3.272E+02 3.303E+02 1.574E+06 24.3116 1.00000
  1.200E+08 1.200E+08 3.149E+00 1.348E+02 1.854E+02 7.422E+01 3.944E+02 3.975E+02 1.630E+06 24.6763 1.00000
  1.400E+08 1.400E+08 3.169E+00 1.574E+02 2.163E+02 8.808E+01 4.619E+02 4.650E+02 1.676E+06 24.9846 1.00000
  1.700E+08 1.700E+08 3.193E+00 1.914E+02 2.628E+02 1.093E+02 5.635E+02 5.667E+02 1.735E+06 25.3729 1.00000
  2.000E+08 2.000E+08 3.214E+00 2.253E+02 3.093E+02 1.309E+02 6.656E+02 6.688E+02 1.784E+06 25.6979 1.00000
  2.500E+08 2.500E+08 3.243E+00 2.819E+02 3.868E+02 1.678E+02 8.365E+02 8.398E+02 1.851E+06 26.1442 1.00000
  3.000E+08 3.000E+08 3.266E+00 3.385E+02 4.642E+02 2.056E+02 1.008E+03 1.012E+03 1.906E+06 26.5089 1.00000
  3.500E+08 3.500E+08 3.287E+00 3.952E+02 5.417E+02 2.441E+02 1.181E+03 1.184E+03 1.951E+06 26.8172 1.00000
  4.000E+08 4.000E+08 3.304E+00 4.518E+02 6.192E+02 2.832E+02 1.354E+03 1.357E+03 1.991E+06 27.0842 1.00000
  4.500E+08 4.500E+08 3.320E+00 5.084E+02 6.967E+02 3.229E+02 1.528E+03 1.531E+03 2.026E+06 27.3198 1.00000
  5.000E+08 5.000E+08 3.334E+00 5.651E+02 7.741E+02 3.632E+02 1.702E+03 1.706E+03 2.057E+06 27.5305 1.00000
  5.500E+08 5.500E+08 3.347E+00 6.217E+02 8.516E+02 4.039E+02 1.877E+03 1.881E+03 2.085E+06 27.7211 1.00000
  6.000E+08 6.000E+08 3.358E+00 6.783E+02 9.291E+02 4.450E+02 2.052E+03 2.056E+03 2.110E+06 27.8952 1.00000
  7.000E+08 7.000E+08 3.379E+00 7.916E+02 1.084E+03 5.285E+02 2.404E+03 2.408E+03 2.155E+06 28.2035 1.00000
  8.000E+08 8.000E+08 3.398E+00 9.049E+02 1.239E+03 6.134E+02 2.757E+03 2.761E+03 2.194E+06 28.4705 1.00000
  9.000E+08 9.000E+08 3.414E+00 1.018E+03 1.394E+03 6.996E+02 3.112E+03 3.115E+03 2.228E+06 28.7061 1.00000
  1.000E+09 1.000E+09 3.428E+00 1.132E+03 1.549E+03 7.869E+02 3.467E+03 3.471E+03 2.259E+06 28.9168 1.00000
