 Incident particle is a Muon with M = 105.65839 MeV
 Index = 0: LithiumHydride
      Absorber with <Z/A> = 0.50306
 Sternheimer coef:  a     k=m_s   x_0    x_1    I[eV]   Cbar  delta0
                 0.9057  2.5849  0.0988  1.4515   36.5  2.3580 0.00

 *** Table generated with PUMAS v1.00 ***

      T         p     Ionization  brems     pair     photonuc  Radloss    dE/dx   CSDA Range  delta   beta
    [MeV]    [MeV/c]  -----------------------[MeV cm^2/g]------------------------  [g/cm^2]
  1.000E+00 1.457E+01 5.177E+01 3.126E-07 0.000E+00 0.000E+00 3.126E-07 5.177E+01 9.659E-03  0.0000 0.13661
  1.200E+00 1.597E+01 4.450E+01 3.550E-07 0.000E+00 0.000E+00 3.550E-07 4.450E+01 1.384E-02  0.0000 0.14944
  1.400E+00 1.726E+01 3.915E+01 3.955E-07 0.000E+00 0.000E+00 3.955E-07 3.915E+01 1.864E-02  0.0000 0.16119
  1.700E+00 1.903E+01 3.331E+01 4.536E-07 0.000E+00 0.000E+00 4.536E-07 3.331E+01 2.697E-02  0.0000 0.17725
  2.000E+00 2.066E+01 2.910E+01 5.088E-07 0.000E+00 0.000E+00 5.088E-07 2.910E+01 3.663E-02  0.0000 0.19186
  2.500E+00 2.312E+01 2.417E+01 5.956E-07 0.000E+00 0.000E+00 5.956E-07 2.417E+01 5.556E-02  0.0000 0.21376
  3.000E+00 2.536E+01 2.078E+01 6.773E-07 0.000E+00 0.000E+00 6.773E-07 2.078E+01 7.794E-02  0.0000 0.23336
  3.500E+00 2.742E+01 1.830E+01 7.546E-07 0.000E+00 0.000E+00 7.546E-07 1.830E+01 1.036E-01  0.0000 0.25120
  4.000E+00 2.935E+01 1.639E+01 8.283E-07 0.000E+00 0.000E+00 8.283E-07 1.639E+01 1.325E-01  0.0000 0.26763
  4.500E+00 3.116E+01 1.489E+01 8.989E-07 0.000E+00 0.000E+00 8.989E-07 1.489E+01 1.646E-01  0.0000 0.28290
  5.000E+00 3.289E+01 1.366E+01 9.667E-07 0.000E+00 0.000E+00 9.667E-07 1.366E+01 1.997E-01  0.0000 0.29720
  5.500E+00 3.453E+01 1.265E+01 1.032E-06 0.000E+00 0.000E+00 1.032E-06 1.265E+01 2.377E-01  0.0000 0.31066
  6.000E+00 3.611E+01 1.179E+01 1.095E-06 0.000E+00 0.000E+00 1.095E-06 1.179E+01 2.787E-01  0.0000 0.32339
  7.000E+00 3.909E+01 1.042E+01 1.216E-06 0.000E+00 0.000E+00 1.216E-06 1.042E+01 3.691E-01  0.0000 0.34700
  8.000E+00 4.189E+01 9.382E+00 1.330E-06 0.000E+00 0.000E+00 1.330E-06 9.382E+00 4.703E-01  0.0000 0.36854
  9.000E+00 4.453E+01 8.558E+00 1.439E-06 0.000E+00 0.000E+00 1.439E-06 8.558E+00 5.820E-01  0.0000 0.38836
  1.000E+01 4.704E+01 7.891E+00 1.543E-06 0.000E+00 0.000E+00 1.543E-06 7.891E+00 7.038E-01  0.0000 0.40675
  1.200E+01 5.177E+01 6.874E+00 1.740E-06 0.000E+00 0.000E+00 1.740E-06 6.874E+00 9.760E-01  0.0000 0.43998
  1.400E+01 5.616E+01 6.136E+00 1.924E-06 0.000E+00 0.000E+00 1.924E-06 6.136E+00 1.284E+00  0.0000 0.46937
  1.700E+01 6.230E+01 5.341E+00 2.182E-06 0.000E+00 0.000E+00 2.182E-06 5.341E+00 1.810E+00  0.0000 0.50792
  2.000E+01 6.802E+01 4.777E+00 2.423E-06 0.000E+00 0.000E+00 2.423E-06 4.777E+00 2.405E+00  0.0000 0.54129
  2.500E+01 7.686E+01 4.130E+00 2.798E-06 0.000E+00 0.000E+00 2.798E-06 4.130E+00 3.533E+00  0.0000 0.58827
  3.000E+01 8.509E+01 3.694E+00 3.150E-06 0.000E+00 0.000E+00 3.150E-06 3.694E+00 4.815E+00  0.0000 0.62720
  3.500E+01 9.285E+01 3.382E+00 3.487E-06 0.000E+00 0.000E+00 3.487E-06 3.382E+00 6.231E+00  0.0000 0.66011
  4.000E+01 1.003E+02 3.148E+00 3.813E-06 0.000E+00 0.000E+00 3.813E-06 3.148E+00 7.765E+00  0.0000 0.68834
  4.500E+01 1.074E+02 2.966E+00 4.133E-06 0.000E+00 0.000E+00 4.133E-06 2.966E+00 9.402E+00  0.0000 0.71286
  5.000E+01 1.143E+02 2.822E+00 4.448E-06 0.000E+00 0.000E+00 4.448E-06 2.822E+00 1.113E+01  0.0000 0.73434
  5.500E+01 1.210E+02 2.705E+00 4.760E-06 0.000E+00 0.000E+00 4.760E-06 2.705E+00 1.294E+01  0.0000 0.75332
  6.000E+01 1.276E+02 2.609E+00 5.071E-06 0.000E+00 0.000E+00 5.071E-06 2.609E+00 1.482E+01  0.0000 0.77019
  7.000E+01 1.403E+02 2.448E+00 5.693E-06 0.000E+00 0.000E+00 5.693E-06 2.448E+00 1.878E+01  0.0961 0.79887
  8.000E+01 1.527E+02 2.336E+00 6.317E-06 0.000E+00 0.000E+00 6.317E-06 2.336E+00 2.296E+01  0.1331 0.82227
  9.000E+01 1.647E+02 2.252E+00 6.949E-06 0.000E+00 0.000E+00 6.949E-06 2.252E+00 2.733E+01  0.1714 0.84166
  1.000E+02 1.764E+02 2.186E+00 7.588E-06 0.000E+00 0.000E+00 7.588E-06 2.186E+00 3.183E+01  0.2103 0.85794
  1.200E+02 1.994E+02 2.093E+00 8.898E-06 0.000E+00 0.000E+00 8.898E-06 2.093E+00 4.119E+01  0.2884 0.88361
  1.400E+02 2.218E+02 2.031E+00 1.025E-05 0.000E+00 0.000E+00 1.025E-05 2.031E+00 5.089E+01  0.3656 0.90278
  1.700E+02 2.546E+02 1.973E+00 1.236E-05 1.776E-14 0.000E+00 1.236E-05 1.973E+00 6.587E+01  0.4786 0.92363
  2.000E+02 2.868E+02 1.939E+00 1.458E-05 3.956E-12 0.000E+00 1.458E-05 1.939E+00 8.121E+01  0.5872 0.93835
  2.500E+02 3.396E+02 1.910E+00 1.848E-05 3.261E-08 0.000E+00 1.851E-05 1.910E+00 1.072E+02  0.7584 0.95485
  3.000E+02 3.917E+02 1.899E+00 2.262E-05 2.751E-07 0.000E+00 2.290E-05 1.899E+00 1.334E+02  0.9180 0.96548
  3.500E+02 4.432E+02 1.896E+00 2.699E-05 7.470E-07 0.000E+00 2.774E-05 1.896E+00 1.598E+02  1.0672 0.97274
  4.000E+02 4.945E+02 1.898E+00 3.156E-05 1.437E-06 0.000E+00 3.300E-05 1.898E+00 1.862E+02  1.2071 0.97793
  4.500E+02 5.455E+02 1.903E+00 3.633E-05 2.336E-06 0.000E+00 3.866E-05 1.903E+00 2.125E+02  1.3389 0.98176
  5.000E+02 5.964E+02 1.909E+00 4.127E-05 3.437E-06 0.000E+00 4.470E-05 1.909E+00 2.387E+02  1.4634 0.98467
  5.500E+02 6.471E+02 1.916E+00 4.637E-05 4.732E-06 0.000E+00 5.111E-05 1.916E+00 2.648E+02  1.5814 0.98693
  6.000E+02 6.977E+02 1.924E+00 5.163E-05 6.216E-06 0.000E+00 5.785E-05 1.924E+00 2.909E+02  1.6935 0.98873
  7.000E+02 7.987E+02 1.938E+00 6.258E-05 9.723E-06 0.000E+00 7.231E-05 1.938E+00 3.427E+02  1.9023 0.99136
  8.000E+02 8.995E+02 1.953E+00 7.406E-05 1.391E-05 0.000E+00 8.797E-05 1.953E+00 3.940E+02  2.0934 0.99317
  9.000E+02 1.000E+03 1.966E+00 8.601E-05 1.873E-05 0.000E+00 1.047E-04 1.966E+00 4.451E+02  2.2697 0.99447
  1.000E+03 1.101E+03 1.979E+00 9.840E-05 2.416E-05 0.000E+00 1.226E-04 1.979E+00 4.958E+02  2.4334 0.99542
  1.200E+03 1.301E+03 2.002E+00 1.244E-04 3.666E-05 2.259E-05 1.836E-04 2.002E+00 5.963E+02  2.7290 0.99672
  1.400E+03 1.502E+03 2.022E+00 1.517E-04 5.119E-05 6.208E-05 2.650E-04 2.022E+00 6.957E+02  2.9905 0.99753
  1.700E+03 1.803E+03 2.048E+00 1.951E-04 7.636E-05 1.338E-04 4.053E-04 2.048E+00 8.431E+02  3.3335 0.99829
  2.000E+03 2.103E+03 2.069E+00 2.410E-04 1.051E-04 2.190E-04 5.650E-04 2.070E+00 9.888E+02  3.6308 0.99874
  2.500E+03 2.604E+03 2.099E+00 3.220E-04 1.600E-04 3.850E-04 8.669E-04 2.100E+00 1.229E+03  4.0514 0.99918
  3.000E+03 3.104E+03 2.124E+00 4.081E-04 2.222E-04 5.609E-04 1.191E-03 2.125E+00 1.465E+03  4.4024 0.99942
  3.500E+03 3.604E+03 2.145E+00 4.984E-04 2.909E-04 7.485E-04 1.538E-03 2.146E+00 1.699E+03  4.7012 0.99957
  4.000E+03 4.104E+03 2.163E+00 5.926E-04 3.796E-04 9.500E-04 1.922E-03 2.165E+00 1.931E+03  4.9612 0.99967
  4.500E+03 4.604E+03 2.179E+00 6.902E-04 4.795E-04 1.161E-03 2.330E-03 2.181E+00 2.161E+03  5.1911 0.99974
  5.000E+03 5.105E+03 2.193E+00 7.909E-04 5.857E-04 1.364E-03 2.740E-03 2.196E+00 2.390E+03  5.3974 0.99979
  5.500E+03 5.605E+03 2.206E+00 8.944E-04 6.978E-04 1.583E-03 3.176E-03 2.209E+00 2.617E+03  5.5843 0.99982
  6.000E+03 6.105E+03 2.218E+00 1.001E-03 8.154E-04 1.788E-03 3.604E-03 2.221E+00 2.843E+03  5.7552 0.99985
  7.000E+03 7.105E+03 2.238E+00 1.220E-03 1.065E-03 2.224E-03 4.509E-03 2.243E+00 3.291E+03  6.0586 0.99989
  8.000E+03 8.105E+03 2.256E+00 1.448E-03 1.332E-03 2.659E-03 5.439E-03 2.262E+00 3.735E+03  6.3220 0.99992
  9.000E+03 9.105E+03 2.272E+00 1.683E-03 1.615E-03 3.069E-03 6.368E-03 2.278E+00 4.175E+03  6.5547 0.99993
  1.000E+04 1.011E+04 2.285E+00 1.926E-03 1.912E-03 3.494E-03 7.332E-03 2.293E+00 4.613E+03  6.7632 0.99995
  1.200E+04 1.211E+04 2.309E+00 2.428E-03 2.542E-03 4.359E-03 9.329E-03 2.318E+00 5.480E+03  7.1244 0.99996
  1.400E+04 1.411E+04 2.328E+00 2.952E-03 3.215E-03 5.229E-03 1.140E-02 2.340E+00 6.339E+03  7.4302 0.99997
  1.700E+04 1.711E+04 2.352E+00 3.771E-03 4.289E-03 6.523E-03 1.458E-02 2.367E+00 7.614E+03  7.8159 0.99998
  2.000E+04 2.011E+04 2.372E+00 4.624E-03 5.431E-03 7.798E-03 1.785E-02 2.390E+00 8.875E+03  8.1391 0.99999
  2.500E+04 2.511E+04 2.399E+00 6.108E-03 7.457E-03 9.902E-03 2.347E-02 2.423E+00 1.095E+04  8.5833 0.99999
  3.000E+04 3.011E+04 2.420E+00 7.658E-03 9.607E-03 1.198E-02 2.924E-02 2.450E+00 1.301E+04  8.9465 0.99999
  3.500E+04 3.511E+04 2.438E+00 9.262E-03 1.186E-02 1.408E-02 3.520E-02 2.473E+00 1.504E+04  9.2538 1.00000
  4.000E+04 4.011E+04 2.453E+00 1.091E-02 1.420E-02 1.616E-02 4.127E-02 2.495E+00 1.705E+04  9.5201 1.00000
  4.500E+04 4.511E+04 2.467E+00 1.260E-02 1.661E-02 1.822E-02 4.744E-02 2.514E+00 1.905E+04  9.7551 1.00000
  5.000E+04 5.011E+04 2.478E+00 1.433E-02 1.909E-02 2.029E-02 5.371E-02 2.532E+00 2.103E+04  9.9654 1.00000
  5.500E+04 5.511E+04 2.489E+00 1.609E-02 2.162E-02 2.238E-02 6.008E-02 2.549E+00 2.300E+04 10.1556 1.00000
  6.000E+04 6.011E+04 2.498E+00 1.787E-02 2.421E-02 2.444E-02 6.652E-02 2.565E+00 2.495E+04 10.3293 1.00000
  7.000E+04 7.011E+04 2.515E+00 2.152E-02 2.952E-02 2.855E-02 7.959E-02 2.595E+00 2.883E+04 10.6371 1.00000
  8.000E+04 8.011E+04 2.529E+00 2.526E-02 3.498E-02 3.268E-02 9.292E-02 2.622E+00 3.266E+04 10.9038 1.00000
  9.000E+04 9.011E+04 2.542E+00 2.908E-02 4.057E-02 3.681E-02 1.065E-01 2.648E+00 3.646E+04 11.1391 1.00000
  1.000E+05 1.001E+05 2.553E+00 3.297E-02 4.628E-02 4.088E-02 1.201E-01 2.673E+00 4.022E+04 11.3495 1.00000
  1.200E+05 1.201E+05 2.572E+00 4.091E-02 5.798E-02 4.916E-02 1.480E-01 2.720E+00 4.763E+04 11.7138 1.00000
  1.400E+05 1.401E+05 2.588E+00 4.905E-02 6.999E-02 5.746E-02 1.765E-01 2.765E+00 5.493E+04 12.0219 1.00000
  1.700E+05 1.701E+05 2.608E+00 6.156E-02 8.849E-02 6.994E-02 2.200E-01 2.828E+00 6.566E+04 12.4099 1.00000
  2.000E+05 2.001E+05 2.625E+00 7.436E-02 1.074E-01 8.251E-02 2.643E-01 2.889E+00 7.615E+04 12.7348 1.00000
  2.500E+05 2.501E+05 2.648E+00 9.625E-02 1.398E-01 1.036E-01 3.396E-01 2.988E+00 9.317E+04 13.1809 1.00000
  3.000E+05 3.001E+05 2.667E+00 1.187E-01 1.729E-01 1.248E-01 4.163E-01 3.083E+00 1.096E+05 13.5454 1.00000
  3.500E+05 3.501E+05 2.683E+00 1.415E-01 2.065E-01 1.463E-01 4.943E-01 3.177E+00 1.256E+05 13.8536 1.00000
  4.000E+05 4.001E+05 2.696E+00 1.647E-01 2.406E-01 1.680E-01 5.732E-01 3.270E+00 1.411E+05 14.1205 1.00000
  4.500E+05 4.501E+05 2.709E+00 1.881E-01 2.751E-01 1.897E-01 6.529E-01 3.362E+00 1.562E+05 14.3561 1.00000
  5.000E+05 5.001E+05 2.720E+00 2.118E-01 3.099E-01 2.117E-01 7.334E-01 3.453E+00 1.709E+05 14.5667 1.00000
  5.500E+05 5.501E+05 2.729E+00 2.358E-01 3.450E-01 2.335E-01 8.143E-01 3.544E+00 1.852E+05 14.7573 1.00000
  6.000E+05 6.001E+05 2.738E+00 2.600E-01 3.803E-01 2.555E-01 8.957E-01 3.634E+00 1.991E+05 14.9313 1.00000
  7.000E+05 7.001E+05 2.755E+00 3.088E-01 4.515E-01 2.998E-01 1.060E+00 3.815E+00 2.260E+05 15.2396 1.00000
  8.000E+05 8.001E+05 2.768E+00 3.582E-01 5.234E-01 3.446E-01 1.226E+00 3.995E+00 2.516E+05 15.5066 1.00000
  9.000E+05 9.001E+05 2.781E+00 4.081E-01 5.958E-01 3.898E-01 1.394E+00 4.175E+00 2.761E+05 15.7421 1.00000
  1.000E+06 1.000E+06 2.792E+00 4.584E-01 6.686E-01 4.355E-01 1.563E+00 4.354E+00 2.996E+05 15.9528 1.00000
  1.200E+06 1.200E+06 2.811E+00 5.601E-01 8.154E-01 5.279E-01 1.903E+00 4.715E+00 3.437E+05 16.3174 1.00000
  1.400E+06 1.400E+06 2.828E+00 6.629E-01 9.634E-01 6.217E-01 2.248E+00 5.076E+00 3.847E+05 16.6257 1.00000
  1.700E+06 1.700E+06 2.848E+00 8.188E-01 1.187E+00 7.647E-01 2.770E+00 5.619E+00 4.409E+05 17.0140 1.00000
  2.000E+06 2.000E+06 2.866E+00 9.762E-01 1.412E+00 9.100E-01 3.298E+00 6.164E+00 4.919E+05 17.3390 1.00000
  2.500E+06 2.500E+06 2.890E+00 1.241E+00 1.789E+00 1.157E+00 4.187E+00 7.077E+00 5.678E+05 17.7853 1.00000
  3.000E+06 3.000E+06 2.910E+00 1.509E+00 2.169E+00 1.408E+00 5.086E+00 7.996E+00 6.344E+05 18.1499 1.00000
  3.500E+06 3.500E+06 2.927E+00 1.779E+00 2.550E+00 1.664E+00 5.992E+00 8.919E+00 6.937E+05 18.4582 1.00000
  4.000E+06 4.000E+06 2.942E+00 2.050E+00 2.932E+00 1.923E+00 6.905E+00 9.847E+00 7.471E+05 18.7252 1.00000
  4.500E+06 4.500E+06 2.955E+00 2.323E+00 3.315E+00 2.186E+00 7.824E+00 1.078E+01 7.957E+05 18.9608 1.00000
  5.000E+06 5.000E+06 2.966E+00 2.597E+00 3.699E+00 2.451E+00 8.747E+00 1.171E+01 8.403E+05 19.1715 1.00000
  5.500E+06 5.500E+06 2.977E+00 2.871E+00 4.083E+00 2.719E+00 9.674E+00 1.265E+01 8.814E+05 19.3621 1.00000
  6.000E+06 6.000E+06 2.987E+00 3.147E+00 4.468E+00 2.990E+00 1.061E+01 1.359E+01 9.195E+05 19.5362 1.00000
  7.000E+06 7.000E+06 3.004E+00 3.700E+00 5.239E+00 3.538E+00 1.248E+01 1.548E+01 9.886E+05 19.8444 1.00000
  8.000E+06 8.000E+06 3.020E+00 4.255E+00 6.012E+00 4.095E+00 1.436E+01 1.738E+01 1.050E+06 20.1115 1.00000
  9.000E+06 9.000E+06 3.033E+00 4.811E+00 6.786E+00 4.659E+00 1.626E+01 1.929E+01 1.104E+06 20.3471 1.00000
  1.000E+07 1.000E+07 3.045E+00 5.370E+00 7.560E+00 5.229E+00 1.816E+01 2.120E+01 1.154E+06 20.5578 1.00000
  1.200E+07 1.200E+07 3.066E+00 6.490E+00 9.110E+00 6.388E+00 2.199E+01 2.505E+01 1.241E+06 20.9224 1.00000
  1.400E+07 1.400E+07 3.084E+00 7.613E+00 1.066E+01 7.567E+00 2.584E+01 2.893E+01 1.315E+06 21.2307 1.00000
  1.700E+07 1.700E+07 3.107E+00 9.304E+00 1.299E+01 9.370E+00 3.167E+01 3.478E+01 1.410E+06 21.6190 1.00000
  2.000E+07 2.000E+07 3.127E+00 1.100E+01 1.533E+01 1.121E+01 3.753E+01 4.066E+01 1.490E+06 21.9441 1.00000
  2.500E+07 2.500E+07 3.153E+00 1.383E+01 1.922E+01 1.434E+01 4.739E+01 5.054E+01 1.601E+06 22.3904 1.00000
  3.000E+07 3.000E+07 3.175E+00 1.667E+01 2.311E+01 1.753E+01 5.732E+01 6.050E+01 1.692E+06 22.7550 1.00000
  3.500E+07 3.500E+07 3.194E+00 1.952E+01 2.701E+01 2.079E+01 6.732E+01 7.051E+01 1.769E+06 23.0633 1.00000
  4.000E+07 4.000E+07 3.211E+00 2.237E+01 3.091E+01 2.410E+01 7.737E+01 8.059E+01 1.835E+06 23.3304 1.00000
  4.500E+07 4.500E+07 3.225E+00 2.522E+01 3.481E+01 2.745E+01 8.748E+01 9.071E+01 1.894E+06 23.5659 1.00000
  5.000E+07 5.000E+07 3.238E+00 2.807E+01 3.871E+01 3.085E+01 9.763E+01 1.009E+02 1.946E+06 23.7766 1.00000
  5.500E+07 5.500E+07 3.250E+00 3.093E+01 4.261E+01 3.428E+01 1.078E+02 1.111E+02 1.994E+06 23.9673 1.00000
  6.000E+07 6.000E+07 3.261E+00 3.379E+01 4.651E+01 3.775E+01 1.181E+02 1.213E+02 2.037E+06 24.1413 1.00000
  7.000E+07 7.000E+07 3.280E+00 3.951E+01 5.432E+01 4.478E+01 1.386E+02 1.419E+02 2.113E+06 24.4496 1.00000
  8.000E+07 8.000E+07 3.297E+00 4.523E+01 6.212E+01 5.193E+01 1.593E+02 1.626E+02 2.179E+06 24.7167 1.00000
  9.000E+07 9.000E+07 3.312E+00 5.096E+01 6.993E+01 5.918E+01 1.801E+02 1.834E+02 2.237E+06 24.9522 1.00000
  1.000E+08 1.000E+08 3.326E+00 5.669E+01 7.774E+01 6.652E+01 2.010E+02 2.043E+02 2.289E+06 25.1629 1.00000
  1.200E+08 1.200E+08 3.349E+00 6.816E+01 9.336E+01 8.144E+01 2.430E+02 2.463E+02 2.379E+06 25.5276 1.00000
  1.400E+08 1.400E+08 3.369E+00 7.964E+01 1.090E+02 9.665E+01 2.853E+02 2.886E+02 2.454E+06 25.8359 1.00000
  1.700E+08 1.700E+08 3.395E+00 9.686E+01 1.324E+02 1.199E+02 3.492E+02 3.526E+02 2.548E+06 26.2242 1.00000
  2.000E+08 2.000E+08 3.416E+00 1.141E+02 1.558E+02 1.437E+02 4.136E+02 4.170E+02 2.627E+06 26.5492 1.00000
  2.500E+08 2.500E+08 3.446E+00 1.428E+02 1.949E+02 1.842E+02 5.219E+02 5.253E+02 2.734E+06 26.9955 1.00000
  3.000E+08 3.000E+08 3.471E+00 1.716E+02 2.340E+02 2.256E+02 6.311E+02 6.346E+02 2.821E+06 27.3602 1.00000
  3.500E+08 3.500E+08 3.492E+00 2.003E+02 2.730E+02 2.678E+02 7.412E+02 7.447E+02 2.894E+06 27.6685 1.00000
  4.000E+08 4.000E+08 3.510E+00 2.291E+02 3.121E+02 3.108E+02 8.519E+02 8.555E+02 2.957E+06 27.9355 1.00000
  4.500E+08 4.500E+08 3.526E+00 2.578E+02 3.512E+02 3.544E+02 9.634E+02 9.669E+02 3.012E+06 28.1711 1.00000
  5.000E+08 5.000E+08 3.541E+00 2.866E+02 3.902E+02 3.985E+02 1.075E+03 1.079E+03 3.061E+06 28.3818 1.00000
  5.500E+08 5.500E+08 3.554E+00 3.153E+02 4.293E+02 4.432E+02 1.188E+03 1.191E+03 3.105E+06 28.5724 1.00000
  6.000E+08 6.000E+08 3.566E+00 3.441E+02 4.684E+02 4.884E+02 1.301E+03 1.304E+03 3.145E+06 28.7465 1.00000
  7.000E+08 7.000E+08 3.588E+00 4.016E+02 5.465E+02 5.800E+02 1.528E+03 1.532E+03 3.216E+06 29.0548 1.00000
  8.000E+08 8.000E+08 3.607E+00 4.592E+02 6.246E+02 6.732E+02 1.757E+03 1.761E+03 3.277E+06 29.3218 1.00000
  9.000E+08 9.000E+08 3.624E+00 5.167E+02 7.027E+02 7.677E+02 1.987E+03 1.991E+03 3.331E+06 29.5574 1.00000
  1.000E+09 1.000E+09 3.639E+00 5.743E+02 7.809E+02 8.635E+02 2.219E+03 2.222E+03 3.379E+06 29.7681 1.00000
