 Incident particle is a Muon with M = 105.65839 MeV
 Index = 0: LithiumCarbonate
      Absorber with <Z/A> = 0.48719
 Sternheimer coef:  a     k=m_s   x_0    x_1    I[eV]   Cbar  delta0
                 0.0994  3.5417  0.0551  2.6598   87.9  3.2029 0.00

 *** Table generated with PUMAS v1.00 ***

      T         p     Ionization  brems     pair     photonuc  Radloss    dE/dx   CSDA Range  delta   beta
    [MeV]    [MeV/c]  -----------------------[MeV cm^2/g]------------------------  [g/cm^2]
  1.000E+00 1.457E+01 4.309E+01 7.168E-07 0.000E+00 0.000E+00 7.168E-07 4.309E+01 1.160E-02  0.0000 0.13661
  1.200E+00 1.597E+01 3.721E+01 8.216E-07 0.000E+00 0.000E+00 8.216E-07 3.721E+01 1.661E-02  0.0000 0.14944
  1.400E+00 1.726E+01 3.286E+01 9.217E-07 0.000E+00 0.000E+00 9.217E-07 3.286E+01 2.234E-02  0.0000 0.16119
  1.700E+00 1.903E+01 2.808E+01 1.065E-06 0.000E+00 0.000E+00 1.065E-06 2.808E+01 3.225E-02  0.0000 0.17725
  2.000E+00 2.066E+01 2.461E+01 1.200E-06 0.000E+00 0.000E+00 1.200E-06 2.461E+01 4.369E-02  0.0000 0.19186
  2.500E+00 2.312E+01 2.053E+01 1.412E-06 0.000E+00 0.000E+00 1.412E-06 2.053E+01 6.602E-02  0.0000 0.21376
  3.000E+00 2.536E+01 1.771E+01 1.611E-06 0.000E+00 0.000E+00 1.611E-06 1.771E+01 9.231E-02  0.0000 0.23336
  3.500E+00 2.742E+01 1.564E+01 1.798E-06 0.000E+00 0.000E+00 1.798E-06 1.564E+01 1.224E-01  0.0000 0.25120
  4.000E+00 2.935E+01 1.404E+01 1.976E-06 0.000E+00 0.000E+00 1.976E-06 1.404E+01 1.562E-01  0.0000 0.26763
  4.500E+00 3.116E+01 1.278E+01 2.146E-06 0.000E+00 0.000E+00 2.146E-06 1.278E+01 1.936E-01  0.0000 0.28290
  5.000E+00 3.289E+01 1.174E+01 2.309E-06 0.000E+00 0.000E+00 2.309E-06 1.174E+01 2.344E-01  0.0000 0.29720
  5.500E+00 3.453E+01 1.089E+01 2.466E-06 0.000E+00 0.000E+00 2.466E-06 1.089E+01 2.787E-01  0.0000 0.31066
  6.000E+00 3.611E+01 1.016E+01 2.617E-06 0.000E+00 0.000E+00 2.617E-06 1.016E+01 3.263E-01  0.0000 0.32339
  7.000E+00 3.909E+01 9.004E+00 2.905E-06 0.000E+00 0.000E+00 2.905E-06 9.004E+00 4.310E-01  0.0000 0.34700
  8.000E+00 4.189E+01 8.118E+00 3.176E-06 0.000E+00 0.000E+00 3.176E-06 8.118E+00 5.481E-01  0.0000 0.36854
  9.000E+00 4.453E+01 7.416E+00 3.434E-06 0.000E+00 0.000E+00 3.434E-06 7.416E+00 6.771E-01  0.0000 0.38836
  1.000E+01 4.704E+01 6.847E+00 3.680E-06 0.000E+00 0.000E+00 3.680E-06 6.847E+00 8.176E-01  0.0000 0.40675
  1.200E+01 5.177E+01 5.978E+00 4.142E-06 0.000E+00 0.000E+00 4.142E-06 5.978E+00 1.131E+00  0.0000 0.43998
  1.400E+01 5.616E+01 5.345E+00 4.573E-06 0.000E+00 0.000E+00 4.573E-06 5.345E+00 1.485E+00  0.0000 0.46937
  1.700E+01 6.230E+01 4.663E+00 5.174E-06 0.000E+00 0.000E+00 5.174E-06 4.663E+00 2.088E+00  0.0000 0.50792
  2.000E+01 6.802E+01 4.178E+00 5.734E-06 0.000E+00 0.000E+00 5.734E-06 4.178E+00 2.768E+00  0.0000 0.54129
  2.500E+01 7.686E+01 3.620E+00 6.604E-06 0.000E+00 0.000E+00 6.604E-06 3.620E+00 4.057E+00  0.0000 0.58827
  3.000E+01 8.509E+01 3.243E+00 7.419E-06 0.000E+00 0.000E+00 7.419E-06 3.243E+00 5.519E+00  0.0000 0.62720
  3.500E+01 9.285E+01 2.973E+00 8.198E-06 0.000E+00 0.000E+00 8.198E-06 2.974E+00 7.130E+00  0.0000 0.66011
  4.000E+01 1.003E+02 2.771E+00 8.953E-06 0.000E+00 0.000E+00 8.953E-06 2.771E+00 8.873E+00  0.0000 0.68834
  4.500E+01 1.074E+02 2.614E+00 9.692E-06 0.000E+00 0.000E+00 9.692E-06 2.614E+00 1.073E+01  0.0000 0.71286
  5.000E+01 1.143E+02 2.489E+00 1.042E-05 0.000E+00 0.000E+00 1.042E-05 2.489E+00 1.269E+01  0.0000 0.73434
  5.500E+01 1.210E+02 2.388E+00 1.115E-05 0.000E+00 0.000E+00 1.115E-05 2.388E+00 1.474E+01  0.0035 0.75332
  6.000E+01 1.276E+02 2.302E+00 1.187E-05 0.000E+00 0.000E+00 1.187E-05 2.302E+00 1.688E+01  0.0185 0.77019
  7.000E+01 1.403E+02 2.170E+00 1.331E-05 0.000E+00 0.000E+00 1.331E-05 2.170E+00 2.135E+01  0.0506 0.79887
  8.000E+01 1.527E+02 2.074E+00 1.476E-05 0.000E+00 0.000E+00 1.476E-05 2.074E+00 2.607E+01  0.0844 0.82227
  9.000E+01 1.647E+02 2.001E+00 1.623E-05 0.000E+00 0.000E+00 1.623E-05 2.001E+00 3.098E+01  0.1190 0.84166
  1.000E+02 1.764E+02 1.944E+00 1.772E-05 0.000E+00 0.000E+00 1.772E-05 1.944E+00 3.605E+01  0.1538 0.85794
  1.200E+02 1.994E+02 1.864E+00 2.078E-05 0.000E+00 0.000E+00 2.078E-05 1.864E+00 4.656E+01  0.2234 0.88361
  1.400E+02 2.218E+02 1.813E+00 2.395E-05 0.000E+00 0.000E+00 2.395E-05 1.813E+00 5.744E+01  0.2918 0.90278
  1.700E+02 2.546E+02 1.765E+00 2.890E-05 4.258E-14 0.000E+00 2.890E-05 1.765E+00 7.421E+01  0.3911 0.92363
  2.000E+02 2.868E+02 1.737E+00 3.409E-05 9.518E-12 0.000E+00 3.409E-05 1.737E+00 9.135E+01  0.4859 0.93835
  2.500E+02 3.396E+02 1.716E+00 4.326E-05 7.827E-08 0.000E+00 4.334E-05 1.716E+00 1.203E+02  0.6345 0.95485
  3.000E+02 3.917E+02 1.709E+00 5.301E-05 6.953E-07 0.000E+00 5.371E-05 1.709E+00 1.495E+02  0.7721 0.96548
  3.500E+02 4.432E+02 1.711E+00 6.330E-05 1.913E-06 0.000E+00 6.521E-05 1.711E+00 1.787E+02  0.9002 0.97274
  4.000E+02 4.945E+02 1.716E+00 7.408E-05 3.704E-06 0.000E+00 7.778E-05 1.716E+00 2.079E+02  1.0200 0.97793
  4.500E+02 5.455E+02 1.723E+00 8.531E-05 6.048E-06 0.000E+00 9.136E-05 1.723E+00 2.370E+02  1.1325 0.98176
  5.000E+02 5.964E+02 1.731E+00 9.696E-05 8.924E-06 0.000E+00 1.059E-04 1.731E+00 2.660E+02  1.2385 0.98467
  5.500E+02 6.471E+02 1.740E+00 1.090E-04 1.231E-05 0.000E+00 1.213E-04 1.740E+00 2.948E+02  1.3388 0.98693
  6.000E+02 6.977E+02 1.748E+00 1.214E-04 1.620E-05 0.000E+00 1.376E-04 1.748E+00 3.234E+02  1.4339 0.98873
  7.000E+02 7.987E+02 1.766E+00 1.472E-04 2.540E-05 0.000E+00 1.726E-04 1.766E+00 3.804E+02  1.6108 0.99136
  8.000E+02 8.995E+02 1.782E+00 1.743E-04 3.639E-05 0.000E+00 2.107E-04 1.782E+00 4.367E+02  1.7725 0.99317
  9.000E+02 1.000E+03 1.798E+00 2.025E-04 4.906E-05 0.000E+00 2.516E-04 1.798E+00 4.926E+02  1.9215 0.99447
  1.000E+03 1.101E+03 1.812E+00 2.317E-04 6.331E-05 0.000E+00 2.950E-04 1.812E+00 5.480E+02  2.0597 0.99542
  1.200E+03 1.301E+03 1.838E+00 2.928E-04 9.619E-05 2.256E-05 4.116E-04 1.838E+00 6.576E+02  2.3094 0.99672
  1.400E+03 1.502E+03 1.861E+00 3.572E-04 1.344E-04 6.177E-05 5.534E-04 1.861E+00 7.657E+02  2.5306 0.99753
  1.700E+03 1.803E+03 1.890E+00 4.591E-04 2.006E-04 1.325E-04 7.922E-04 1.890E+00 9.256E+02  2.8215 0.99829
  2.000E+03 2.103E+03 1.914E+00 5.664E-04 2.763E-04 2.160E-04 1.059E-03 1.915E+00 1.083E+03  3.0749 0.99874
  2.500E+03 2.604E+03 1.948E+00 7.556E-04 4.205E-04 3.779E-04 1.554E-03 1.949E+00 1.342E+03  3.4365 0.99918
  3.000E+03 3.104E+03 1.975E+00 9.558E-04 5.844E-04 5.483E-04 2.088E-03 1.977E+00 1.597E+03  3.7425 0.99942
  3.500E+03 3.604E+03 1.997E+00 1.165E-03 7.651E-04 7.292E-04 2.660E-03 2.000E+00 1.848E+03  4.0081 0.99957
  4.000E+03 4.104E+03 2.017E+00 1.383E-03 9.741E-04 9.228E-04 3.280E-03 2.020E+00 2.097E+03  4.2428 0.99967
  4.500E+03 4.604E+03 2.034E+00 1.608E-03 1.202E-03 1.125E-03 3.935E-03 2.038E+00 2.343E+03  4.4530 0.99974
  5.000E+03 5.105E+03 2.049E+00 1.839E-03 1.444E-03 1.319E-03 4.602E-03 2.054E+00 2.588E+03  4.6436 0.99979
  5.500E+03 5.605E+03 2.062E+00 2.076E-03 1.699E-03 1.528E-03 5.303E-03 2.068E+00 2.831E+03  4.8178 0.99982
  6.000E+03 6.105E+03 2.074E+00 2.319E-03 1.964E-03 1.723E-03 6.007E-03 2.080E+00 3.072E+03  4.9782 0.99985
  7.000E+03 7.105E+03 2.096E+00 2.819E-03 2.526E-03 2.138E-03 7.483E-03 2.103E+00 3.550E+03  5.2656 0.99989
  8.000E+03 8.105E+03 2.114E+00 3.336E-03 3.125E-03 2.550E-03 9.012E-03 2.123E+00 4.023E+03  5.5174 0.99992
  9.000E+03 9.105E+03 2.129E+00 3.868E-03 3.756E-03 2.938E-03 1.056E-02 2.140E+00 4.492E+03  5.7416 0.99993
  1.000E+04 1.011E+04 2.143E+00 4.414E-03 4.416E-03 3.340E-03 1.217E-02 2.155E+00 4.958E+03  5.9435 0.99995
  1.200E+04 1.211E+04 2.166E+00 5.542E-03 5.811E-03 4.155E-03 1.551E-02 2.182E+00 5.880E+03  6.2958 0.99996
  1.400E+04 1.411E+04 2.186E+00 6.711E-03 7.293E-03 4.973E-03 1.898E-02 2.205E+00 6.792E+03  6.5961 0.99997
  1.700E+04 1.711E+04 2.210E+00 8.530E-03 9.651E-03 6.187E-03 2.437E-02 2.234E+00 8.144E+03  6.9769 0.99998
  2.000E+04 2.011E+04 2.229E+00 1.041E-02 1.214E-02 7.381E-03 2.994E-02 2.259E+00 9.479E+03  7.2974 0.99999
  2.500E+04 2.511E+04 2.255E+00 1.368E-02 1.655E-02 9.346E-03 3.957E-02 2.295E+00 1.168E+04  7.7395 0.99999
  3.000E+04 3.011E+04 2.276E+00 1.706E-02 2.120E-02 1.128E-02 4.954E-02 2.325E+00 1.384E+04  8.1020 0.99999
  3.500E+04 3.511E+04 2.293E+00 2.055E-02 2.605E-02 1.323E-02 5.983E-02 2.353E+00 1.598E+04  8.4090 1.00000
  4.000E+04 4.011E+04 2.308E+00 2.412E-02 3.107E-02 1.517E-02 7.037E-02 2.378E+00 1.809E+04  8.6752 1.00000
  4.500E+04 4.511E+04 2.321E+00 2.777E-02 3.624E-02 1.709E-02 8.109E-02 2.402E+00 2.018E+04  8.9102 1.00000
  5.000E+04 5.011E+04 2.332E+00 3.149E-02 4.153E-02 1.900E-02 9.202E-02 2.424E+00 2.226E+04  9.1205 1.00000
  5.500E+04 5.511E+04 2.342E+00 3.526E-02 4.693E-02 2.093E-02 1.031E-01 2.445E+00 2.431E+04  9.3107 1.00000
  6.000E+04 6.011E+04 2.351E+00 3.909E-02 5.243E-02 2.284E-02 1.144E-01 2.466E+00 2.635E+04  9.4844 1.00000
  7.000E+04 7.011E+04 2.367E+00 4.689E-02 6.369E-02 2.664E-02 1.372E-01 2.505E+00 3.037E+04  9.7922 1.00000
  8.000E+04 8.011E+04 2.381E+00 5.485E-02 7.524E-02 3.046E-02 1.605E-01 2.542E+00 3.433E+04 10.0589 1.00000
  9.000E+04 9.011E+04 2.393E+00 6.295E-02 8.703E-02 3.427E-02 1.843E-01 2.578E+00 3.824E+04 10.2942 1.00000
  1.000E+05 1.001E+05 2.404E+00 7.118E-02 9.903E-02 3.802E-02 2.082E-01 2.612E+00 4.209E+04 10.5046 1.00000
  1.200E+05 1.201E+05 2.423E+00 8.794E-02 1.236E-01 4.566E-02 2.572E-01 2.680E+00 4.965E+04 10.8689 1.00000
  1.400E+05 1.401E+05 2.438E+00 1.051E-01 1.487E-01 5.331E-02 3.070E-01 2.745E+00 5.703E+04 11.1770 1.00000
  1.700E+05 1.701E+05 2.458E+00 1.313E-01 1.872E-01 6.479E-02 3.833E-01 2.841E+00 6.777E+04 11.5650 1.00000
  2.000E+05 2.001E+05 2.474E+00 1.580E-01 2.265E-01 7.636E-02 4.609E-01 2.935E+00 7.816E+04 11.8899 1.00000
  2.500E+05 2.501E+05 2.496E+00 2.036E-01 2.933E-01 9.570E-02 5.926E-01 3.089E+00 9.477E+04 12.3360 1.00000
  3.000E+05 3.001E+05 2.514E+00 2.501E-01 3.613E-01 1.152E-01 7.266E-01 3.241E+00 1.106E+05 12.7005 1.00000
  3.500E+05 3.501E+05 2.530E+00 2.972E-01 4.304E-01 1.349E-01 8.626E-01 3.392E+00 1.257E+05 13.0087 1.00000
  4.000E+05 4.001E+05 2.543E+00 3.450E-01 5.002E-01 1.548E-01 1.000E+00 3.543E+00 1.401E+05 13.2756 1.00000
  4.500E+05 4.501E+05 2.555E+00 3.933E-01 5.706E-01 1.748E-01 1.139E+00 3.694E+00 1.539E+05 13.5112 1.00000
  5.000E+05 5.001E+05 2.565E+00 4.421E-01 6.415E-01 1.949E-01 1.278E+00 3.844E+00 1.672E+05 13.7218 1.00000
  5.500E+05 5.501E+05 2.575E+00 4.912E-01 7.128E-01 2.149E-01 1.419E+00 3.994E+00 1.799E+05 13.9124 1.00000
  6.000E+05 6.001E+05 2.584E+00 5.407E-01 7.845E-01 2.350E-01 1.560E+00 4.144E+00 1.922E+05 14.0864 1.00000
  7.000E+05 7.001E+05 2.599E+00 6.405E-01 9.289E-01 2.756E-01 1.845E+00 4.444E+00 2.156E+05 14.3947 1.00000
  8.000E+05 8.001E+05 2.613E+00 7.412E-01 1.074E+00 3.167E-01 2.132E+00 4.745E+00 2.373E+05 14.6617 1.00000
  9.000E+05 9.001E+05 2.625E+00 8.428E-01 1.221E+00 3.581E-01 2.421E+00 5.046E+00 2.578E+05 14.8972 1.00000
  1.000E+06 1.000E+06 2.636E+00 9.451E-01 1.367E+00 3.999E-01 2.712E+00 5.348E+00 2.770E+05 15.1079 1.00000
  1.200E+06 1.200E+06 2.654E+00 1.151E+00 1.663E+00 4.846E-01 3.299E+00 5.953E+00 3.125E+05 15.4725 1.00000
  1.400E+06 1.400E+06 2.670E+00 1.359E+00 1.960E+00 5.705E-01 3.890E+00 6.560E+00 3.446E+05 15.7808 1.00000
  1.700E+06 1.700E+06 2.690E+00 1.674E+00 2.408E+00 7.014E-01 4.783E+00 7.474E+00 3.875E+05 16.1691 1.00000
  2.000E+06 2.000E+06 2.707E+00 1.991E+00 2.858E+00 8.344E-01 5.684E+00 8.391E+00 4.255E+05 16.4941 1.00000
  2.500E+06 2.500E+06 2.731E+00 2.525E+00 3.611E+00 1.060E+00 7.196E+00 9.927E+00 4.805E+05 16.9404 1.00000
  3.000E+06 3.000E+06 2.750E+00 3.062E+00 4.368E+00 1.290E+00 8.720E+00 1.147E+01 5.274E+05 17.3050 1.00000
  3.500E+06 3.500E+06 2.766E+00 3.602E+00 5.126E+00 1.524E+00 1.025E+01 1.302E+01 5.684E+05 17.6133 1.00000
  4.000E+06 4.000E+06 2.781E+00 4.144E+00 5.887E+00 1.761E+00 1.179E+01 1.457E+01 6.048E+05 17.8803 1.00000
  4.500E+06 4.500E+06 2.793E+00 4.689E+00 6.648E+00 2.002E+00 1.334E+01 1.613E+01 6.374E+05 18.1159 1.00000
  5.000E+06 5.000E+06 2.805E+00 5.235E+00 7.411E+00 2.245E+00 1.489E+01 1.769E+01 6.671E+05 18.3266 1.00000
  5.500E+06 5.500E+06 2.815E+00 5.782E+00 8.174E+00 2.490E+00 1.645E+01 1.926E+01 6.942E+05 18.5172 1.00000
  6.000E+06 6.000E+06 2.824E+00 6.330E+00 8.938E+00 2.738E+00 1.801E+01 2.083E+01 7.192E+05 18.6913 1.00000
  7.000E+06 7.000E+06 2.841E+00 7.430E+00 1.047E+01 3.239E+00 2.114E+01 2.398E+01 7.640E+05 18.9995 1.00000
  8.000E+06 8.000E+06 2.856E+00 8.533E+00 1.200E+01 3.748E+00 2.428E+01 2.714E+01 8.033E+05 19.2666 1.00000
  9.000E+06 9.000E+06 2.869E+00 9.638E+00 1.353E+01 4.264E+00 2.744E+01 3.031E+01 8.382E+05 19.5022 1.00000
  1.000E+07 1.000E+07 2.881E+00 1.075E+01 1.507E+01 4.786E+00 3.060E+01 3.348E+01 8.696E+05 19.7129 1.00000
  1.200E+07 1.200E+07 2.901E+00 1.297E+01 1.814E+01 5.846E+00 3.695E+01 3.985E+01 9.246E+05 20.0775 1.00000
  1.400E+07 1.400E+07 2.919E+00 1.519E+01 2.121E+01 6.925E+00 4.333E+01 4.625E+01 9.713E+05 20.3858 1.00000
  1.700E+07 1.700E+07 2.941E+00 1.853E+01 2.583E+01 8.574E+00 5.294E+01 5.588E+01 1.031E+06 20.7741 1.00000
  2.000E+07 2.000E+07 2.960E+00 2.188E+01 3.045E+01 1.025E+01 6.258E+01 6.554E+01 1.080E+06 21.0992 1.00000
  2.500E+07 2.500E+07 2.986E+00 2.748E+01 3.815E+01 1.312E+01 7.874E+01 8.173E+01 1.149E+06 21.5455 1.00000
  3.000E+07 3.000E+07 3.007E+00 3.308E+01 4.585E+01 1.604E+01 9.497E+01 9.798E+01 1.205E+06 21.9101 1.00000
  3.500E+07 3.500E+07 3.025E+00 3.869E+01 5.356E+01 1.902E+01 1.113E+02 1.143E+02 1.253E+06 22.2184 1.00000
  4.000E+07 4.000E+07 3.041E+00 4.430E+01 6.127E+01 2.204E+01 1.276E+02 1.307E+02 1.294E+06 22.4855 1.00000
  4.500E+07 4.500E+07 3.055E+00 4.992E+01 6.898E+01 2.511E+01 1.440E+02 1.471E+02 1.330E+06 22.7210 1.00000
  5.000E+07 5.000E+07 3.068E+00 5.554E+01 7.670E+01 2.822E+01 1.605E+02 1.635E+02 1.362E+06 22.9317 1.00000
  5.500E+07 5.500E+07 3.079E+00 6.116E+01 8.441E+01 3.136E+01 1.769E+02 1.800E+02 1.391E+06 23.1224 1.00000
  6.000E+07 6.000E+07 3.090E+00 6.679E+01 9.213E+01 3.453E+01 1.934E+02 1.965E+02 1.418E+06 23.2964 1.00000
  7.000E+07 7.000E+07 3.109E+00 7.804E+01 1.076E+02 4.096E+01 2.266E+02 2.297E+02 1.465E+06 23.6047 1.00000
  8.000E+07 8.000E+07 3.125E+00 8.930E+01 1.230E+02 4.750E+01 2.598E+02 2.629E+02 1.506E+06 23.8718 1.00000
  9.000E+07 9.000E+07 3.140E+00 1.006E+02 1.384E+02 5.413E+01 2.931E+02 2.963E+02 1.542E+06 24.1073 1.00000
  1.000E+08 1.000E+08 3.153E+00 1.118E+02 1.539E+02 6.084E+01 3.265E+02 3.297E+02 1.574E+06 24.3180 1.00000
  1.200E+08 1.200E+08 3.175E+00 1.344E+02 1.847E+02 7.449E+01 3.936E+02 3.968E+02 1.629E+06 24.6827 1.00000
  1.400E+08 1.400E+08 3.195E+00 1.569E+02 2.156E+02 8.841E+01 4.610E+02 4.642E+02 1.676E+06 24.9910 1.00000
  1.700E+08 1.700E+08 3.220E+00 1.908E+02 2.619E+02 1.097E+02 5.624E+02 5.656E+02 1.735E+06 25.3793 1.00000
  2.000E+08 2.000E+08 3.240E+00 2.246E+02 3.083E+02 1.314E+02 6.643E+02 6.675E+02 1.784E+06 25.7043 1.00000
  2.500E+08 2.500E+08 3.269E+00 2.810E+02 3.855E+02 1.684E+02 8.350E+02 8.382E+02 1.851E+06 26.1506 1.00000
  3.000E+08 3.000E+08 3.293E+00 3.375E+02 4.627E+02 2.063E+02 1.007E+03 1.010E+03 1.906E+06 26.5153 1.00000
  3.500E+08 3.500E+08 3.313E+00 3.939E+02 5.399E+02 2.450E+02 1.179E+03 1.182E+03 1.952E+06 26.8236 1.00000
  4.000E+08 4.000E+08 3.331E+00 4.504E+02 6.171E+02 2.843E+02 1.352E+03 1.355E+03 1.991E+06 27.0906 1.00000
  4.500E+08 4.500E+08 3.347E+00 5.068E+02 6.944E+02 3.241E+02 1.525E+03 1.529E+03 2.026E+06 27.3262 1.00000
  5.000E+08 5.000E+08 3.361E+00 5.633E+02 7.716E+02 3.645E+02 1.699E+03 1.703E+03 2.057E+06 27.5369 1.00000
  5.500E+08 5.500E+08 3.374E+00 6.197E+02 8.488E+02 4.054E+02 1.874E+03 1.877E+03 2.085E+06 27.7275 1.00000
  6.000E+08 6.000E+08 3.386E+00 6.762E+02 9.260E+02 4.467E+02 2.049E+03 2.052E+03 2.111E+06 27.9016 1.00000
  7.000E+08 7.000E+08 3.407E+00 7.891E+02 1.080E+03 5.305E+02 2.400E+03 2.403E+03 2.156E+06 28.2099 1.00000
  8.000E+08 8.000E+08 3.425E+00 9.021E+02 1.235E+03 6.157E+02 2.753E+03 2.756E+03 2.195E+06 28.4769 1.00000
  9.000E+08 9.000E+08 3.441E+00 1.015E+03 1.389E+03 7.022E+02 3.106E+03 3.110E+03 2.229E+06 28.7125 1.00000
  1.000E+09 1.000E+09 3.456E+00 1.128E+03 1.544E+03 7.898E+02 3.461E+03 3.465E+03 2.259E+06 28.9232 1.00000
