 Incident particle is a Muon with M = 105.65839 MeV
 Index = 0: Lung
      Absorber with <Z/A> = 0.54957
 Sternheimer coef:  a     k=m_s   x_0    x_1    I[eV]   Cbar  delta0
                 0.0859  3.5353  0.2261  2.8001   75.3  3.4708 0.00

 *** Table generated with PUMAS v1.00 ***

      T         p     Ionization  brems     pair     photonuc  Radloss    dE/dx   CSDA Range  delta   beta
    [MeV]    [MeV/c]  -----------------------[MeV cm^2/g]------------------------  [g/cm^2]
  1.000E+00 1.457E+01 5.000E+01 7.801E-07 0.000E+00 0.000E+00 7.801E-07 5.000E+01 9.999E-03  0.0000 0.13661
  1.200E+00 1.597E+01 4.314E+01 8.940E-07 0.000E+00 0.000E+00 8.940E-07 4.314E+01 1.432E-02  0.0000 0.14944
  1.400E+00 1.726E+01 3.807E+01 1.003E-06 0.000E+00 0.000E+00 1.003E-06 3.807E+01 1.926E-02  0.0000 0.16119
  1.700E+00 1.903E+01 3.250E+01 1.158E-06 0.000E+00 0.000E+00 1.158E-06 3.250E+01 2.782E-02  0.0000 0.17725
  2.000E+00 2.066E+01 2.847E+01 1.305E-06 0.000E+00 0.000E+00 1.305E-06 2.847E+01 3.770E-02  0.0000 0.19186
  2.500E+00 2.312E+01 2.373E+01 1.535E-06 0.000E+00 0.000E+00 1.535E-06 2.373E+01 5.702E-02  0.0000 0.21376
  3.000E+00 2.536E+01 2.046E+01 1.751E-06 0.000E+00 0.000E+00 1.751E-06 2.046E+01 7.977E-02  0.0000 0.23336
  3.500E+00 2.742E+01 1.805E+01 1.954E-06 0.000E+00 0.000E+00 1.954E-06 1.805E+01 1.058E-01  0.0000 0.25120
  4.000E+00 2.935E+01 1.620E+01 2.147E-06 0.000E+00 0.000E+00 2.147E-06 1.620E+01 1.351E-01  0.0000 0.26763
  4.500E+00 3.116E+01 1.474E+01 2.332E-06 0.000E+00 0.000E+00 2.332E-06 1.474E+01 1.675E-01  0.0000 0.28290
  5.000E+00 3.289E+01 1.354E+01 2.509E-06 0.000E+00 0.000E+00 2.509E-06 1.354E+01 2.029E-01  0.0000 0.29720
  5.500E+00 3.453E+01 1.255E+01 2.679E-06 0.000E+00 0.000E+00 2.679E-06 1.255E+01 2.413E-01  0.0000 0.31066
  6.000E+00 3.611E+01 1.171E+01 2.843E-06 0.000E+00 0.000E+00 2.843E-06 1.171E+01 2.826E-01  0.0000 0.32339
  7.000E+00 3.909E+01 1.037E+01 3.156E-06 0.000E+00 0.000E+00 3.156E-06 1.037E+01 3.735E-01  0.0000 0.34700
  8.000E+00 4.189E+01 9.349E+00 3.450E-06 0.000E+00 0.000E+00 3.450E-06 9.349E+00 4.751E-01  0.0000 0.36854
  9.000E+00 4.453E+01 8.539E+00 3.730E-06 0.000E+00 0.000E+00 3.730E-06 8.539E+00 5.872E-01  0.0000 0.38836
  1.000E+01 4.704E+01 7.882E+00 3.997E-06 0.000E+00 0.000E+00 3.997E-06 7.882E+00 7.092E-01  0.0000 0.40675
  1.200E+01 5.177E+01 6.878E+00 4.498E-06 0.000E+00 0.000E+00 4.498E-06 6.878E+00 9.814E-01  0.0000 0.43998
  1.400E+01 5.616E+01 6.148E+00 4.966E-06 0.000E+00 0.000E+00 4.966E-06 6.148E+00 1.289E+00  0.0000 0.46937
  1.700E+01 6.230E+01 5.361E+00 5.618E-06 0.000E+00 0.000E+00 5.618E-06 5.361E+00 1.813E+00  0.0000 0.50792
  2.000E+01 6.802E+01 4.802E+00 6.226E-06 0.000E+00 0.000E+00 6.226E-06 4.802E+00 2.405E+00  0.0000 0.54129
  2.500E+01 7.686E+01 4.158E+00 7.171E-06 0.000E+00 0.000E+00 7.171E-06 4.158E+00 3.527E+00  0.0000 0.58827
  3.000E+01 8.509E+01 3.725E+00 8.056E-06 0.000E+00 0.000E+00 8.056E-06 3.725E+00 4.800E+00  0.0000 0.62720
  3.500E+01 9.285E+01 3.414E+00 8.902E-06 0.000E+00 0.000E+00 8.902E-06 3.414E+00 6.203E+00  0.0000 0.66011
  4.000E+01 1.003E+02 3.181E+00 9.722E-06 0.000E+00 0.000E+00 9.722E-06 3.181E+00 7.721E+00  0.0000 0.68834
  4.500E+01 1.074E+02 3.000E+00 1.052E-05 0.000E+00 0.000E+00 1.052E-05 3.000E+00 9.340E+00  0.0000 0.71286
  5.000E+01 1.143E+02 2.856E+00 1.132E-05 0.000E+00 0.000E+00 1.132E-05 2.856E+00 1.105E+01  0.0000 0.73434
  5.500E+01 1.210E+02 2.740E+00 1.210E-05 0.000E+00 0.000E+00 1.210E-05 2.740E+00 1.284E+01  0.0000 0.75332
  6.000E+01 1.276E+02 2.644E+00 1.289E-05 0.000E+00 0.000E+00 1.289E-05 2.644E+00 1.469E+01  0.0000 0.77019
  7.000E+01 1.403E+02 2.496E+00 1.445E-05 0.000E+00 0.000E+00 1.445E-05 2.496E+00 1.859E+01  0.0000 0.79887
  8.000E+01 1.527E+02 2.388E+00 1.603E-05 0.000E+00 0.000E+00 1.603E-05 2.388E+00 2.269E+01  0.0000 0.82227
  9.000E+01 1.647E+02 2.308E+00 1.763E-05 0.000E+00 0.000E+00 1.763E-05 2.308E+00 2.695E+01  0.0000 0.84166
  1.000E+02 1.764E+02 2.246E+00 1.925E-05 0.000E+00 0.000E+00 1.925E-05 2.246E+00 3.134E+01  0.0000 0.85794
  1.200E+02 1.994E+02 2.153E+00 2.257E-05 0.000E+00 0.000E+00 2.257E-05 2.153E+00 4.043E+01  0.0675 0.88361
  1.400E+02 2.218E+02 2.093E+00 2.601E-05 0.000E+00 0.000E+00 2.601E-05 2.093E+00 4.986E+01  0.1369 0.90278
  1.700E+02 2.546E+02 2.036E+00 3.139E-05 4.510E-14 0.000E+00 3.139E-05 2.036E+00 6.439E+01  0.2368 0.92363
  2.000E+02 2.868E+02 2.004E+00 3.703E-05 1.012E-11 0.000E+00 3.703E-05 2.004E+00 7.924E+01  0.3316 0.93835
  2.500E+02 3.396E+02 1.978E+00 4.698E-05 8.390E-08 0.000E+00 4.707E-05 1.978E+00 1.044E+02  0.4792 0.95485
  3.000E+02 3.917E+02 1.971E+00 5.758E-05 7.529E-07 0.000E+00 5.833E-05 1.971E+00 1.297E+02  0.6155 0.96548
  3.500E+02 4.432E+02 1.971E+00 6.875E-05 2.074E-06 0.000E+00 7.083E-05 1.971E+00 1.550E+02  0.7419 0.97274
  4.000E+02 4.945E+02 1.977E+00 8.046E-05 4.019E-06 0.000E+00 8.448E-05 1.977E+00 1.804E+02  0.8598 0.97793
  4.500E+02 5.455E+02 1.985E+00 9.266E-05 6.564E-06 0.000E+00 9.923E-05 1.985E+00 2.056E+02  0.9703 0.98176
  5.000E+02 5.964E+02 1.994E+00 1.053E-04 9.688E-06 0.000E+00 1.150E-04 1.994E+00 2.307E+02  1.0744 0.98467
  5.500E+02 6.471E+02 2.003E+00 1.184E-04 1.337E-05 0.000E+00 1.318E-04 2.004E+00 2.558E+02  1.1728 0.98693
  6.000E+02 6.977E+02 2.013E+00 1.319E-04 1.759E-05 0.000E+00 1.495E-04 2.013E+00 2.807E+02  1.2661 0.98873
  7.000E+02 7.987E+02 2.033E+00 1.600E-04 2.758E-05 0.000E+00 1.875E-04 2.033E+00 3.301E+02  1.4394 0.99136
  8.000E+02 8.995E+02 2.052E+00 1.894E-04 3.953E-05 0.000E+00 2.289E-04 2.052E+00 3.790E+02  1.5977 0.99317
  9.000E+02 1.000E+03 2.069E+00 2.200E-04 5.329E-05 0.000E+00 2.733E-04 2.070E+00 4.276E+02  1.7435 0.99447
  1.000E+03 1.101E+03 2.086E+00 2.517E-04 6.878E-05 0.000E+00 3.205E-04 2.086E+00 4.757E+02  1.8787 0.99542
  1.200E+03 1.301E+03 2.115E+00 3.182E-04 1.045E-04 2.256E-05 4.452E-04 2.116E+00 5.709E+02  2.1231 0.99672
  1.400E+03 1.502E+03 2.141E+00 3.881E-04 1.460E-04 6.181E-05 5.960E-04 2.142E+00 6.648E+02  2.3395 0.99753
  1.700E+03 1.803E+03 2.174E+00 4.988E-04 2.179E-04 1.327E-04 8.494E-04 2.175E+00 8.038E+02  2.6241 0.99829
  2.000E+03 2.103E+03 2.202E+00 6.155E-04 3.001E-04 2.164E-04 1.132E-03 2.204E+00 9.409E+02  2.8722 0.99874
  2.500E+03 2.604E+03 2.241E+00 8.213E-04 4.569E-04 3.788E-04 1.657E-03 2.243E+00 1.166E+03  3.2263 0.99918
  3.000E+03 3.104E+03 2.272E+00 1.039E-03 6.349E-04 5.499E-04 2.224E-03 2.274E+00 1.387E+03  3.5263 0.99942
  3.500E+03 3.604E+03 2.298E+00 1.267E-03 8.312E-04 7.318E-04 2.830E-03 2.301E+00 1.606E+03  3.7869 0.99957
  4.000E+03 4.104E+03 2.320E+00 1.504E-03 1.059E-03 9.265E-04 3.489E-03 2.324E+00 1.822E+03  4.0173 0.99967
  4.500E+03 4.604E+03 2.340E+00 1.748E-03 1.308E-03 1.129E-03 4.186E-03 2.344E+00 2.036E+03  4.2239 0.99974
  5.000E+03 5.105E+03 2.357E+00 2.000E-03 1.572E-03 1.325E-03 4.896E-03 2.362E+00 2.249E+03  4.4112 0.99979
  5.500E+03 5.605E+03 2.372E+00 2.258E-03 1.849E-03 1.536E-03 5.643E-03 2.378E+00 2.460E+03  4.5826 0.99982
  6.000E+03 6.105E+03 2.386E+00 2.522E-03 2.138E-03 1.732E-03 6.393E-03 2.393E+00 2.669E+03  4.7405 0.99985
  7.000E+03 7.105E+03 2.410E+00 3.066E-03 2.752E-03 2.150E-03 7.968E-03 2.418E+00 3.085E+03  5.0237 0.99989
  8.000E+03 8.105E+03 2.431E+00 3.629E-03 3.405E-03 2.565E-03 9.599E-03 2.441E+00 3.497E+03  5.2721 0.99992
  9.000E+03 9.105E+03 2.449E+00 4.209E-03 4.093E-03 2.957E-03 1.126E-02 2.460E+00 3.905E+03  5.4933 0.99993
  1.000E+04 1.011E+04 2.465E+00 4.803E-03 4.813E-03 3.361E-03 1.298E-02 2.478E+00 4.310E+03  5.6929 0.99995
  1.200E+04 1.211E+04 2.491E+00 6.031E-03 6.335E-03 4.183E-03 1.655E-02 2.508E+00 5.112E+03  6.0413 0.99996
  1.400E+04 1.411E+04 2.513E+00 7.304E-03 7.951E-03 5.009E-03 2.026E-02 2.534E+00 5.906E+03  6.3387 0.99997
  1.700E+04 1.711E+04 2.541E+00 9.285E-03 1.052E-02 6.234E-03 2.604E-02 2.567E+00 7.082E+03  6.7164 0.99998
  2.000E+04 2.011E+04 2.563E+00 1.134E-02 1.324E-02 7.440E-03 3.202E-02 2.595E+00 8.245E+03  7.0348 0.99999
  2.500E+04 2.511E+04 2.592E+00 1.489E-02 1.805E-02 9.424E-03 4.236E-02 2.635E+00 1.016E+04  7.4746 0.99999
  3.000E+04 3.011E+04 2.616E+00 1.858E-02 2.312E-02 1.138E-02 5.308E-02 2.669E+00 1.204E+04  7.8357 0.99999
  3.500E+04 3.511E+04 2.635E+00 2.238E-02 2.842E-02 1.335E-02 6.415E-02 2.699E+00 1.391E+04  8.1419 1.00000
  4.000E+04 4.011E+04 2.652E+00 2.628E-02 3.390E-02 1.531E-02 7.549E-02 2.727E+00 1.575E+04  8.4077 1.00000
  4.500E+04 4.511E+04 2.666E+00 3.026E-02 3.953E-02 1.725E-02 8.704E-02 2.753E+00 1.757E+04  8.6425 1.00000
  5.000E+04 5.011E+04 2.679E+00 3.431E-02 4.531E-02 1.918E-02 9.880E-02 2.778E+00 1.938E+04  8.8526 1.00000
  5.500E+04 5.511E+04 2.691E+00 3.842E-02 5.120E-02 2.114E-02 1.108E-01 2.801E+00 2.117E+04  9.0428 1.00000
  6.000E+04 6.011E+04 2.701E+00 4.260E-02 5.721E-02 2.307E-02 1.229E-01 2.824E+00 2.295E+04  9.2165 1.00000
  7.000E+04 7.011E+04 2.719E+00 5.110E-02 6.949E-02 2.692E-02 1.475E-01 2.867E+00 2.647E+04  9.5243 1.00000
  8.000E+04 8.011E+04 2.735E+00 5.978E-02 8.209E-02 3.077E-02 1.726E-01 2.908E+00 2.993E+04  9.7910 1.00000
  9.000E+04 9.011E+04 2.749E+00 6.862E-02 9.496E-02 3.464E-02 1.982E-01 2.947E+00 3.335E+04 10.0263 1.00000
  1.000E+05 1.001E+05 2.761E+00 7.759E-02 1.081E-01 3.843E-02 2.241E-01 2.985E+00 3.672E+04 10.2367 1.00000
  1.200E+05 1.201E+05 2.782E+00 9.587E-02 1.348E-01 4.616E-02 2.769E-01 3.058E+00 4.334E+04 10.6010 1.00000
  1.400E+05 1.401E+05 2.799E+00 1.146E-01 1.622E-01 5.390E-02 3.307E-01 3.130E+00 4.980E+04 10.9091 1.00000
  1.700E+05 1.701E+05 2.821E+00 1.432E-01 2.042E-01 6.553E-02 4.129E-01 3.234E+00 5.923E+04 11.2971 1.00000
  2.000E+05 2.001E+05 2.840E+00 1.723E-01 2.471E-01 7.724E-02 4.967E-01 3.336E+00 6.837E+04 11.6220 1.00000
  2.500E+05 2.501E+05 2.865E+00 2.220E-01 3.200E-01 9.683E-02 6.389E-01 3.503E+00 8.300E+04 12.0681 1.00000
  3.000E+05 3.001E+05 2.885E+00 2.727E-01 3.943E-01 1.166E-01 7.836E-01 3.669E+00 9.695E+04 12.4326 1.00000
  3.500E+05 3.501E+05 2.902E+00 3.242E-01 4.696E-01 1.366E-01 9.304E-01 3.833E+00 1.103E+05 12.7408 1.00000
  4.000E+05 4.001E+05 2.918E+00 3.763E-01 5.458E-01 1.567E-01 1.079E+00 3.996E+00 1.231E+05 13.0077 1.00000
  4.500E+05 4.501E+05 2.931E+00 4.290E-01 6.226E-01 1.769E-01 1.229E+00 4.159E+00 1.353E+05 13.2433 1.00000
  5.000E+05 5.001E+05 2.943E+00 4.822E-01 7.000E-01 1.973E-01 1.380E+00 4.322E+00 1.471E+05 13.4539 1.00000
  5.500E+05 5.501E+05 2.953E+00 5.358E-01 7.779E-01 2.176E-01 1.531E+00 4.485E+00 1.585E+05 13.6445 1.00000
  6.000E+05 6.001E+05 2.963E+00 5.898E-01 8.561E-01 2.380E-01 1.684E+00 4.647E+00 1.694E+05 13.8185 1.00000
  7.000E+05 7.001E+05 2.981E+00 6.987E-01 1.014E+00 2.791E-01 1.991E+00 4.972E+00 1.902E+05 14.1268 1.00000
  8.000E+05 8.001E+05 2.996E+00 8.086E-01 1.172E+00 3.207E-01 2.302E+00 5.298E+00 2.097E+05 14.3938 1.00000
  9.000E+05 9.001E+05 3.010E+00 9.194E-01 1.332E+00 3.627E-01 2.614E+00 5.624E+00 2.281E+05 14.6293 1.00000
  1.000E+06 1.000E+06 3.022E+00 1.031E+00 1.492E+00 4.051E-01 2.928E+00 5.950E+00 2.454E+05 14.8400 1.00000
  1.200E+06 1.200E+06 3.043E+00 1.256E+00 1.814E+00 4.909E-01 3.561E+00 6.604E+00 2.773E+05 15.2046 1.00000
  1.400E+06 1.400E+06 3.061E+00 1.483E+00 2.138E+00 5.779E-01 4.199E+00 7.260E+00 3.062E+05 15.5129 1.00000
  1.700E+06 1.700E+06 3.083E+00 1.826E+00 2.627E+00 7.105E-01 5.164E+00 8.247E+00 3.451E+05 15.9012 1.00000
  2.000E+06 2.000E+06 3.102E+00 2.173E+00 3.118E+00 8.453E-01 6.136E+00 9.238E+00 3.795E+05 16.2262 1.00000
  2.500E+06 2.500E+06 3.129E+00 2.754E+00 3.940E+00 1.074E+00 7.768E+00 1.090E+01 4.295E+05 16.6725 1.00000
  3.000E+06 3.000E+06 3.151E+00 3.340E+00 4.765E+00 1.307E+00 9.412E+00 1.256E+01 4.724E+05 17.0371 1.00000
  3.500E+06 3.500E+06 3.169E+00 3.929E+00 5.592E+00 1.544E+00 1.107E+01 1.423E+01 5.098E+05 17.3454 1.00000
  4.000E+06 4.000E+06 3.185E+00 4.521E+00 6.421E+00 1.785E+00 1.273E+01 1.591E+01 5.431E+05 17.6124 1.00000
  4.500E+06 4.500E+06 3.200E+00 5.115E+00 7.252E+00 2.028E+00 1.439E+01 1.759E+01 5.730E+05 17.8480 1.00000
  5.000E+06 5.000E+06 3.212E+00 5.710E+00 8.084E+00 2.274E+00 1.607E+01 1.928E+01 6.002E+05 18.0587 1.00000
  5.500E+06 5.500E+06 3.224E+00 6.307E+00 8.916E+00 2.523E+00 1.775E+01 2.097E+01 6.251E+05 18.2493 1.00000
  6.000E+06 6.000E+06 3.235E+00 6.906E+00 9.749E+00 2.774E+00 1.943E+01 2.266E+01 6.480E+05 18.4234 1.00000
  7.000E+06 7.000E+06 3.254E+00 8.105E+00 1.142E+01 3.283E+00 2.281E+01 2.606E+01 6.893E+05 18.7316 1.00000
  8.000E+06 8.000E+06 3.271E+00 9.308E+00 1.309E+01 3.799E+00 2.620E+01 2.947E+01 7.254E+05 18.9987 1.00000
  9.000E+06 9.000E+06 3.285E+00 1.051E+01 1.476E+01 4.321E+00 2.960E+01 3.288E+01 7.576E+05 19.2343 1.00000
  1.000E+07 1.000E+07 3.299E+00 1.172E+01 1.643E+01 4.850E+00 3.301E+01 3.630E+01 7.866E+05 19.4450 1.00000
  1.200E+07 1.200E+07 3.322E+00 1.414E+01 1.978E+01 5.924E+00 3.985E+01 4.317E+01 8.373E+05 19.8096 1.00000
  1.400E+07 1.400E+07 3.341E+00 1.657E+01 2.314E+01 7.018E+00 4.672E+01 5.006E+01 8.804E+05 20.1179 1.00000
  1.700E+07 1.700E+07 3.366E+00 2.022E+01 2.817E+01 8.689E+00 5.707E+01 6.044E+01 9.352E+05 20.5062 1.00000
  2.000E+07 2.000E+07 3.387E+00 2.387E+01 3.320E+01 1.039E+01 6.747E+01 7.085E+01 9.812E+05 20.8313 1.00000
  2.500E+07 2.500E+07 3.417E+00 2.997E+01 4.160E+01 1.329E+01 8.487E+01 8.828E+01 1.045E+06 21.2776 1.00000
  3.000E+07 3.000E+07 3.441E+00 3.608E+01 5.001E+01 1.626E+01 1.023E+02 1.058E+02 1.097E+06 21.6422 1.00000
  3.500E+07 3.500E+07 3.461E+00 4.220E+01 5.841E+01 1.927E+01 1.199E+02 1.233E+02 1.141E+06 21.9505 1.00000
  4.000E+07 4.000E+07 3.479E+00 4.832E+01 6.682E+01 2.234E+01 1.375E+02 1.410E+02 1.179E+06 22.2176 1.00000
  4.500E+07 4.500E+07 3.495E+00 5.445E+01 7.523E+01 2.545E+01 1.551E+02 1.586E+02 1.212E+06 22.4531 1.00000
  5.000E+07 5.000E+07 3.509E+00 6.058E+01 8.364E+01 2.860E+01 1.728E+02 1.763E+02 1.242E+06 22.6638 1.00000
  5.500E+07 5.500E+07 3.522E+00 6.671E+01 9.206E+01 3.178E+01 1.905E+02 1.941E+02 1.269E+06 22.8545 1.00000
  6.000E+07 6.000E+07 3.534E+00 7.284E+01 1.005E+02 3.500E+01 2.083E+02 2.118E+02 1.294E+06 23.0285 1.00000
  7.000E+07 7.000E+07 3.555E+00 8.512E+01 1.173E+02 4.152E+01 2.439E+02 2.475E+02 1.338E+06 23.3368 1.00000
  8.000E+07 8.000E+07 3.574E+00 9.740E+01 1.341E+02 4.814E+01 2.797E+02 2.832E+02 1.375E+06 23.6039 1.00000
  9.000E+07 9.000E+07 3.590E+00 1.097E+02 1.510E+02 5.486E+01 3.155E+02 3.191E+02 1.409E+06 23.8394 1.00000
  1.000E+08 1.000E+08 3.605E+00 1.220E+02 1.678E+02 6.167E+01 3.514E+02 3.550E+02 1.439E+06 24.0501 1.00000
  1.200E+08 1.200E+08 3.631E+00 1.466E+02 2.015E+02 7.550E+01 4.235E+02 4.272E+02 1.490E+06 24.4148 1.00000
  1.400E+08 1.400E+08 3.653E+00 1.711E+02 2.352E+02 8.960E+01 4.959E+02 4.996E+02 1.534E+06 24.7231 1.00000
  1.700E+08 1.700E+08 3.681E+00 2.080E+02 2.857E+02 1.112E+02 6.049E+02 6.086E+02 1.588E+06 25.1114 1.00000
  2.000E+08 2.000E+08 3.704E+00 2.450E+02 3.362E+02 1.332E+02 7.143E+02 7.180E+02 1.634E+06 25.4364 1.00000
  2.500E+08 2.500E+08 3.737E+00 3.065E+02 4.204E+02 1.707E+02 8.976E+02 9.013E+02 1.696E+06 25.8827 1.00000
  3.000E+08 3.000E+08 3.763E+00 3.680E+02 5.046E+02 2.091E+02 1.082E+03 1.086E+03 1.747E+06 26.2474 1.00000
  3.500E+08 3.500E+08 3.786E+00 4.296E+02 5.888E+02 2.483E+02 1.267E+03 1.270E+03 1.790E+06 26.5557 1.00000
  4.000E+08 4.000E+08 3.806E+00 4.911E+02 6.730E+02 2.881E+02 1.452E+03 1.456E+03 1.827E+06 26.8227 1.00000
  4.500E+08 4.500E+08 3.824E+00 5.527E+02 7.572E+02 3.285E+02 1.638E+03 1.642E+03 1.859E+06 27.0583 1.00000
  5.000E+08 5.000E+08 3.840E+00 6.143E+02 8.414E+02 3.694E+02 1.825E+03 1.829E+03 1.888E+06 27.2690 1.00000
  5.500E+08 5.500E+08 3.855E+00 6.758E+02 9.257E+02 4.108E+02 2.012E+03 2.016E+03 1.914E+06 27.4596 1.00000
  6.000E+08 6.000E+08 3.868E+00 7.374E+02 1.010E+03 4.527E+02 2.200E+03 2.204E+03 1.938E+06 27.6337 1.00000
  7.000E+08 7.000E+08 3.892E+00 8.606E+02 1.178E+03 5.376E+02 2.576E+03 2.580E+03 1.980E+06 27.9420 1.00000
  8.000E+08 8.000E+08 3.912E+00 9.837E+02 1.347E+03 6.240E+02 2.954E+03 2.958E+03 2.016E+06 28.2090 1.00000
  9.000E+08 9.000E+08 3.931E+00 1.107E+03 1.515E+03 7.117E+02 3.334E+03 3.338E+03 2.048E+06 28.4446 1.00000
  1.000E+09 1.000E+09 3.947E+00 1.230E+03 1.684E+03 8.005E+02 3.714E+03 3.718E+03 2.076E+06 28.6553 1.00000
