 Incident particle is a Muon with M = 105.65839 MeV
 Index = 0: LutetiumSiliconOxide
      Absorber with <Z/A> = 0.42793
 Sternheimer coef:  a     k=m_s   x_0    x_1    I[eV]   Cbar  delta0
                 0.2062  3.0000  0.2732  3.0000  472.0  5.4394 0.00

 *** Table generated with PUMAS v1.00 ***

      T         p     Ionization  brems     pair     photonuc  Radloss    dE/dx   CSDA Range  delta   beta
    [MeV]    [MeV/c]  -----------------------[MeV cm^2/g]------------------------  [g/cm^2]
  1.000E+00 1.457E+01 2.601E+01 4.057E-06 0.000E+00 0.000E+00 4.057E-06 2.601E+01 1.922E-02  0.0000 0.13661
  1.200E+00 1.597E+01 2.279E+01 4.659E-06 0.000E+00 0.000E+00 4.659E-06 2.279E+01 2.745E-02  0.0000 0.14944
  1.400E+00 1.726E+01 2.036E+01 5.229E-06 0.000E+00 0.000E+00 5.229E-06 2.036E+01 3.675E-02  0.0000 0.16119
  1.700E+00 1.903E+01 1.763E+01 6.036E-06 0.000E+00 0.000E+00 6.036E-06 1.763E+01 5.263E-02  0.0000 0.17725
  2.000E+00 2.066E+01 1.562E+01 6.794E-06 0.000E+00 0.000E+00 6.794E-06 1.562E+01 7.074E-02  0.0000 0.19186
  2.500E+00 2.312E+01 1.320E+01 7.970E-06 0.000E+00 0.000E+00 7.970E-06 1.320E+01 1.057E-01  0.0000 0.21376
  3.000E+00 2.536E+01 1.150E+01 9.056E-06 0.000E+00 0.000E+00 9.056E-06 1.150E+01 1.464E-01  0.0000 0.23336
  3.500E+00 2.742E+01 1.023E+01 1.007E-05 0.000E+00 0.000E+00 1.007E-05 1.023E+01 1.925E-01  0.0000 0.25120
  4.000E+00 2.935E+01 9.250E+00 1.103E-05 0.000E+00 0.000E+00 1.103E-05 9.250E+00 2.440E-01  0.0000 0.26763
  4.500E+00 3.116E+01 8.462E+00 1.193E-05 0.000E+00 0.000E+00 1.193E-05 8.462E+00 3.005E-01  0.0000 0.28290
  5.000E+00 3.289E+01 7.815E+00 1.279E-05 0.000E+00 0.000E+00 1.279E-05 7.815E+00 3.621E-01  0.0000 0.29720
  5.500E+00 3.453E+01 7.274E+00 1.361E-05 0.000E+00 0.000E+00 1.361E-05 7.274E+00 4.284E-01  0.0000 0.31066
  6.000E+00 3.611E+01 6.814E+00 1.440E-05 0.000E+00 0.000E+00 1.440E-05 6.814E+00 4.995E-01  0.0000 0.32339
  7.000E+00 3.909E+01 6.075E+00 1.588E-05 0.000E+00 0.000E+00 1.588E-05 6.075E+00 6.552E-01  0.0000 0.34700
  8.000E+00 4.189E+01 5.504E+00 1.727E-05 0.000E+00 0.000E+00 1.727E-05 5.504E+00 8.283E-01  0.0000 0.36854
  9.000E+00 4.453E+01 5.050E+00 1.858E-05 0.000E+00 0.000E+00 1.858E-05 5.050E+00 1.018E+00  0.0000 0.38836
  1.000E+01 4.704E+01 4.679E+00 1.982E-05 0.000E+00 0.000E+00 1.982E-05 4.679E+00 1.224E+00  0.0000 0.40675
  1.200E+01 5.177E+01 4.110E+00 2.212E-05 0.000E+00 0.000E+00 2.212E-05 4.110E+00 1.681E+00  0.0000 0.43998
  1.400E+01 5.616E+01 3.693E+00 2.425E-05 0.000E+00 0.000E+00 2.425E-05 3.693E+00 2.195E+00  0.0000 0.46937
  1.700E+01 6.230E+01 3.240E+00 2.720E-05 0.000E+00 0.000E+00 2.720E-05 3.240E+00 3.064E+00  0.0000 0.50792
  2.000E+01 6.802E+01 2.916E+00 2.994E-05 0.000E+00 0.000E+00 2.994E-05 2.916E+00 4.042E+00  0.0000 0.54129
  2.500E+01 7.686E+01 2.541E+00 3.417E-05 0.000E+00 0.000E+00 3.417E-05 2.541E+00 5.883E+00  0.0000 0.58827
  3.000E+01 8.509E+01 2.287E+00 3.813E-05 0.000E+00 0.000E+00 3.813E-05 2.287E+00 7.960E+00  0.0000 0.62720
  3.500E+01 9.285E+01 2.105E+00 4.193E-05 0.000E+00 0.000E+00 4.193E-05 2.105E+00 1.024E+01  0.0000 0.66011
  4.000E+01 1.003E+02 1.968E+00 4.562E-05 0.000E+00 0.000E+00 4.562E-05 1.968E+00 1.270E+01  0.0000 0.68834
  4.500E+01 1.074E+02 1.861E+00 4.924E-05 0.000E+00 0.000E+00 4.924E-05 1.861E+00 1.531E+01  0.0000 0.71286
  5.000E+01 1.143E+02 1.777E+00 5.284E-05 0.000E+00 0.000E+00 5.284E-05 1.777E+00 1.806E+01  0.0000 0.73434
  5.500E+01 1.210E+02 1.708E+00 5.641E-05 0.000E+00 0.000E+00 5.641E-05 1.708E+00 2.093E+01  0.0000 0.75332
  6.000E+01 1.276E+02 1.652E+00 5.999E-05 0.000E+00 0.000E+00 5.999E-05 1.652E+00 2.391E+01  0.0000 0.77019
  7.000E+01 1.403E+02 1.565E+00 6.717E-05 0.000E+00 0.000E+00 6.717E-05 1.565E+00 3.013E+01  0.0000 0.79887
  8.000E+01 1.527E+02 1.503E+00 7.444E-05 0.000E+00 0.000E+00 7.444E-05 1.503E+00 3.665E+01  0.0000 0.82227
  9.000E+01 1.647E+02 1.457E+00 8.184E-05 0.000E+00 0.000E+00 8.184E-05 1.457E+00 4.341E+01  0.0000 0.84166
  1.000E+02 1.764E+02 1.421E+00 8.938E-05 0.000E+00 0.000E+00 8.938E-05 1.422E+00 5.036E+01  0.0000 0.85794
  1.200E+02 1.994E+02 1.374E+00 1.049E-04 0.000E+00 0.000E+00 1.049E-04 1.374E+00 6.467E+01 -0.0005 0.88361
  1.400E+02 2.218E+02 1.344E+00 1.211E-04 0.000E+00 0.000E+00 1.211E-04 1.344E+00 7.939E+01  0.0037 0.90278
  1.700E+02 2.546E+02 1.320E+00 1.465E-04 8.828E-15 0.000E+00 1.465E-04 1.320E+00 1.019E+02  0.0197 0.92363
  2.000E+02 2.868E+02 1.308E+00 1.734E-04 1.974E-12 0.000E+00 1.734E-04 1.308E+00 1.247E+02  0.0429 0.93835
  2.500E+02 3.396E+02 1.304E+00 2.211E-04 2.502E-08 0.000E+00 2.211E-04 1.304E+00 1.630E+02  0.0904 0.95485
  3.000E+02 3.917E+02 1.309E+00 2.721E-04 2.298E-07 0.000E+00 2.723E-04 1.309E+00 2.013E+02  0.1433 0.96548
  3.500E+02 4.432E+02 1.318E+00 3.262E-04 6.374E-07 0.000E+00 3.269E-04 1.318E+00 2.393E+02  0.1987 0.97274
  4.000E+02 4.945E+02 1.329E+00 3.832E-04 1.239E-06 0.000E+00 3.844E-04 1.329E+00 2.771E+02  0.2547 0.97793
  4.500E+02 5.455E+02 1.340E+00 4.428E-04 2.429E-05 0.000E+00 4.671E-04 1.341E+00 3.146E+02  0.3105 0.98176
  5.000E+02 5.964E+02 1.352E+00 5.048E-04 5.587E-05 0.000E+00 5.607E-04 1.352E+00 3.517E+02  0.3656 0.98467
  5.500E+02 6.471E+02 1.363E+00 5.691E-04 7.941E-05 0.000E+00 6.485E-04 1.364E+00 3.885E+02  0.4197 0.98693
  6.000E+02 6.977E+02 1.374E+00 6.356E-04 1.056E-04 0.000E+00 7.411E-04 1.375E+00 4.251E+02  0.4727 0.98873
  7.000E+02 7.987E+02 1.395E+00 7.744E-04 1.673E-04 0.000E+00 9.418E-04 1.396E+00 4.972E+02  0.5751 0.99136
  8.000E+02 8.995E+02 1.415E+00 9.205E-04 2.413E-04 0.000E+00 1.162E-03 1.416E+00 5.683E+02  0.6725 0.99317
  9.000E+02 1.000E+03 1.432E+00 1.073E-03 3.268E-04 0.000E+00 1.400E-03 1.434E+00 6.385E+02  0.7652 0.99447
  1.000E+03 1.101E+03 1.449E+00 1.232E-03 4.231E-04 0.000E+00 1.655E-03 1.450E+00 7.079E+02  0.8535 0.99542
  1.200E+03 1.301E+03 1.477E+00 1.565E-03 6.457E-04 2.247E-05 2.233E-03 1.480E+00 8.444E+02  1.0182 0.99672
  1.400E+03 1.502E+03 1.502E+00 1.918E-03 9.046E-04 6.106E-05 2.884E-03 1.505E+00 9.784E+02  1.1690 0.99753
  1.700E+03 1.803E+03 1.534E+00 2.478E-03 1.354E-03 1.297E-04 3.961E-03 1.538E+00 1.176E+03  1.3737 0.99829
  2.000E+03 2.103E+03 1.560E+00 3.070E-03 1.867E-03 2.096E-04 5.147E-03 1.565E+00 1.369E+03  1.5574 0.99874
  2.500E+03 2.604E+03 1.595E+00 4.118E-03 2.846E-03 3.627E-04 7.327E-03 1.603E+00 1.685E+03  1.8273 0.99918
  3.000E+03 3.104E+03 1.624E+00 5.231E-03 3.957E-03 5.216E-04 9.709E-03 1.634E+00 1.994E+03  2.0624 0.99942
  3.500E+03 3.604E+03 1.648E+00 6.397E-03 5.182E-03 6.886E-04 1.227E-02 1.660E+00 2.297E+03  2.2710 0.99957
  4.000E+03 4.104E+03 1.668E+00 7.611E-03 6.516E-03 8.660E-04 1.499E-02 1.683E+00 2.597E+03  2.4586 0.99967
  4.500E+03 4.604E+03 1.685E+00 8.866E-03 7.945E-03 1.050E-03 1.786E-02 1.703E+00 2.892E+03  2.6293 0.99974
  5.000E+03 5.105E+03 1.701E+00 1.016E-02 9.453E-03 1.225E-03 2.084E-02 1.722E+00 3.184E+03  2.7859 0.99979
  5.500E+03 5.605E+03 1.715E+00 1.148E-02 1.103E-02 1.414E-03 2.393E-02 1.738E+00 3.473E+03  2.9306 0.99982
  6.000E+03 6.105E+03 1.727E+00 1.284E-02 1.268E-02 1.590E-03 2.711E-02 1.754E+00 3.759E+03  3.0653 0.99985
  7.000E+03 7.105E+03 1.748E+00 1.563E-02 1.615E-02 1.960E-03 3.375E-02 1.782E+00 4.325E+03  3.3095 0.99989
  8.000E+03 8.105E+03 1.766E+00 1.853E-02 1.984E-02 2.327E-03 4.069E-02 1.807E+00 4.882E+03  3.5266 0.99992
  9.000E+03 9.105E+03 1.782E+00 2.150E-02 2.370E-02 2.671E-03 4.787E-02 1.830E+00 5.432E+03  3.7222 0.99993
  1.000E+04 1.011E+04 1.796E+00 2.455E-02 2.773E-02 3.025E-03 5.531E-02 1.851E+00 5.975E+03  3.9002 0.99995
  1.200E+04 1.211E+04 1.819E+00 3.085E-02 3.620E-02 3.740E-03 7.079E-02 1.890E+00 7.045E+03  4.2147 0.99996
  1.400E+04 1.411E+04 1.838E+00 3.738E-02 4.515E-02 4.454E-03 8.698E-02 1.925E+00 8.094E+03  4.4867 0.99997
  1.700E+04 1.711E+04 1.861E+00 4.752E-02 5.932E-02 5.509E-03 1.123E-01 1.973E+00 9.633E+03  4.8364 0.99998
  2.000E+04 2.011E+04 1.879E+00 5.801E-02 7.421E-02 6.540E-03 1.388E-01 2.018E+00 1.114E+04  5.1348 0.99999
  2.500E+04 2.511E+04 1.904E+00 7.613E-02 1.003E-01 8.228E-03 1.847E-01 2.088E+00 1.357E+04  5.5520 0.99999
  3.000E+04 3.011E+04 1.923E+00 9.489E-02 1.277E-01 9.880E-03 2.325E-01 2.155E+00 1.593E+04  5.8985 0.99999
  3.500E+04 3.511E+04 1.939E+00 1.142E-01 1.561E-01 1.154E-02 2.819E-01 2.221E+00 1.822E+04  6.1950 1.00000
  4.000E+04 4.011E+04 1.952E+00 1.339E-01 1.854E-01 1.319E-02 3.325E-01 2.285E+00 2.044E+04  6.4541 1.00000
  4.500E+04 4.511E+04 1.964E+00 1.541E-01 2.153E-01 1.481E-02 3.842E-01 2.348E+00 2.260E+04  6.6841 1.00000
  5.000E+04 5.011E+04 1.974E+00 1.745E-01 2.459E-01 1.642E-02 4.368E-01 2.411E+00 2.470E+04  6.8910 1.00000
  5.500E+04 5.511E+04 1.983E+00 1.953E-01 2.770E-01 1.805E-02 4.903E-01 2.473E+00 2.674E+04  7.0788 1.00000
  6.000E+04 6.011E+04 1.991E+00 2.163E-01 3.085E-01 1.966E-02 5.444E-01 2.536E+00 2.874E+04  7.2509 1.00000
  7.000E+04 7.011E+04 2.005E+00 2.590E-01 3.727E-01 2.285E-02 6.546E-01 2.660E+00 3.259E+04  7.5569 1.00000
  8.000E+04 8.011E+04 2.018E+00 3.026E-01 4.383E-01 2.604E-02 7.669E-01 2.785E+00 3.627E+04  7.8227 1.00000
  9.000E+04 9.011E+04 2.028E+00 3.468E-01 5.050E-01 2.923E-02 8.810E-01 2.909E+00 3.978E+04  8.0577 1.00000
  1.000E+05 1.001E+05 2.038E+00 3.916E-01 5.726E-01 3.235E-02 9.965E-01 3.034E+00 4.315E+04  8.2681 1.00000
  1.200E+05 1.201E+05 2.054E+00 4.828E-01 7.100E-01 3.871E-02 1.231E+00 3.286E+00 4.949E+04  8.6324 1.00000
  1.400E+05 1.401E+05 2.068E+00 5.756E-01 8.498E-01 4.507E-02 1.470E+00 3.538E+00 5.536E+04  8.9405 1.00000
  1.700E+05 1.701E+05 2.085E+00 7.173E-01 1.063E+00 5.459E-02 1.835E+00 3.920E+00 6.342E+04  9.3285 1.00000
  2.000E+05 2.001E+05 2.099E+00 8.614E-01 1.279E+00 6.416E-02 2.205E+00 4.304E+00 7.074E+04  9.6534 1.00000
  2.500E+05 2.501E+05 2.119E+00 1.106E+00 1.645E+00 8.015E-02 2.832E+00 4.950E+00 8.159E+04 10.0995 1.00000
  3.000E+05 3.001E+05 2.135E+00 1.354E+00 2.016E+00 9.624E-02 3.467E+00 5.602E+00 9.111E+04 10.4640 1.00000
  3.500E+05 3.501E+05 2.148E+00 1.606E+00 2.391E+00 1.125E-01 4.109E+00 6.257E+00 9.957E+04 10.7722 1.00000
  4.000E+05 4.001E+05 2.160E+00 1.860E+00 2.768E+00 1.289E-01 4.757E+00 6.917E+00 1.072E+05 11.0391 1.00000
  4.500E+05 4.501E+05 2.170E+00 2.117E+00 3.147E+00 1.453E-01 5.409E+00 7.580E+00 1.141E+05 11.2747 1.00000
  5.000E+05 5.001E+05 2.180E+00 2.375E+00 3.529E+00 1.618E-01 6.065E+00 8.245E+00 1.204E+05 11.4853 1.00000
  5.500E+05 5.501E+05 2.188E+00 2.635E+00 3.911E+00 1.783E-01 6.724E+00 8.912E+00 1.263E+05 11.6759 1.00000
  6.000E+05 6.001E+05 2.196E+00 2.896E+00 4.296E+00 1.948E-01 7.386E+00 9.582E+00 1.317E+05 11.8499 1.00000
  7.000E+05 7.001E+05 2.209E+00 3.422E+00 5.067E+00 2.281E-01 8.717E+00 1.093E+01 1.415E+05 12.1582 1.00000
  8.000E+05 8.001E+05 2.221E+00 3.951E+00 5.842E+00 2.617E-01 1.006E+01 1.228E+01 1.501E+05 12.4252 1.00000
  9.000E+05 9.001E+05 2.232E+00 4.484E+00 6.620E+00 2.957E-01 1.140E+01 1.363E+01 1.579E+05 12.6607 1.00000
  1.000E+06 1.000E+06 2.241E+00 5.019E+00 7.400E+00 3.300E-01 1.275E+01 1.499E+01 1.649E+05 12.8714 1.00000
  1.200E+06 1.200E+06 2.257E+00 6.096E+00 8.966E+00 3.994E-01 1.546E+01 1.772E+01 1.772E+05 13.2360 1.00000
  1.400E+06 1.400E+06 2.271E+00 7.180E+00 1.054E+01 4.697E-01 1.819E+01 2.046E+01 1.877E+05 13.5443 1.00000
  1.700E+06 1.700E+06 2.289E+00 8.815E+00 1.290E+01 5.769E-01 2.229E+01 2.458E+01 2.011E+05 13.9326 1.00000
  2.000E+06 2.000E+06 2.304E+00 1.046E+01 1.527E+01 6.857E-01 2.642E+01 2.872E+01 2.125E+05 14.2576 1.00000
  2.500E+06 2.500E+06 2.324E+00 1.322E+01 1.924E+01 8.704E-01 3.332E+01 3.565E+01 2.282E+05 14.7039 1.00000
  3.000E+06 3.000E+06 2.341E+00 1.598E+01 2.321E+01 1.059E+00 4.025E+01 4.259E+01 2.411E+05 15.0685 1.00000
  3.500E+06 3.500E+06 2.356E+00 1.876E+01 2.719E+01 1.250E+00 4.720E+01 4.955E+01 2.520E+05 15.3768 1.00000
  4.000E+06 4.000E+06 2.368E+00 2.155E+01 3.117E+01 1.444E+00 5.416E+01 5.653E+01 2.614E+05 15.6438 1.00000
  4.500E+06 4.500E+06 2.380E+00 2.434E+01 3.516E+01 1.640E+00 6.114E+01 6.352E+01 2.698E+05 15.8794 1.00000
  5.000E+06 5.000E+06 2.390E+00 2.714E+01 3.915E+01 1.839E+00 6.813E+01 7.052E+01 2.773E+05 16.0901 1.00000
  5.500E+06 5.500E+06 2.399E+00 2.994E+01 4.315E+01 2.040E+00 7.512E+01 7.752E+01 2.841E+05 16.2807 1.00000
  6.000E+06 6.000E+06 2.407E+00 3.274E+01 4.714E+01 2.242E+00 8.213E+01 8.453E+01 2.902E+05 16.4548 1.00000
  7.000E+06 7.000E+06 2.422E+00 3.836E+01 5.514E+01 2.652E+00 9.615E+01 9.857E+01 3.012E+05 16.7630 1.00000
  8.000E+06 8.000E+06 2.435E+00 4.399E+01 6.314E+01 3.068E+00 1.102E+02 1.126E+02 3.107E+05 17.0301 1.00000
  9.000E+06 9.000E+06 2.446E+00 4.962E+01 7.115E+01 3.490E+00 1.243E+02 1.267E+02 3.191E+05 17.2657 1.00000
  1.000E+07 1.000E+07 2.457E+00 5.526E+01 7.916E+01 3.916E+00 1.383E+02 1.408E+02 3.266E+05 17.4764 1.00000
  1.200E+07 1.200E+07 2.475E+00 6.655E+01 9.520E+01 4.782E+00 1.665E+02 1.690E+02 3.396E+05 17.8410 1.00000
  1.400E+07 1.400E+07 2.490E+00 7.786E+01 1.112E+02 5.664E+00 1.948E+02 1.973E+02 3.506E+05 18.1493 1.00000
  1.700E+07 1.700E+07 2.509E+00 9.484E+01 1.353E+02 7.011E+00 2.372E+02 2.397E+02 3.645E+05 18.5376 1.00000
  2.000E+07 2.000E+07 2.526E+00 1.118E+02 1.594E+02 8.384E+00 2.796E+02 2.821E+02 3.761E+05 18.8627 1.00000
  2.500E+07 2.500E+07 2.549E+00 1.402E+02 1.995E+02 1.072E+01 3.505E+02 3.530E+02 3.920E+05 19.3090 1.00000
  3.000E+07 3.000E+07 2.567E+00 1.686E+02 2.397E+02 1.311E+01 4.214E+02 4.240E+02 4.050E+05 19.6736 1.00000
  3.500E+07 3.500E+07 2.583E+00 1.970E+02 2.799E+02 1.554E+01 4.924E+02 4.950E+02 4.159E+05 19.9819 1.00000
  4.000E+07 4.000E+07 2.597E+00 2.254E+02 3.200E+02 1.802E+01 5.634E+02 5.660E+02 4.254E+05 20.2490 1.00000
  4.500E+07 4.500E+07 2.610E+00 2.538E+02 3.602E+02 2.052E+01 6.345E+02 6.371E+02 4.337E+05 20.4845 1.00000
  5.000E+07 5.000E+07 2.621E+00 2.822E+02 4.004E+02 2.306E+01 7.057E+02 7.083E+02 4.412E+05 20.6952 1.00000
  5.500E+07 5.500E+07 2.631E+00 3.106E+02 4.406E+02 2.562E+01 7.769E+02 7.795E+02 4.479E+05 20.8859 1.00000
  6.000E+07 6.000E+07 2.640E+00 3.391E+02 4.808E+02 2.822E+01 8.481E+02 8.507E+02 4.541E+05 21.0599 1.00000
  7.000E+07 7.000E+07 2.657E+00 3.959E+02 5.612E+02 3.347E+01 9.906E+02 9.933E+02 4.650E+05 21.3682 1.00000
  8.000E+07 8.000E+07 2.671E+00 4.528E+02 6.416E+02 3.881E+01 1.133E+03 1.136E+03 4.744E+05 21.6353 1.00000
  9.000E+07 9.000E+07 2.684E+00 5.097E+02 7.220E+02 4.423E+01 1.276E+03 1.279E+03 4.827E+05 21.8708 1.00000
  1.000E+08 1.000E+08 2.695E+00 5.666E+02 8.024E+02 4.971E+01 1.419E+03 1.421E+03 4.902E+05 22.0815 1.00000
  1.200E+08 1.200E+08 2.715E+00 6.805E+02 9.632E+02 6.086E+01 1.705E+03 1.707E+03 5.031E+05 22.4462 1.00000
  1.400E+08 1.400E+08 2.732E+00 7.943E+02 1.124E+03 7.222E+01 1.991E+03 1.993E+03 5.139E+05 22.7545 1.00000
  1.700E+08 1.700E+08 2.754E+00 9.651E+02 1.365E+03 8.961E+01 2.420E+03 2.423E+03 5.276E+05 23.1428 1.00000
  2.000E+08 2.000E+08 2.772E+00 1.136E+03 1.606E+03 1.074E+02 2.850E+03 2.853E+03 5.391E+05 23.4678 1.00000
  2.500E+08 2.500E+08 2.798E+00 1.421E+03 2.009E+03 1.376E+02 3.567E+03 3.570E+03 5.549E+05 23.9141 1.00000
  3.000E+08 3.000E+08 2.819E+00 1.705E+03 2.411E+03 1.686E+02 4.285E+03 4.287E+03 5.677E+05 24.2788 1.00000
  3.500E+08 3.500E+08 2.836E+00 1.990E+03 2.813E+03 2.001E+02 5.003E+03 5.006E+03 5.785E+05 24.5871 1.00000
  4.000E+08 4.000E+08 2.852E+00 2.275E+03 3.215E+03 2.322E+02 5.722E+03 5.725E+03 5.879E+05 24.8541 1.00000
  4.500E+08 4.500E+08 2.866E+00 2.560E+03 3.617E+03 2.648E+02 6.441E+03 6.444E+03 5.961E+05 25.0897 1.00000
  5.000E+08 5.000E+08 2.878E+00 2.845E+03 4.019E+03 2.978E+02 7.161E+03 7.164E+03 6.035E+05 25.3004 1.00000
  5.500E+08 5.500E+08 2.890E+00 3.129E+03 4.421E+03 3.311E+02 7.881E+03 7.884E+03 6.102E+05 25.4910 1.00000
  6.000E+08 6.000E+08 2.900E+00 3.414E+03 4.823E+03 3.649E+02 8.602E+03 8.605E+03 6.162E+05 25.6651 1.00000
  7.000E+08 7.000E+08 2.918E+00 3.984E+03 5.627E+03 4.333E+02 1.004E+04 1.005E+04 6.270E+05 25.9734 1.00000
  8.000E+08 8.000E+08 2.934E+00 4.553E+03 6.431E+03 5.029E+02 1.149E+04 1.149E+04 6.364E+05 26.2404 1.00000
  9.000E+08 9.000E+08 2.949E+00 5.123E+03 7.235E+03 5.736E+02 1.293E+04 1.293E+04 6.446E+05 26.4760 1.00000
  1.000E+09 1.000E+09 2.962E+00 5.692E+03 8.039E+03 6.452E+02 1.438E+04 1.438E+04 6.519E+05 26.6867 1.00000
