 Incident particle is a Muon with M = 105.65839 MeV
 Index = 0: LutetiumFluoride
      Absorber with <Z/A> = 0.42248
 Sternheimer coef:  a     k=m_s   x_0    x_1    I[eV]   Cbar  delta0
                 0.1986  3.0000  0.2214  3.0000  458.7  5.2803 0.00

 *** Table generated with PUMAS v1.00 ***

      T         p     Ionization  brems     pair     photonuc  Radloss    dE/dx   CSDA Range  delta   beta
    [MeV]    [MeV/c]  -----------------------[MeV cm^2/g]------------------------  [g/cm^2]
  1.000E+00 1.457E+01 2.588E+01 3.993E-06 0.000E+00 0.000E+00 3.993E-06 2.588E+01 1.932E-02  0.0000 0.13661
  1.200E+00 1.597E+01 2.267E+01 4.585E-06 0.000E+00 0.000E+00 4.585E-06 2.267E+01 2.759E-02  0.0000 0.14944
  1.400E+00 1.726E+01 2.024E+01 5.147E-06 0.000E+00 0.000E+00 5.147E-06 2.024E+01 3.695E-02  0.0000 0.16119
  1.700E+00 1.903E+01 1.753E+01 5.941E-06 0.000E+00 0.000E+00 5.941E-06 1.753E+01 5.292E-02  0.0000 0.17725
  2.000E+00 2.066E+01 1.552E+01 6.687E-06 0.000E+00 0.000E+00 6.687E-06 1.552E+01 7.114E-02  0.0000 0.19186
  2.500E+00 2.312E+01 1.312E+01 7.844E-06 0.000E+00 0.000E+00 7.844E-06 1.312E+01 1.063E-01  0.0000 0.21376
  3.000E+00 2.536E+01 1.142E+01 8.913E-06 0.000E+00 0.000E+00 8.913E-06 1.142E+01 1.473E-01  0.0000 0.23336
  3.500E+00 2.742E+01 1.016E+01 9.911E-06 0.000E+00 0.000E+00 9.911E-06 1.016E+01 1.937E-01  0.0000 0.25120
  4.000E+00 2.935E+01 9.184E+00 1.085E-05 0.000E+00 0.000E+00 1.085E-05 9.184E+00 2.456E-01  0.0000 0.26763
  4.500E+00 3.116E+01 8.400E+00 1.174E-05 0.000E+00 0.000E+00 1.174E-05 8.400E+00 3.025E-01  0.0000 0.28290
  5.000E+00 3.289E+01 7.757E+00 1.259E-05 0.000E+00 0.000E+00 1.259E-05 7.757E+00 3.645E-01  0.0000 0.29720
  5.500E+00 3.453E+01 7.220E+00 1.339E-05 0.000E+00 0.000E+00 1.339E-05 7.220E+00 4.314E-01  0.0000 0.31066
  6.000E+00 3.611E+01 6.763E+00 1.417E-05 0.000E+00 0.000E+00 1.417E-05 6.763E+00 5.030E-01  0.0000 0.32339
  7.000E+00 3.909E+01 6.028E+00 1.563E-05 0.000E+00 0.000E+00 1.563E-05 6.028E+00 6.599E-01  0.0000 0.34700
  8.000E+00 4.189E+01 5.461E+00 1.700E-05 0.000E+00 0.000E+00 1.700E-05 5.461E+00 8.344E-01  0.0000 0.36854
  9.000E+00 4.453E+01 5.010E+00 1.828E-05 0.000E+00 0.000E+00 1.828E-05 5.010E+00 1.026E+00  0.0000 0.38836
  1.000E+01 4.704E+01 4.642E+00 1.950E-05 0.000E+00 0.000E+00 1.950E-05 4.642E+00 1.233E+00  0.0000 0.40675
  1.200E+01 5.177E+01 4.077E+00 2.177E-05 0.000E+00 0.000E+00 2.177E-05 4.077E+00 1.694E+00  0.0000 0.43998
  1.400E+01 5.616E+01 3.662E+00 2.386E-05 0.000E+00 0.000E+00 2.386E-05 3.662E+00 2.212E+00  0.0000 0.46937
  1.700E+01 6.230E+01 3.213E+00 2.677E-05 0.000E+00 0.000E+00 2.677E-05 3.213E+00 3.089E+00  0.0000 0.50792
  2.000E+01 6.802E+01 2.891E+00 2.946E-05 0.000E+00 0.000E+00 2.946E-05 2.891E+00 4.074E+00  0.0000 0.54129
  2.500E+01 7.686E+01 2.519E+00 3.362E-05 0.000E+00 0.000E+00 3.362E-05 2.519E+00 5.931E+00  0.0000 0.58827
  3.000E+01 8.509E+01 2.268E+00 3.752E-05 0.000E+00 0.000E+00 3.752E-05 2.268E+00 8.026E+00  0.0000 0.62720
  3.500E+01 9.285E+01 2.087E+00 4.125E-05 0.000E+00 0.000E+00 4.125E-05 2.087E+00 1.033E+01  0.0000 0.66011
  4.000E+01 1.003E+02 1.951E+00 4.488E-05 0.000E+00 0.000E+00 4.488E-05 1.951E+00 1.281E+01  0.0000 0.68834
  4.500E+01 1.074E+02 1.845E+00 4.845E-05 0.000E+00 0.000E+00 4.845E-05 1.845E+00 1.544E+01  0.0000 0.71286
  5.000E+01 1.143E+02 1.761E+00 5.199E-05 0.000E+00 0.000E+00 5.199E-05 1.761E+00 1.822E+01  0.0000 0.73434
  5.500E+01 1.210E+02 1.693E+00 5.550E-05 0.000E+00 0.000E+00 5.550E-05 1.693E+00 2.111E+01  0.0000 0.75332
  6.000E+01 1.276E+02 1.637E+00 5.902E-05 0.000E+00 0.000E+00 5.902E-05 1.637E+00 2.412E+01  0.0000 0.77019
  7.000E+01 1.403E+02 1.551E+00 6.609E-05 0.000E+00 0.000E+00 6.609E-05 1.551E+00 3.039E+01  0.0000 0.79887
  8.000E+01 1.527E+02 1.489E+00 7.324E-05 0.000E+00 0.000E+00 7.324E-05 1.489E+00 3.697E+01  0.0000 0.82227
  9.000E+01 1.647E+02 1.443E+00 8.052E-05 0.000E+00 0.000E+00 8.052E-05 1.443E+00 4.380E+01  0.0000 0.84166
  1.000E+02 1.764E+02 1.408E+00 8.794E-05 0.000E+00 0.000E+00 8.794E-05 1.408E+00 5.081E+01 -0.0002 0.85794
  1.200E+02 1.994E+02 1.360E+00 1.032E-04 0.000E+00 0.000E+00 1.032E-04 1.361E+00 6.526E+01  0.0049 0.88361
  1.400E+02 2.218E+02 1.331E+00 1.191E-04 0.000E+00 0.000E+00 1.191E-04 1.331E+00 8.012E+01  0.0168 0.90278
  1.700E+02 2.546E+02 1.305E+00 1.442E-04 1.307E-14 0.000E+00 1.442E-04 1.306E+00 1.029E+02  0.0424 0.92363
  2.000E+02 2.868E+02 1.293E+00 1.706E-04 2.924E-12 0.000E+00 1.706E-04 1.294E+00 1.260E+02  0.0736 0.93835
  2.500E+02 3.396E+02 1.289E+00 2.175E-04 2.391E-08 0.000E+00 2.175E-04 1.289E+00 1.647E+02  0.1317 0.95485
  3.000E+02 3.917E+02 1.293E+00 2.677E-04 2.157E-07 0.000E+00 2.679E-04 1.293E+00 2.034E+02  0.1933 0.96548
  3.500E+02 4.432E+02 1.301E+00 3.210E-04 5.960E-07 0.000E+00 3.216E-04 1.301E+00 2.420E+02  0.2557 0.97274
  4.000E+02 4.945E+02 1.311E+00 3.770E-04 1.157E-06 0.000E+00 3.782E-04 1.312E+00 2.802E+02  0.3177 0.97793
  4.500E+02 5.455E+02 1.322E+00 4.357E-04 2.387E-05 0.000E+00 4.596E-04 1.323E+00 3.182E+02  0.3787 0.98176
  5.000E+02 5.964E+02 1.333E+00 4.967E-04 5.499E-05 0.000E+00 5.517E-04 1.334E+00 3.558E+02  0.4383 0.98467
  5.500E+02 6.471E+02 1.345E+00 5.600E-04 7.817E-05 0.000E+00 6.382E-04 1.345E+00 3.932E+02  0.4965 0.98693
  6.000E+02 6.977E+02 1.355E+00 6.254E-04 1.039E-04 0.000E+00 7.293E-04 1.356E+00 4.302E+02  0.5531 0.98873
  7.000E+02 7.987E+02 1.376E+00 7.620E-04 1.647E-04 0.000E+00 9.268E-04 1.377E+00 5.034E+02  0.6616 0.99136
  8.000E+02 8.995E+02 1.394E+00 9.058E-04 2.376E-04 0.000E+00 1.143E-03 1.396E+00 5.755E+02  0.7642 0.99317
  9.000E+02 1.000E+03 1.412E+00 1.056E-03 3.218E-04 0.000E+00 1.378E-03 1.413E+00 6.467E+02  0.8613 0.99447
  1.000E+03 1.101E+03 1.427E+00 1.212E-03 4.165E-04 0.000E+00 1.629E-03 1.429E+00 7.171E+02  0.9534 0.99542
  1.200E+03 1.301E+03 1.455E+00 1.540E-03 6.356E-04 2.247E-05 2.198E-03 1.458E+00 8.557E+02  1.1244 0.99672
  1.400E+03 1.502E+03 1.480E+00 1.887E-03 8.905E-04 6.107E-05 2.839E-03 1.482E+00 9.918E+02  1.2802 0.99753
  1.700E+03 1.803E+03 1.510E+00 2.439E-03 1.333E-03 1.297E-04 3.901E-03 1.514E+00 1.192E+03  1.4908 0.99829
  2.000E+03 2.103E+03 1.536E+00 3.022E-03 1.838E-03 2.097E-04 5.069E-03 1.541E+00 1.388E+03  1.6791 0.99874
  2.500E+03 2.604E+03 1.570E+00 4.053E-03 2.802E-03 3.628E-04 7.217E-03 1.578E+00 1.709E+03  1.9548 0.99918
  3.000E+03 3.104E+03 1.598E+00 5.148E-03 3.896E-03 5.217E-04 9.565E-03 1.608E+00 2.023E+03  2.1942 0.99942
  3.500E+03 3.604E+03 1.622E+00 6.296E-03 5.101E-03 6.888E-04 1.209E-02 1.634E+00 2.332E+03  2.4061 0.99957
  4.000E+03 4.104E+03 1.641E+00 7.490E-03 6.415E-03 8.664E-04 1.477E-02 1.656E+00 2.636E+03  2.5964 0.99967
  4.500E+03 4.604E+03 1.659E+00 8.725E-03 7.821E-03 1.050E-03 1.760E-02 1.676E+00 2.936E+03  2.7692 0.99974
  5.000E+03 5.105E+03 1.674E+00 9.997E-03 9.306E-03 1.226E-03 2.053E-02 1.694E+00 3.232E+03  2.9276 0.99979
  5.500E+03 5.605E+03 1.687E+00 1.130E-02 1.086E-02 1.415E-03 2.358E-02 1.711E+00 3.526E+03  3.0740 0.99982
  6.000E+03 6.105E+03 1.699E+00 1.264E-02 1.248E-02 1.590E-03 2.671E-02 1.726E+00 3.817E+03  3.2100 0.99985
  7.000E+03 7.105E+03 1.720E+00 1.539E-02 1.590E-02 1.962E-03 3.325E-02 1.754E+00 4.392E+03  3.4563 0.99989
  8.000E+03 8.105E+03 1.738E+00 1.823E-02 1.953E-02 2.329E-03 4.009E-02 1.778E+00 4.958E+03  3.6752 0.99992
  9.000E+03 9.105E+03 1.753E+00 2.116E-02 2.333E-02 2.673E-03 4.717E-02 1.801E+00 5.517E+03  3.8721 0.99993
  1.000E+04 1.011E+04 1.767E+00 2.417E-02 2.730E-02 3.027E-03 5.449E-02 1.821E+00 6.069E+03  4.0512 0.99995
  1.200E+04 1.211E+04 1.789E+00 3.037E-02 3.564E-02 3.743E-03 6.975E-02 1.859E+00 7.156E+03  4.3675 0.99996
  1.400E+04 1.411E+04 1.808E+00 3.679E-02 4.445E-02 4.458E-03 8.570E-02 1.894E+00 8.222E+03  4.6407 0.99997
  1.700E+04 1.711E+04 1.830E+00 4.677E-02 5.839E-02 5.513E-03 1.107E-01 1.941E+00 9.787E+03  4.9918 0.99998
  2.000E+04 2.011E+04 1.849E+00 5.709E-02 7.305E-02 6.546E-03 1.367E-01 1.985E+00 1.132E+04  5.2911 0.99999
  2.500E+04 2.511E+04 1.873E+00 7.493E-02 9.876E-02 8.236E-03 1.819E-01 2.055E+00 1.379E+04  5.7092 0.99999
  3.000E+04 3.011E+04 1.892E+00 9.340E-02 1.257E-01 9.889E-03 2.290E-01 2.121E+00 1.619E+04  6.0564 0.99999
  3.500E+04 3.511E+04 1.907E+00 1.124E-01 1.537E-01 1.156E-02 2.776E-01 2.185E+00 1.851E+04  6.3533 1.00000
  4.000E+04 4.011E+04 1.921E+00 1.318E-01 1.825E-01 1.320E-02 3.275E-01 2.248E+00 2.077E+04  6.6126 1.00000
  4.500E+04 4.511E+04 1.932E+00 1.516E-01 2.120E-01 1.482E-02 3.784E-01 2.311E+00 2.296E+04  6.8428 1.00000
  5.000E+04 5.011E+04 1.942E+00 1.718E-01 2.421E-01 1.644E-02 4.303E-01 2.372E+00 2.510E+04  7.0498 1.00000
  5.500E+04 5.511E+04 1.951E+00 1.922E-01 2.727E-01 1.807E-02 4.829E-01 2.434E+00 2.718E+04  7.2378 1.00000
  6.000E+04 6.011E+04 1.959E+00 2.129E-01 3.037E-01 1.968E-02 5.363E-01 2.495E+00 2.921E+04  7.4099 1.00000
  7.000E+04 7.011E+04 1.973E+00 2.550E-01 3.670E-01 2.287E-02 6.448E-01 2.618E+00 3.312E+04  7.7159 1.00000
  8.000E+04 8.011E+04 1.985E+00 2.978E-01 4.315E-01 2.607E-02 7.554E-01 2.741E+00 3.685E+04  7.9818 1.00000
  9.000E+04 9.011E+04 1.996E+00 3.414E-01 4.971E-01 2.926E-02 8.678E-01 2.864E+00 4.042E+04  8.2168 1.00000
  1.000E+05 1.001E+05 2.005E+00 3.855E-01 5.637E-01 3.239E-02 9.815E-01 2.987E+00 4.384E+04  8.4272 1.00000
  1.200E+05 1.201E+05 2.021E+00 4.752E-01 6.990E-01 3.876E-02 1.213E+00 3.234E+00 5.028E+04  8.7915 1.00000
  1.400E+05 1.401E+05 2.035E+00 5.665E-01 8.366E-01 4.512E-02 1.448E+00 3.483E+00 5.625E+04  9.0996 1.00000
  1.700E+05 1.701E+05 2.052E+00 7.061E-01 1.047E+00 5.466E-02 1.807E+00 3.859E+00 6.444E+04  9.4876 1.00000
  2.000E+05 2.001E+05 2.066E+00 8.479E-01 1.260E+00 6.425E-02 2.172E+00 4.238E+00 7.187E+04  9.8125 1.00000
  2.500E+05 2.501E+05 2.085E+00 1.089E+00 1.620E+00 8.025E-02 2.789E+00 4.874E+00 8.290E+04 10.2586 1.00000
  3.000E+05 3.001E+05 2.101E+00 1.333E+00 1.985E+00 9.636E-02 3.415E+00 5.515E+00 9.256E+04 10.6231 1.00000
  3.500E+05 3.501E+05 2.114E+00 1.581E+00 2.354E+00 1.127E-01 4.047E+00 6.161E+00 1.011E+05 10.9313 1.00000
  4.000E+05 4.001E+05 2.126E+00 1.831E+00 2.725E+00 1.290E-01 4.685E+00 6.811E+00 1.089E+05 11.1982 1.00000
  4.500E+05 4.501E+05 2.136E+00 2.084E+00 3.098E+00 1.455E-01 5.328E+00 7.464E+00 1.159E+05 11.4338 1.00000
  5.000E+05 5.001E+05 2.145E+00 2.338E+00 3.474E+00 1.621E-01 5.974E+00 8.119E+00 1.223E+05 11.6444 1.00000
  5.500E+05 5.501E+05 2.153E+00 2.593E+00 3.851E+00 1.785E-01 6.623E+00 8.776E+00 1.283E+05 11.8350 1.00000
  6.000E+05 6.001E+05 2.161E+00 2.850E+00 4.229E+00 1.950E-01 7.274E+00 9.435E+00 1.338E+05 12.0090 1.00000
  7.000E+05 7.001E+05 2.174E+00 3.368E+00 4.988E+00 2.284E-01 8.585E+00 1.076E+01 1.437E+05 12.3173 1.00000
  8.000E+05 8.001E+05 2.186E+00 3.889E+00 5.751E+00 2.621E-01 9.903E+00 1.209E+01 1.525E+05 12.5843 1.00000
  9.000E+05 9.001E+05 2.197E+00 4.414E+00 6.517E+00 2.961E-01 1.123E+01 1.342E+01 1.603E+05 12.8198 1.00000
  1.000E+06 1.000E+06 2.206E+00 4.941E+00 7.285E+00 3.305E-01 1.256E+01 1.476E+01 1.675E+05 13.0305 1.00000
  1.200E+06 1.200E+06 2.222E+00 6.001E+00 8.826E+00 3.999E-01 1.523E+01 1.745E+01 1.800E+05 13.3951 1.00000
  1.400E+06 1.400E+06 2.236E+00 7.068E+00 1.037E+01 4.704E-01 1.791E+01 2.015E+01 1.907E+05 13.7034 1.00000
  1.700E+06 1.700E+06 2.253E+00 8.678E+00 1.270E+01 5.777E-01 2.196E+01 2.421E+01 2.043E+05 14.0917 1.00000
  2.000E+06 2.000E+06 2.268E+00 1.030E+01 1.504E+01 6.867E-01 2.602E+01 2.829E+01 2.158E+05 14.4167 1.00000
  2.500E+06 2.500E+06 2.288E+00 1.301E+01 1.894E+01 8.717E-01 3.282E+01 3.510E+01 2.318E+05 14.8630 1.00000
  3.000E+06 3.000E+06 2.305E+00 1.573E+01 2.285E+01 1.060E+00 3.964E+01 4.195E+01 2.448E+05 15.2276 1.00000
  3.500E+06 3.500E+06 2.319E+00 1.847E+01 2.676E+01 1.252E+00 4.648E+01 4.880E+01 2.559E+05 15.5359 1.00000
  4.000E+06 4.000E+06 2.332E+00 2.121E+01 3.069E+01 1.446E+00 5.334E+01 5.568E+01 2.655E+05 15.8029 1.00000
  4.500E+06 4.500E+06 2.343E+00 2.396E+01 3.461E+01 1.643E+00 6.022E+01 6.256E+01 2.740E+05 16.0385 1.00000
  5.000E+06 5.000E+06 2.353E+00 2.671E+01 3.854E+01 1.842E+00 6.710E+01 6.945E+01 2.816E+05 16.2492 1.00000
  5.500E+06 5.500E+06 2.361E+00 2.947E+01 4.248E+01 2.043E+00 7.399E+01 7.635E+01 2.885E+05 16.4398 1.00000
  6.000E+06 6.000E+06 2.370E+00 3.223E+01 4.641E+01 2.245E+00 8.089E+01 8.326E+01 2.948E+05 16.6139 1.00000
  7.000E+06 7.000E+06 2.384E+00 3.776E+01 5.428E+01 2.656E+00 9.470E+01 9.708E+01 3.059E+05 16.9221 1.00000
  8.000E+06 8.000E+06 2.397E+00 4.330E+01 6.216E+01 3.073E+00 1.085E+02 1.109E+02 3.156E+05 17.1892 1.00000
  9.000E+06 9.000E+06 2.409E+00 4.885E+01 7.005E+01 3.495E+00 1.224E+02 1.248E+02 3.241E+05 17.4248 1.00000
  1.000E+07 1.000E+07 2.419E+00 5.440E+01 7.793E+01 3.922E+00 1.363E+02 1.387E+02 3.317E+05 17.6355 1.00000
  1.200E+07 1.200E+07 2.436E+00 6.551E+01 9.372E+01 4.789E+00 1.640E+02 1.665E+02 3.449E+05 18.0001 1.00000
  1.400E+07 1.400E+07 2.452E+00 7.664E+01 1.095E+02 5.672E+00 1.918E+02 1.943E+02 3.561E+05 18.3084 1.00000
  1.700E+07 1.700E+07 2.471E+00 9.336E+01 1.332E+02 7.021E+00 2.336E+02 2.361E+02 3.702E+05 18.6967 1.00000
  2.000E+07 2.000E+07 2.487E+00 1.101E+02 1.569E+02 8.397E+00 2.754E+02 2.779E+02 3.819E+05 19.0218 1.00000
  2.500E+07 2.500E+07 2.509E+00 1.380E+02 1.964E+02 1.074E+01 3.452E+02 3.477E+02 3.981E+05 19.4681 1.00000
  3.000E+07 3.000E+07 2.528E+00 1.659E+02 2.360E+02 1.313E+01 4.150E+02 4.176E+02 4.113E+05 19.8327 1.00000
  3.500E+07 3.500E+07 2.544E+00 1.939E+02 2.755E+02 1.557E+01 4.850E+02 4.875E+02 4.224E+05 20.1410 1.00000
  4.000E+07 4.000E+07 2.558E+00 2.218E+02 3.151E+02 1.804E+01 5.550E+02 5.575E+02 4.320E+05 20.4081 1.00000
  4.500E+07 4.500E+07 2.570E+00 2.498E+02 3.546E+02 2.055E+01 6.250E+02 6.276E+02 4.405E+05 20.6436 1.00000
  5.000E+07 5.000E+07 2.581E+00 2.778E+02 3.942E+02 2.309E+01 6.951E+02 6.977E+02 4.480E+05 20.8543 1.00000
  5.500E+07 5.500E+07 2.591E+00 3.058E+02 4.338E+02 2.566E+01 7.652E+02 7.678E+02 4.549E+05 21.0450 1.00000
  6.000E+07 6.000E+07 2.600E+00 3.338E+02 4.733E+02 2.826E+01 8.354E+02 8.380E+02 4.611E+05 21.2190 1.00000
  7.000E+07 7.000E+07 2.616E+00 3.898E+02 5.525E+02 3.352E+01 9.757E+02 9.784E+02 4.722E+05 21.5273 1.00000
  8.000E+07 8.000E+07 2.630E+00 4.458E+02 6.316E+02 3.887E+01 1.116E+03 1.119E+03 4.818E+05 21.7944 1.00000
  9.000E+07 9.000E+07 2.643E+00 5.018E+02 7.108E+02 4.429E+01 1.257E+03 1.259E+03 4.902E+05 22.0299 1.00000
  1.000E+08 1.000E+08 2.654E+00 5.578E+02 7.899E+02 4.978E+01 1.397E+03 1.400E+03 4.977E+05 22.2406 1.00000
  1.200E+08 1.200E+08 2.674E+00 6.698E+02 9.482E+02 6.095E+01 1.679E+03 1.682E+03 5.108E+05 22.6053 1.00000
  1.400E+08 1.400E+08 2.691E+00 7.819E+02 1.107E+03 7.233E+01 1.961E+03 1.963E+03 5.219E+05 22.9136 1.00000
  1.700E+08 1.700E+08 2.712E+00 9.500E+02 1.344E+03 8.975E+01 2.384E+03 2.387E+03 5.358E+05 23.3019 1.00000
  2.000E+08 2.000E+08 2.730E+00 1.118E+03 1.582E+03 1.075E+02 2.807E+03 2.810E+03 5.474E+05 23.6269 1.00000
  2.500E+08 2.500E+08 2.755E+00 1.398E+03 1.977E+03 1.378E+02 3.514E+03 3.516E+03 5.634E+05 24.0732 1.00000
  3.000E+08 3.000E+08 2.776E+00 1.679E+03 2.373E+03 1.688E+02 4.221E+03 4.223E+03 5.765E+05 24.4379 1.00000
  3.500E+08 3.500E+08 2.794E+00 1.959E+03 2.769E+03 2.004E+02 4.928E+03 4.931E+03 5.874E+05 24.7462 1.00000
  4.000E+08 4.000E+08 2.809E+00 2.239E+03 3.165E+03 2.326E+02 5.637E+03 5.640E+03 5.969E+05 25.0132 1.00000
  4.500E+08 4.500E+08 2.823E+00 2.520E+03 3.561E+03 2.652E+02 6.345E+03 6.348E+03 6.053E+05 25.2488 1.00000
  5.000E+08 5.000E+08 2.835E+00 2.800E+03 3.956E+03 2.982E+02 7.055E+03 7.057E+03 6.128E+05 25.4595 1.00000
  5.500E+08 5.500E+08 2.846E+00 3.080E+03 4.352E+03 3.316E+02 7.764E+03 7.767E+03 6.196E+05 25.6501 1.00000
  6.000E+08 6.000E+08 2.856E+00 3.361E+03 4.748E+03 3.654E+02 8.474E+03 8.477E+03 6.257E+05 25.8242 1.00000
  7.000E+08 7.000E+08 2.875E+00 3.921E+03 5.540E+03 4.340E+02 9.895E+03 9.898E+03 6.367E+05 26.1325 1.00000
  8.000E+08 8.000E+08 2.890E+00 4.482E+03 6.331E+03 5.037E+02 1.132E+04 1.132E+04 6.461E+05 26.3995 1.00000
  9.000E+08 9.000E+08 2.905E+00 5.043E+03 7.123E+03 5.745E+02 1.274E+04 1.274E+04 6.545E+05 26.6351 1.00000
  1.000E+09 1.000E+09 2.917E+00 5.604E+03 7.914E+03 6.462E+02 1.416E+04 1.417E+04 6.619E+05 26.8458 1.00000
