 Incident particle is a Muon with M = 105.65839 MeV
 Index = 0: Lutetium
      Absorber with <Z/A> = 0.40579
 Sternheimer coef:  a     k=m_s   x_0    x_1    I[eV]   Cbar  delta0
                 0.2403  2.5643  0.1560  3.5218  694.0  5.9784 0.14

 *** Table generated with PUMAS v1.00 ***

      T         p     Ionization  brems     pair     photonuc  Radloss    dE/dx   CSDA Range  delta   beta
    [MeV]    [MeV/c]  -----------------------[MeV cm^2/g]------------------------  [g/cm^2]
  1.000E+00 1.457E+01 2.209E+01 5.003E-06 0.000E+00 0.000E+00 5.003E-06 2.209E+01 2.264E-02  0.0013 0.13661
  1.200E+00 1.597E+01 1.946E+01 5.746E-06 0.000E+00 0.000E+00 5.746E-06 1.946E+01 3.230E-02  0.0016 0.14944
  1.400E+00 1.726E+01 1.745E+01 6.450E-06 0.000E+00 0.000E+00 6.450E-06 1.745E+01 4.317E-02  0.0018 0.16119
  1.700E+00 1.903E+01 1.519E+01 7.444E-06 0.000E+00 0.000E+00 7.444E-06 1.519E+01 6.164E-02  0.0022 0.17725
  2.000E+00 2.066E+01 1.350E+01 8.378E-06 0.000E+00 0.000E+00 8.378E-06 1.350E+01 8.263E-02  0.0026 0.19186
  2.500E+00 2.312E+01 1.146E+01 9.825E-06 0.000E+00 0.000E+00 9.825E-06 1.146E+01 1.230E-01  0.0033 0.21376
  3.000E+00 2.536E+01 1.002E+01 1.116E-05 0.000E+00 0.000E+00 1.116E-05 1.002E+01 1.697E-01  0.0039 0.23336
  3.500E+00 2.742E+01 8.939E+00 1.241E-05 0.000E+00 0.000E+00 1.241E-05 8.939E+00 2.226E-01  0.0046 0.25120
  4.000E+00 2.935E+01 8.096E+00 1.358E-05 0.000E+00 0.000E+00 1.358E-05 8.096E+00 2.815E-01  0.0053 0.26763
  4.500E+00 3.116E+01 7.419E+00 1.469E-05 0.000E+00 0.000E+00 1.469E-05 7.419E+00 3.461E-01  0.0059 0.28290
  5.000E+00 3.289E+01 6.862E+00 1.575E-05 0.000E+00 0.000E+00 1.575E-05 6.862E+00 4.162E-01  0.0066 0.29720
  5.500E+00 3.453E+01 6.395E+00 1.676E-05 0.000E+00 0.000E+00 1.676E-05 6.395E+00 4.917E-01  0.0073 0.31066
  6.000E+00 3.611E+01 5.998E+00 1.772E-05 0.000E+00 0.000E+00 1.772E-05 5.998E+00 5.725E-01  0.0080 0.32339
  7.000E+00 3.909E+01 5.357E+00 1.954E-05 0.000E+00 0.000E+00 1.954E-05 5.357E+00 7.492E-01  0.0093 0.34700
  8.000E+00 4.189E+01 4.861E+00 2.124E-05 0.000E+00 0.000E+00 2.124E-05 4.861E+00 9.454E-01  0.0107 0.36854
  9.000E+00 4.453E+01 4.465E+00 2.284E-05 0.000E+00 0.000E+00 2.284E-05 4.465E+00 1.160E+00  0.0121 0.38836
  1.000E+01 4.704E+01 4.142E+00 2.436E-05 0.000E+00 0.000E+00 2.436E-05 4.142E+00 1.393E+00  0.0135 0.40675
  1.200E+01 5.177E+01 3.644E+00 2.718E-05 0.000E+00 0.000E+00 2.718E-05 3.644E+00 1.909E+00  0.0164 0.43998
  1.400E+01 5.616E+01 3.278E+00 2.979E-05 0.000E+00 0.000E+00 2.979E-05 3.278E+00 2.488E+00  0.0193 0.46937
  1.700E+01 6.230E+01 2.880E+00 3.340E-05 0.000E+00 0.000E+00 3.340E-05 2.880E+00 3.467E+00  0.0237 0.50792
  2.000E+01 6.802E+01 2.595E+00 3.674E-05 0.000E+00 0.000E+00 3.674E-05 2.595E+00 4.566E+00  0.0283 0.54129
  2.500E+01 7.686E+01 2.264E+00 4.191E-05 0.000E+00 0.000E+00 4.191E-05 2.264E+00 6.633E+00  0.0361 0.58827
  3.000E+01 8.509E+01 2.040E+00 4.675E-05 0.000E+00 0.000E+00 4.675E-05 2.040E+00 8.963E+00  0.0443 0.62720
  3.500E+01 9.285E+01 1.878E+00 5.139E-05 0.000E+00 0.000E+00 5.139E-05 1.878E+00 1.152E+01  0.0527 0.66011
  4.000E+01 1.003E+02 1.757E+00 5.590E-05 0.000E+00 0.000E+00 5.590E-05 1.757E+00 1.427E+01  0.0615 0.68834
  4.500E+01 1.074E+02 1.662E+00 6.033E-05 0.000E+00 0.000E+00 6.033E-05 1.662E+00 1.720E+01  0.0705 0.71286
  5.000E+01 1.143E+02 1.587E+00 6.472E-05 0.000E+00 0.000E+00 6.472E-05 1.587E+00 2.028E+01  0.0799 0.73434
  5.500E+01 1.210E+02 1.525E+00 6.910E-05 0.000E+00 0.000E+00 6.910E-05 1.526E+00 2.350E+01  0.0896 0.75332
  6.000E+01 1.276E+02 1.475E+00 7.347E-05 0.000E+00 0.000E+00 7.347E-05 1.475E+00 2.683E+01  0.0995 0.77019
  7.000E+01 1.403E+02 1.397E+00 8.226E-05 0.000E+00 0.000E+00 8.226E-05 1.397E+00 3.380E+01  0.1204 0.79887
  8.000E+01 1.527E+02 1.341E+00 9.116E-05 0.000E+00 0.000E+00 9.116E-05 1.341E+00 4.110E+01  0.1416 0.82227
  9.000E+01 1.647E+02 1.299E+00 1.002E-04 0.000E+00 0.000E+00 1.002E-04 1.299E+00 4.868E+01  0.1590 0.84166
  1.000E+02 1.764E+02 1.268E+00 1.095E-04 0.000E+00 0.000E+00 1.095E-04 1.268E+00 5.647E+01  0.1767 0.85794
  1.200E+02 1.994E+02 1.224E+00 1.285E-04 0.000E+00 0.000E+00 1.285E-04 1.224E+00 7.253E+01  0.2122 0.88361
  1.400E+02 2.218E+02 1.197E+00 1.483E-04 0.000E+00 0.000E+00 1.483E-04 1.197E+00 8.905E+01  0.2473 0.90278
  1.700E+02 2.546E+02 1.175E+00 1.795E-04 0.000E+00 0.000E+00 1.795E-04 1.175E+00 1.143E+02  0.2989 0.92363
  2.000E+02 2.868E+02 1.164E+00 2.124E-04 0.000E+00 0.000E+00 2.124E-04 1.165E+00 1.400E+02  0.3487 0.93835
  2.500E+02 3.396E+02 1.161E+00 2.709E-04 0.000E+00 0.000E+00 2.709E-04 1.161E+00 1.830E+02  0.4276 0.95485
  3.000E+02 3.917E+02 1.166E+00 3.336E-04 0.000E+00 0.000E+00 3.336E-04 1.166E+00 2.260E+02  0.5018 0.96548
  3.500E+02 4.432E+02 1.174E+00 4.000E-04 0.000E+00 0.000E+00 4.000E-04 1.175E+00 2.687E+02  0.5717 0.97274
  4.000E+02 4.945E+02 1.185E+00 4.700E-04 0.000E+00 0.000E+00 4.700E-04 1.185E+00 3.111E+02  0.6378 0.97793
  4.500E+02 5.455E+02 1.196E+00 5.432E-04 2.914E-05 0.000E+00 5.723E-04 1.196E+00 3.531E+02  0.7004 0.98176
  5.000E+02 5.964E+02 1.207E+00 6.194E-04 6.920E-05 0.000E+00 6.886E-04 1.208E+00 3.947E+02  0.7599 0.98467
  5.500E+02 6.471E+02 1.218E+00 6.984E-04 9.852E-05 0.000E+00 7.970E-04 1.219E+00 4.359E+02  0.8167 0.98693
  6.000E+02 6.977E+02 1.229E+00 7.801E-04 1.310E-04 0.000E+00 9.112E-04 1.230E+00 4.767E+02  0.8710 0.98873
  7.000E+02 7.987E+02 1.249E+00 9.508E-04 2.078E-04 0.000E+00 1.159E-03 1.250E+00 5.574E+02  0.9730 0.99136
  8.000E+02 8.995E+02 1.268E+00 1.130E-03 2.998E-04 0.000E+00 1.430E-03 1.269E+00 6.368E+02  1.0674 0.99317
  9.000E+02 1.000E+03 1.285E+00 1.318E-03 4.062E-04 0.000E+00 1.724E-03 1.287E+00 7.150E+02  1.1553 0.99447
  1.000E+03 1.101E+03 1.301E+00 1.513E-03 5.259E-04 0.000E+00 2.039E-03 1.303E+00 7.922E+02  1.2377 0.99542
  1.200E+03 1.301E+03 1.329E+00 1.924E-03 8.026E-04 2.245E-05 2.749E-03 1.332E+00 9.440E+02  1.3886 0.99672
  1.400E+03 1.502E+03 1.354E+00 2.358E-03 1.125E-03 6.088E-05 3.543E-03 1.358E+00 1.093E+03  1.5244 0.99753
  1.700E+03 1.803E+03 1.385E+00 3.047E-03 1.683E-03 1.289E-04 4.859E-03 1.390E+00 1.311E+03  1.7060 0.99829
  2.000E+03 2.103E+03 1.412E+00 3.777E-03 2.322E-03 2.080E-04 6.306E-03 1.418E+00 1.525E+03  1.8670 0.99874
  2.500E+03 2.604E+03 1.448E+00 5.067E-03 3.539E-03 3.588E-04 8.965E-03 1.457E+00 1.873E+03  2.1011 0.99918
  3.000E+03 3.104E+03 1.477E+00 6.437E-03 4.921E-03 5.148E-04 1.187E-02 1.489E+00 2.212E+03  2.3034 0.99942
  3.500E+03 3.604E+03 1.501E+00 7.875E-03 6.444E-03 6.783E-04 1.500E-02 1.516E+00 2.545E+03  2.4820 0.99957
  4.000E+03 4.104E+03 1.522E+00 9.370E-03 8.100E-03 8.516E-04 1.832E-02 1.540E+00 2.872E+03  2.6422 0.99967
  4.500E+03 4.604E+03 1.540E+00 1.092E-02 9.871E-03 1.031E-03 2.182E-02 1.562E+00 3.195E+03  2.7877 0.99974
  5.000E+03 5.105E+03 1.556E+00 1.251E-02 1.174E-02 1.202E-03 2.545E-02 1.582E+00 3.513E+03  2.9210 0.99979
  5.500E+03 5.605E+03 1.571E+00 1.414E-02 1.370E-02 1.385E-03 2.923E-02 1.600E+00 3.827E+03  3.0443 0.99982
  6.000E+03 6.105E+03 1.584E+00 1.581E-02 1.574E-02 1.556E-03 3.311E-02 1.617E+00 4.138E+03  3.1589 0.99985
  7.000E+03 7.105E+03 1.606E+00 1.926E-02 2.005E-02 1.916E-03 4.122E-02 1.647E+00 4.751E+03  3.3669 0.99989
  8.000E+03 8.105E+03 1.625E+00 2.282E-02 2.461E-02 2.271E-03 4.970E-02 1.675E+00 5.353E+03  3.5520 0.99992
  9.000E+03 9.105E+03 1.642E+00 2.649E-02 2.940E-02 2.603E-03 5.849E-02 1.700E+00 5.945E+03  3.7190 0.99993
  1.000E+04 1.011E+04 1.657E+00 3.025E-02 3.439E-02 2.946E-03 6.758E-02 1.724E+00 6.529E+03  3.8713 0.99995
  1.200E+04 1.211E+04 1.681E+00 3.802E-02 4.488E-02 3.636E-03 8.653E-02 1.768E+00 7.675E+03  4.1412 0.99996
  1.400E+04 1.411E+04 1.701E+00 4.606E-02 5.596E-02 4.324E-03 1.063E-01 1.808E+00 8.794E+03  4.3754 0.99997
  1.700E+04 1.711E+04 1.726E+00 5.856E-02 7.349E-02 5.338E-03 1.374E-01 1.863E+00 1.043E+04  4.6781 0.99998
  2.000E+04 2.011E+04 1.746E+00 7.149E-02 9.192E-02 6.329E-03 1.697E-01 1.916E+00 1.202E+04  4.9379 0.99999
  2.500E+04 2.511E+04 1.773E+00 9.382E-02 1.242E-01 7.947E-03 2.260E-01 1.999E+00 1.457E+04  5.3036 0.99999
  3.000E+04 3.011E+04 1.793E+00 1.169E-01 1.581E-01 9.528E-03 2.846E-01 2.078E+00 1.703E+04  5.6099 0.99999
  3.500E+04 3.511E+04 1.810E+00 1.407E-01 1.932E-01 1.112E-02 3.451E-01 2.155E+00 1.939E+04  5.8739 1.00000
  4.000E+04 4.011E+04 1.825E+00 1.651E-01 2.294E-01 1.269E-02 4.071E-01 2.232E+00 2.167E+04  6.1062 1.00000
  4.500E+04 4.511E+04 1.837E+00 1.899E-01 2.664E-01 1.423E-02 4.705E-01 2.308E+00 2.387E+04  6.3137 1.00000
  5.000E+04 5.011E+04 1.848E+00 2.151E-01 3.041E-01 1.578E-02 5.350E-01 2.383E+00 2.601E+04  6.5014 1.00000
  5.500E+04 5.511E+04 1.858E+00 2.406E-01 3.425E-01 1.733E-02 6.005E-01 2.458E+00 2.807E+04  6.6728 1.00000
  6.000E+04 6.011E+04 1.866E+00 2.665E-01 3.815E-01 1.886E-02 6.669E-01 2.533E+00 3.008E+04  6.8305 1.00000
  7.000E+04 7.011E+04 1.881E+00 3.192E-01 4.608E-01 2.189E-02 8.019E-01 2.683E+00 3.391E+04  7.1130 1.00000
  8.000E+04 8.011E+04 1.894E+00 3.728E-01 5.418E-01 2.493E-02 9.395E-01 2.834E+00 3.754E+04  7.3605 1.00000
  9.000E+04 9.011E+04 1.905E+00 4.273E-01 6.240E-01 2.796E-02 1.079E+00 2.984E+00 4.098E+04  7.5810 1.00000
  1.000E+05 1.001E+05 1.915E+00 4.825E-01 7.074E-01 3.093E-02 1.221E+00 3.136E+00 4.425E+04  7.7799 1.00000
  1.200E+05 1.201E+05 1.931E+00 5.947E-01 8.770E-01 3.697E-02 1.509E+00 3.440E+00 5.035E+04  8.1274 1.00000
  1.400E+05 1.401E+05 1.945E+00 7.090E-01 1.049E+00 4.300E-02 1.801E+00 3.746E+00 5.592E+04  8.4243 1.00000
  1.700E+05 1.701E+05 1.962E+00 8.835E-01 1.312E+00 5.203E-02 2.248E+00 4.210E+00 6.349E+04  8.8020 1.00000
  2.000E+05 2.001E+05 1.976E+00 1.061E+00 1.579E+00 6.111E-02 2.701E+00 4.677E+00 7.026E+04  9.1209 1.00000
  2.500E+05 2.501E+05 1.995E+00 1.362E+00 2.030E+00 7.624E-02 3.468E+00 5.463E+00 8.018E+04  9.5622 1.00000
  3.000E+05 3.001E+05 2.010E+00 1.668E+00 2.487E+00 9.148E-02 4.246E+00 6.256E+00 8.876E+04  9.9252 1.00000
  3.500E+05 3.501E+05 2.023E+00 1.977E+00 2.948E+00 1.069E-01 5.032E+00 7.055E+00 9.630E+04 10.2332 1.00000
  4.000E+05 4.001E+05 2.034E+00 2.290E+00 3.412E+00 1.223E-01 5.825E+00 7.858E+00 1.030E+05 10.5001 1.00000
  4.500E+05 4.501E+05 2.043E+00 2.605E+00 3.880E+00 1.379E-01 6.623E+00 8.666E+00 1.091E+05 10.7357 1.00000
  5.000E+05 5.001E+05 2.052E+00 2.923E+00 4.349E+00 1.535E-01 7.425E+00 9.478E+00 1.146E+05 10.9463 1.00000
  5.500E+05 5.501E+05 2.060E+00 3.242E+00 4.820E+00 1.691E-01 8.232E+00 1.029E+01 1.197E+05 11.1369 1.00000
  6.000E+05 6.001E+05 2.068E+00 3.563E+00 5.293E+00 1.847E-01 9.041E+00 1.111E+01 1.244E+05 11.3109 1.00000
  7.000E+05 7.001E+05 2.080E+00 4.210E+00 6.243E+00 2.162E-01 1.067E+01 1.275E+01 1.328E+05 11.6192 1.00000
  8.000E+05 8.001E+05 2.092E+00 4.861E+00 7.196E+00 2.480E-01 1.231E+01 1.440E+01 1.402E+05 11.8862 1.00000
  9.000E+05 9.001E+05 2.102E+00 5.516E+00 8.153E+00 2.801E-01 1.395E+01 1.605E+01 1.468E+05 12.1217 1.00000
  1.000E+06 1.000E+06 2.111E+00 6.174E+00 9.113E+00 3.125E-01 1.560E+01 1.771E+01 1.527E+05 12.3324 1.00000
  1.200E+06 1.200E+06 2.126E+00 7.497E+00 1.104E+01 3.780E-01 1.891E+01 2.104E+01 1.631E+05 12.6970 1.00000
  1.400E+06 1.400E+06 2.139E+00 8.829E+00 1.297E+01 4.444E-01 2.225E+01 2.439E+01 1.720E+05 13.0053 1.00000
  1.700E+06 1.700E+06 2.156E+00 1.084E+01 1.588E+01 5.456E-01 2.726E+01 2.942E+01 1.832E+05 13.3936 1.00000
  2.000E+06 2.000E+06 2.170E+00 1.286E+01 1.880E+01 6.485E-01 3.230E+01 3.447E+01 1.927E+05 13.7186 1.00000
  2.500E+06 2.500E+06 2.190E+00 1.624E+01 2.367E+01 8.229E-01 4.074E+01 4.293E+01 2.057E+05 14.1649 1.00000
  3.000E+06 3.000E+06 2.206E+00 1.964E+01 2.855E+01 1.001E+00 4.920E+01 5.140E+01 2.164E+05 14.5295 1.00000
  3.500E+06 3.500E+06 2.219E+00 2.306E+01 3.345E+01 1.181E+00 5.768E+01 5.990E+01 2.255E+05 14.8378 1.00000
  4.000E+06 4.000E+06 2.231E+00 2.648E+01 3.835E+01 1.364E+00 6.619E+01 6.842E+01 2.333E+05 15.1048 1.00000
  4.500E+06 4.500E+06 2.242E+00 2.991E+01 4.325E+01 1.550E+00 7.471E+01 7.695E+01 2.402E+05 15.3404 1.00000
  5.000E+06 5.000E+06 2.251E+00 3.334E+01 4.816E+01 1.737E+00 8.323E+01 8.549E+01 2.464E+05 15.5511 1.00000
  5.500E+06 5.500E+06 2.260E+00 3.678E+01 5.307E+01 1.927E+00 9.177E+01 9.403E+01 2.519E+05 15.7417 1.00000
  6.000E+06 6.000E+06 2.268E+00 4.022E+01 5.798E+01 2.118E+00 1.003E+02 1.026E+02 2.570E+05 15.9158 1.00000
  7.000E+06 7.000E+06 2.282E+00 4.712E+01 6.781E+01 2.505E+00 1.174E+02 1.197E+02 2.661E+05 16.2240 1.00000
  8.000E+06 8.000E+06 2.294E+00 5.403E+01 7.765E+01 2.898E+00 1.346E+02 1.369E+02 2.739E+05 16.4911 1.00000
  9.000E+06 9.000E+06 2.305E+00 6.094E+01 8.750E+01 3.296E+00 1.517E+02 1.540E+02 2.808E+05 16.7267 1.00000
  1.000E+07 1.000E+07 2.315E+00 6.786E+01 9.735E+01 3.698E+00 1.689E+02 1.712E+02 2.870E+05 16.9374 1.00000
  1.200E+07 1.200E+07 2.332E+00 8.173E+01 1.171E+02 4.516E+00 2.033E+02 2.056E+02 2.977E+05 17.3020 1.00000
  1.400E+07 1.400E+07 2.347E+00 9.560E+01 1.368E+02 5.348E+00 2.377E+02 2.401E+02 3.067E+05 17.6103 1.00000
  1.700E+07 1.700E+07 2.365E+00 1.164E+02 1.664E+02 6.619E+00 2.894E+02 2.918E+02 3.181E+05 17.9986 1.00000
  2.000E+07 2.000E+07 2.381E+00 1.373E+02 1.960E+02 7.916E+00 3.412E+02 3.436E+02 3.276E+05 18.3237 1.00000
  2.500E+07 2.500E+07 2.402E+00 1.721E+02 2.453E+02 1.012E+01 4.275E+02 4.299E+02 3.407E+05 18.7700 1.00000
  3.000E+07 3.000E+07 2.420E+00 2.069E+02 2.947E+02 1.238E+01 5.140E+02 5.164E+02 3.514E+05 19.1346 1.00000
  3.500E+07 3.500E+07 2.435E+00 2.418E+02 3.441E+02 1.467E+01 6.005E+02 6.029E+02 3.603E+05 19.4429 1.00000
  4.000E+07 4.000E+07 2.448E+00 2.766E+02 3.935E+02 1.701E+01 6.871E+02 6.895E+02 3.681E+05 19.7100 1.00000
  4.500E+07 4.500E+07 2.460E+00 3.115E+02 4.428E+02 1.937E+01 7.737E+02 7.762E+02 3.750E+05 19.9455 1.00000
  5.000E+07 5.000E+07 2.471E+00 3.464E+02 4.922E+02 2.177E+01 8.604E+02 8.628E+02 3.811E+05 20.1562 1.00000
  5.500E+07 5.500E+07 2.480E+00 3.812E+02 5.416E+02 2.419E+01 9.471E+02 9.496E+02 3.866E+05 20.3469 1.00000
  6.000E+07 6.000E+07 2.489E+00 4.161E+02 5.910E+02 2.663E+01 1.034E+03 1.036E+03 3.917E+05 20.5209 1.00000
  7.000E+07 7.000E+07 2.505E+00 4.859E+02 6.899E+02 3.159E+01 1.207E+03 1.210E+03 4.006E+05 20.8292 1.00000
  8.000E+07 8.000E+07 2.518E+00 5.557E+02 7.887E+02 3.663E+01 1.381E+03 1.384E+03 4.084E+05 21.0963 1.00000
  9.000E+07 9.000E+07 2.530E+00 6.255E+02 8.875E+02 4.175E+01 1.555E+03 1.557E+03 4.152E+05 21.3318 1.00000
  1.000E+08 1.000E+08 2.541E+00 6.954E+02 9.863E+02 4.692E+01 1.729E+03 1.731E+03 4.213E+05 21.5425 1.00000
  1.200E+08 1.200E+08 2.560E+00 8.350E+02 1.184E+03 5.745E+01 2.076E+03 2.079E+03 4.319E+05 21.9072 1.00000
  1.400E+08 1.400E+08 2.577E+00 9.747E+02 1.382E+03 6.817E+01 2.425E+03 2.427E+03 4.408E+05 22.2155 1.00000
  1.700E+08 1.700E+08 2.597E+00 1.184E+03 1.678E+03 8.458E+01 2.947E+03 2.950E+03 4.521E+05 22.6038 1.00000
  2.000E+08 2.000E+08 2.614E+00 1.394E+03 1.975E+03 1.013E+02 3.470E+03 3.472E+03 4.615E+05 22.9288 1.00000
  2.500E+08 2.500E+08 2.638E+00 1.743E+03 2.469E+03 1.299E+02 4.342E+03 4.345E+03 4.744E+05 23.3751 1.00000
  3.000E+08 3.000E+08 2.658E+00 2.093E+03 2.963E+03 1.591E+02 5.215E+03 5.217E+03 4.850E+05 23.7398 1.00000
  3.500E+08 3.500E+08 2.675E+00 2.442E+03 3.457E+03 1.889E+02 6.088E+03 6.091E+03 4.939E+05 24.0481 1.00000
  4.000E+08 4.000E+08 2.690E+00 2.791E+03 3.951E+03 2.192E+02 6.962E+03 6.965E+03 5.016E+05 24.3151 1.00000
  4.500E+08 4.500E+08 2.703E+00 3.141E+03 4.446E+03 2.499E+02 7.836E+03 7.839E+03 5.083E+05 24.5507 1.00000
  5.000E+08 5.000E+08 2.715E+00 3.490E+03 4.940E+03 2.810E+02 8.711E+03 8.714E+03 5.144E+05 24.7614 1.00000
  5.500E+08 5.500E+08 2.726E+00 3.840E+03 5.434E+03 3.125E+02 9.586E+03 9.589E+03 5.199E+05 24.9520 1.00000
  6.000E+08 6.000E+08 2.735E+00 4.189E+03 5.928E+03 3.444E+02 1.046E+04 1.046E+04 5.249E+05 25.1261 1.00000
  7.000E+08 7.000E+08 2.753E+00 4.888E+03 6.917E+03 4.090E+02 1.221E+04 1.222E+04 5.337E+05 25.4344 1.00000
  8.000E+08 8.000E+08 2.768E+00 5.587E+03 7.905E+03 4.747E+02 1.397E+04 1.397E+04 5.414E+05 25.7014 1.00000
  9.000E+08 9.000E+08 2.782E+00 6.285E+03 8.893E+03 5.414E+02 1.572E+04 1.572E+04 5.482E+05 25.9370 1.00000
  1.000E+09 1.000E+09 2.794E+00 6.984E+03 9.881E+03 6.090E+02 1.747E+04 1.748E+04 5.542E+05 26.1477 1.00000
