 Incident particle is a Muon with M = 105.65839 MeV
 Index = 0: LutetiumAluminumOxide1
      Absorber with <Z/A> = 0.43209
 Sternheimer coef:  a     k=m_s   x_0    x_1    I[eV]   Cbar  delta0
                 0.1902  3.0000  0.2000  3.0000  423.2  5.0967 0.00

 *** Table generated with PUMAS v1.00 ***

      T         p     Ionization  brems     pair     photonuc  Radloss    dE/dx   CSDA Range  delta   beta
    [MeV]    [MeV/c]  -----------------------[MeV cm^2/g]------------------------  [g/cm^2]
  1.000E+00 1.457E+01 2.704E+01 3.802E-06 0.000E+00 0.000E+00 3.802E-06 2.704E+01 1.849E-02  0.0000 0.13661
  1.200E+00 1.597E+01 2.366E+01 4.366E-06 0.000E+00 0.000E+00 4.366E-06 2.366E+01 2.641E-02  0.0000 0.14944
  1.400E+00 1.726E+01 2.111E+01 4.901E-06 0.000E+00 0.000E+00 4.901E-06 2.111E+01 3.538E-02  0.0000 0.16119
  1.700E+00 1.903E+01 1.826E+01 5.657E-06 0.000E+00 0.000E+00 5.657E-06 1.826E+01 5.069E-02  0.0000 0.17725
  2.000E+00 2.066E+01 1.616E+01 6.368E-06 0.000E+00 0.000E+00 6.368E-06 1.616E+01 6.819E-02  0.0000 0.19186
  2.500E+00 2.312E+01 1.365E+01 7.470E-06 0.000E+00 0.000E+00 7.470E-06 1.365E+01 1.020E-01  0.0000 0.21376
  3.000E+00 2.536E+01 1.188E+01 8.489E-06 0.000E+00 0.000E+00 8.489E-06 1.188E+01 1.413E-01  0.0000 0.23336
  3.500E+00 2.742E+01 1.056E+01 9.441E-06 0.000E+00 0.000E+00 9.441E-06 1.056E+01 1.860E-01  0.0000 0.25120
  4.000E+00 2.935E+01 9.542E+00 1.034E-05 0.000E+00 0.000E+00 1.034E-05 9.542E+00 2.359E-01  0.0000 0.26763
  4.500E+00 3.116E+01 8.725E+00 1.119E-05 0.000E+00 0.000E+00 1.119E-05 8.725E+00 2.908E-01  0.0000 0.28290
  5.000E+00 3.289E+01 8.055E+00 1.199E-05 0.000E+00 0.000E+00 1.199E-05 8.055E+00 3.505E-01  0.0000 0.29720
  5.500E+00 3.453E+01 7.495E+00 1.276E-05 0.000E+00 0.000E+00 1.276E-05 7.495E+00 4.149E-01  0.0000 0.31066
  6.000E+00 3.611E+01 7.019E+00 1.350E-05 0.000E+00 0.000E+00 1.350E-05 7.019E+00 4.838E-01  0.0000 0.32339
  7.000E+00 3.909E+01 6.254E+00 1.490E-05 0.000E+00 0.000E+00 1.490E-05 6.254E+00 6.350E-01  0.0000 0.34700
  8.000E+00 4.189E+01 5.664E+00 1.620E-05 0.000E+00 0.000E+00 1.620E-05 5.664E+00 8.032E-01  0.0000 0.36854
  9.000E+00 4.453E+01 5.195E+00 1.743E-05 0.000E+00 0.000E+00 1.743E-05 5.195E+00 9.878E-01  0.0000 0.38836
  1.000E+01 4.704E+01 4.812E+00 1.859E-05 0.000E+00 0.000E+00 1.859E-05 4.812E+00 1.188E+00  0.0000 0.40675
  1.200E+01 5.177E+01 4.225E+00 2.076E-05 0.000E+00 0.000E+00 2.076E-05 4.225E+00 1.632E+00  0.0000 0.43998
  1.400E+01 5.616E+01 3.794E+00 2.276E-05 0.000E+00 0.000E+00 2.276E-05 3.794E+00 2.133E+00  0.0000 0.46937
  1.700E+01 6.230E+01 3.327E+00 2.553E-05 0.000E+00 0.000E+00 2.553E-05 3.327E+00 2.979E+00  0.0000 0.50792
  2.000E+01 6.802E+01 2.993E+00 2.811E-05 0.000E+00 0.000E+00 2.811E-05 2.993E+00 3.931E+00  0.0000 0.54129
  2.500E+01 7.686E+01 2.608E+00 3.208E-05 0.000E+00 0.000E+00 3.208E-05 2.608E+00 5.725E+00  0.0000 0.58827
  3.000E+01 8.509E+01 2.346E+00 3.581E-05 0.000E+00 0.000E+00 3.581E-05 2.347E+00 7.749E+00  0.0000 0.62720
  3.500E+01 9.285E+01 2.159E+00 3.938E-05 0.000E+00 0.000E+00 3.938E-05 2.159E+00 9.972E+00  0.0000 0.66011
  4.000E+01 1.003E+02 2.017E+00 4.285E-05 0.000E+00 0.000E+00 4.285E-05 2.018E+00 1.237E+01  0.0000 0.68834
  4.500E+01 1.074E+02 1.908E+00 4.626E-05 0.000E+00 0.000E+00 4.626E-05 1.908E+00 1.492E+01  0.0000 0.71286
  5.000E+01 1.143E+02 1.821E+00 4.963E-05 0.000E+00 0.000E+00 4.963E-05 1.821E+00 1.760E+01  0.0000 0.73434
  5.500E+01 1.210E+02 1.750E+00 5.299E-05 0.000E+00 0.000E+00 5.299E-05 1.751E+00 2.040E+01  0.0000 0.75332
  6.000E+01 1.276E+02 1.692E+00 5.635E-05 0.000E+00 0.000E+00 5.635E-05 1.693E+00 2.331E+01  0.0000 0.77019
  7.000E+01 1.403E+02 1.603E+00 6.310E-05 0.000E+00 0.000E+00 6.310E-05 1.603E+00 2.938E+01  0.0000 0.79887
  8.000E+01 1.527E+02 1.539E+00 6.994E-05 0.000E+00 0.000E+00 6.994E-05 1.539E+00 3.575E+01  0.0000 0.82227
  9.000E+01 1.647E+02 1.491E+00 7.688E-05 0.000E+00 0.000E+00 7.688E-05 1.491E+00 4.235E+01  0.0000 0.84166
  1.000E+02 1.764E+02 1.455E+00 8.397E-05 0.000E+00 0.000E+00 8.397E-05 1.455E+00 4.914E+01  0.0034 0.85794
  1.200E+02 1.994E+02 1.404E+00 9.855E-05 0.000E+00 0.000E+00 9.855E-05 1.404E+00 6.314E+01  0.0187 0.88361
  1.400E+02 2.218E+02 1.372E+00 1.137E-04 0.000E+00 0.000E+00 1.137E-04 1.372E+00 7.755E+01  0.0391 0.90278
  1.700E+02 2.546E+02 1.345E+00 1.376E-04 9.707E-15 0.000E+00 1.376E-04 1.345E+00 9.963E+01  0.0753 0.92363
  2.000E+02 2.868E+02 1.332E+00 1.629E-04 2.171E-12 0.000E+00 1.629E-04 1.332E+00 1.220E+02  0.1152 0.93835
  2.500E+02 3.396E+02 1.326E+00 2.076E-04 3.212E-08 0.000E+00 2.076E-04 1.326E+00 1.597E+02  0.1852 0.95485
  3.000E+02 3.917E+02 1.329E+00 2.555E-04 2.945E-07 0.000E+00 2.558E-04 1.329E+00 1.973E+02  0.2562 0.96548
  3.500E+02 4.432E+02 1.337E+00 3.063E-04 8.168E-07 0.000E+00 3.071E-04 1.337E+00 2.348E+02  0.3264 0.97274
  4.000E+02 4.945E+02 1.347E+00 3.598E-04 1.588E-06 0.000E+00 3.614E-04 1.347E+00 2.721E+02  0.3951 0.97793
  4.500E+02 5.455E+02 1.358E+00 4.157E-04 2.300E-05 0.000E+00 4.387E-04 1.358E+00 3.090E+02  0.4618 0.98176
  5.000E+02 5.964E+02 1.369E+00 4.739E-04 5.228E-05 0.000E+00 5.262E-04 1.369E+00 3.457E+02  0.5264 0.98467
  5.500E+02 6.471E+02 1.380E+00 5.343E-04 7.427E-05 0.000E+00 6.086E-04 1.380E+00 3.821E+02  0.5890 0.98693
  6.000E+02 6.977E+02 1.390E+00 5.966E-04 9.870E-05 0.000E+00 6.953E-04 1.391E+00 4.181E+02  0.6496 0.98873
  7.000E+02 7.987E+02 1.411E+00 7.269E-04 1.564E-04 0.000E+00 8.833E-04 1.412E+00 4.895E+02  0.7650 0.99136
  8.000E+02 8.995E+02 1.430E+00 8.640E-04 2.256E-04 0.000E+00 1.090E-03 1.431E+00 5.599E+02  0.8733 0.99317
  9.000E+02 1.000E+03 1.447E+00 1.007E-03 3.055E-04 0.000E+00 1.313E-03 1.448E+00 6.293E+02  0.9753 0.99447
  1.000E+03 1.101E+03 1.463E+00 1.156E-03 3.955E-04 0.000E+00 1.551E-03 1.464E+00 6.980E+02  1.0716 0.99542
  1.200E+03 1.301E+03 1.491E+00 1.469E-03 6.034E-04 2.248E-05 2.095E-03 1.493E+00 8.333E+02  1.2495 0.99672
  1.400E+03 1.502E+03 1.515E+00 1.799E-03 8.454E-04 6.111E-05 2.706E-03 1.518E+00 9.661E+02  1.4108 0.99753
  1.700E+03 1.803E+03 1.546E+00 2.325E-03 1.265E-03 1.298E-04 3.719E-03 1.550E+00 1.162E+03  1.6280 0.99829
  2.000E+03 2.103E+03 1.572E+00 2.880E-03 1.745E-03 2.100E-04 4.835E-03 1.577E+00 1.354E+03  1.8213 0.99874
  2.500E+03 2.604E+03 1.607E+00 3.863E-03 2.659E-03 3.636E-04 6.886E-03 1.614E+00 1.667E+03  2.1034 0.99918
  3.000E+03 3.104E+03 1.635E+00 4.906E-03 3.698E-03 5.232E-04 9.126E-03 1.644E+00 1.974E+03  2.3476 0.99942
  3.500E+03 3.604E+03 1.659E+00 5.999E-03 4.842E-03 6.911E-04 1.153E-02 1.670E+00 2.276E+03  2.5632 0.99957
  4.000E+03 4.104E+03 1.679E+00 7.137E-03 6.090E-03 8.695E-04 1.410E-02 1.693E+00 2.573E+03  2.7564 0.99967
  4.500E+03 4.604E+03 1.696E+00 8.313E-03 7.426E-03 1.054E-03 1.679E-02 1.713E+00 2.867E+03  2.9316 0.99974
  5.000E+03 5.105E+03 1.712E+00 9.524E-03 8.837E-03 1.231E-03 1.959E-02 1.731E+00 3.157E+03  3.0921 0.99979
  5.500E+03 5.605E+03 1.725E+00 1.077E-02 1.032E-02 1.421E-03 2.250E-02 1.748E+00 3.445E+03  3.2401 0.99982
  6.000E+03 6.105E+03 1.737E+00 1.204E-02 1.186E-02 1.598E-03 2.549E-02 1.763E+00 3.729E+03  3.3776 0.99985
  7.000E+03 7.105E+03 1.759E+00 1.466E-02 1.511E-02 1.971E-03 3.173E-02 1.791E+00 4.292E+03  3.6264 0.99989
  8.000E+03 8.105E+03 1.777E+00 1.737E-02 1.855E-02 2.341E-03 3.826E-02 1.815E+00 4.847E+03  3.8471 0.99992
  9.000E+03 9.105E+03 1.792E+00 2.016E-02 2.217E-02 2.687E-03 4.501E-02 1.837E+00 5.395E+03  4.0456 0.99993
  1.000E+04 1.011E+04 1.806E+00 2.302E-02 2.593E-02 3.044E-03 5.200E-02 1.858E+00 5.936E+03  4.2259 0.99995
  1.200E+04 1.211E+04 1.829E+00 2.892E-02 3.386E-02 3.766E-03 6.655E-02 1.896E+00 7.002E+03  4.5441 0.99996
  1.400E+04 1.411E+04 1.848E+00 3.504E-02 4.224E-02 4.486E-03 8.177E-02 1.930E+00 8.047E+03  4.8187 0.99997
  1.700E+04 1.711E+04 1.871E+00 4.454E-02 5.550E-02 5.551E-03 1.056E-01 1.976E+00 9.584E+03  5.1712 0.99998
  2.000E+04 2.011E+04 1.889E+00 5.437E-02 6.944E-02 6.592E-03 1.304E-01 2.020E+00 1.109E+04  5.4715 0.99999
  2.500E+04 2.511E+04 1.914E+00 7.136E-02 9.388E-02 8.297E-03 1.735E-01 2.088E+00 1.352E+04  5.8908 0.99999
  3.000E+04 3.011E+04 1.934E+00 8.895E-02 1.195E-01 9.966E-03 2.184E-01 2.152E+00 1.588E+04  6.2386 0.99999
  3.500E+04 3.511E+04 1.949E+00 1.070E-01 1.461E-01 1.165E-02 2.648E-01 2.214E+00 1.817E+04  6.5359 1.00000
  4.000E+04 4.011E+04 1.963E+00 1.255E-01 1.735E-01 1.331E-02 3.124E-01 2.275E+00 2.040E+04  6.7956 1.00000
  4.500E+04 4.511E+04 1.975E+00 1.444E-01 2.016E-01 1.495E-02 3.609E-01 2.335E+00 2.257E+04  7.0260 1.00000
  5.000E+04 5.011E+04 1.985E+00 1.636E-01 2.302E-01 1.658E-02 4.104E-01 2.395E+00 2.468E+04  7.2331 1.00000
  5.500E+04 5.511E+04 1.994E+00 1.831E-01 2.593E-01 1.823E-02 4.606E-01 2.455E+00 2.674E+04  7.4212 1.00000
  6.000E+04 6.011E+04 2.002E+00 2.028E-01 2.888E-01 1.985E-02 5.115E-01 2.514E+00 2.876E+04  7.5934 1.00000
  7.000E+04 7.011E+04 2.017E+00 2.428E-01 3.490E-01 2.308E-02 6.149E-01 2.632E+00 3.265E+04  7.8995 1.00000
  8.000E+04 8.011E+04 2.029E+00 2.837E-01 4.105E-01 2.631E-02 7.204E-01 2.749E+00 3.636E+04  8.1654 1.00000
  9.000E+04 9.011E+04 2.040E+00 3.251E-01 4.729E-01 2.954E-02 8.276E-01 2.867E+00 3.993E+04  8.4004 1.00000
  1.000E+05 1.001E+05 2.049E+00 3.671E-01 5.362E-01 3.270E-02 9.361E-01 2.985E+00 4.335E+04  8.6108 1.00000
  1.200E+05 1.201E+05 2.066E+00 4.526E-01 6.650E-01 3.914E-02 1.157E+00 3.223E+00 4.980E+04  8.9751 1.00000
  1.400E+05 1.401E+05 2.080E+00 5.396E-01 7.961E-01 4.557E-02 1.381E+00 3.461E+00 5.579E+04  9.2832 1.00000
  1.700E+05 1.701E+05 2.097E+00 6.725E-01 9.959E-01 5.522E-02 1.724E+00 3.821E+00 6.405E+04  9.6712 1.00000
  2.000E+05 2.001E+05 2.111E+00 8.077E-01 1.199E+00 6.491E-02 2.071E+00 4.183E+00 7.156E+04  9.9961 1.00000
  2.500E+05 2.501E+05 2.131E+00 1.037E+00 1.542E+00 8.110E-02 2.660E+00 4.791E+00 8.276E+04 10.4422 1.00000
  3.000E+05 3.001E+05 2.147E+00 1.270E+00 1.890E+00 9.740E-02 3.257E+00 5.404E+00 9.260E+04 10.8067 1.00000
  3.500E+05 3.501E+05 2.161E+00 1.506E+00 2.241E+00 1.139E-01 3.861E+00 6.021E+00 1.014E+05 11.1149 1.00000
  4.000E+05 4.001E+05 2.173E+00 1.745E+00 2.594E+00 1.304E-01 4.469E+00 6.642E+00 1.093E+05 11.3818 1.00000
  4.500E+05 4.501E+05 2.183E+00 1.985E+00 2.950E+00 1.471E-01 5.082E+00 7.265E+00 1.165E+05 11.6174 1.00000
  5.000E+05 5.001E+05 2.192E+00 2.227E+00 3.308E+00 1.639E-01 5.699E+00 7.891E+00 1.231E+05 11.8280 1.00000
  5.500E+05 5.501E+05 2.201E+00 2.471E+00 3.667E+00 1.805E-01 6.318E+00 8.519E+00 1.292E+05 12.0186 1.00000
  6.000E+05 6.001E+05 2.209E+00 2.716E+00 4.027E+00 1.972E-01 6.940E+00 9.149E+00 1.349E+05 12.1926 1.00000
  7.000E+05 7.001E+05 2.222E+00 3.209E+00 4.750E+00 2.310E-01 8.191E+00 1.041E+01 1.451E+05 12.5009 1.00000
  8.000E+05 8.001E+05 2.234E+00 3.706E+00 5.477E+00 2.651E-01 9.448E+00 1.168E+01 1.542E+05 12.7679 1.00000
  9.000E+05 9.001E+05 2.245E+00 4.206E+00 6.207E+00 2.996E-01 1.071E+01 1.296E+01 1.624E+05 13.0034 1.00000
  1.000E+06 1.000E+06 2.255E+00 4.708E+00 6.939E+00 3.343E-01 1.198E+01 1.424E+01 1.697E+05 13.2141 1.00000
  1.200E+06 1.200E+06 2.271E+00 5.718E+00 8.407E+00 4.046E-01 1.453E+01 1.680E+01 1.827E+05 13.5787 1.00000
  1.400E+06 1.400E+06 2.285E+00 6.735E+00 9.881E+00 4.759E-01 1.709E+01 1.938E+01 1.938E+05 13.8870 1.00000
  1.700E+06 1.700E+06 2.303E+00 8.270E+00 1.210E+01 5.845E-01 2.095E+01 2.326E+01 2.080E+05 14.2753 1.00000
  2.000E+06 2.000E+06 2.318E+00 9.813E+00 1.432E+01 6.948E-01 2.483E+01 2.715E+01 2.200E+05 14.6003 1.00000
  2.500E+06 2.500E+06 2.339E+00 1.240E+01 1.804E+01 8.821E-01 3.132E+01 3.366E+01 2.366E+05 15.0466 1.00000
  3.000E+06 3.000E+06 2.356E+00 1.500E+01 2.177E+01 1.073E+00 3.784E+01 4.019E+01 2.503E+05 15.4112 1.00000
  3.500E+06 3.500E+06 2.370E+00 1.760E+01 2.550E+01 1.267E+00 4.437E+01 4.674E+01 2.618E+05 15.7195 1.00000
  4.000E+06 4.000E+06 2.383E+00 2.022E+01 2.924E+01 1.463E+00 5.092E+01 5.330E+01 2.719E+05 15.9865 1.00000
  4.500E+06 4.500E+06 2.394E+00 2.284E+01 3.298E+01 1.663E+00 5.748E+01 5.988E+01 2.807E+05 16.2221 1.00000
  5.000E+06 5.000E+06 2.405E+00 2.546E+01 3.672E+01 1.864E+00 6.405E+01 6.646E+01 2.887E+05 16.4328 1.00000
  5.500E+06 5.500E+06 2.414E+00 2.809E+01 4.047E+01 2.067E+00 7.063E+01 7.305E+01 2.959E+05 16.6234 1.00000
  6.000E+06 6.000E+06 2.422E+00 3.073E+01 4.422E+01 2.272E+00 7.722E+01 7.964E+01 3.024E+05 16.7975 1.00000
  7.000E+06 7.000E+06 2.437E+00 3.600E+01 5.172E+01 2.688E+00 9.041E+01 9.285E+01 3.141E+05 17.1057 1.00000
  8.000E+06 8.000E+06 2.450E+00 4.128E+01 5.923E+01 3.110E+00 1.036E+02 1.061E+02 3.242E+05 17.3728 1.00000
  9.000E+06 9.000E+06 2.462E+00 4.657E+01 6.675E+01 3.537E+00 1.169E+02 1.193E+02 3.331E+05 17.6084 1.00000
  1.000E+07 1.000E+07 2.472E+00 5.186E+01 7.426E+01 3.970E+00 1.301E+02 1.326E+02 3.411E+05 17.8191 1.00000
  1.200E+07 1.200E+07 2.490E+00 6.246E+01 8.931E+01 4.848E+00 1.566E+02 1.591E+02 3.549E+05 18.1837 1.00000
  1.400E+07 1.400E+07 2.506E+00 7.308E+01 1.044E+02 5.741E+00 1.832E+02 1.857E+02 3.666E+05 18.4920 1.00000
  1.700E+07 1.700E+07 2.526E+00 8.902E+01 1.269E+02 7.107E+00 2.231E+02 2.256E+02 3.813E+05 18.8803 1.00000
  2.000E+07 2.000E+07 2.542E+00 1.050E+02 1.495E+02 8.499E+00 2.630E+02 2.655E+02 3.936E+05 19.2054 1.00000
  2.500E+07 2.500E+07 2.565E+00 1.316E+02 1.872E+02 1.087E+01 3.297E+02 3.322E+02 4.105E+05 19.6517 1.00000
  3.000E+07 3.000E+07 2.584E+00 1.582E+02 2.249E+02 1.329E+01 3.964E+02 3.990E+02 4.243E+05 20.0163 1.00000
  3.500E+07 3.500E+07 2.600E+00 1.849E+02 2.626E+02 1.576E+01 4.632E+02 4.658E+02 4.359E+05 20.3246 1.00000
  4.000E+07 4.000E+07 2.614E+00 2.116E+02 3.003E+02 1.826E+01 5.301E+02 5.327E+02 4.460E+05 20.5917 1.00000
  4.500E+07 4.500E+07 2.627E+00 2.382E+02 3.380E+02 2.080E+01 5.970E+02 5.996E+02 4.549E+05 20.8272 1.00000
  5.000E+07 5.000E+07 2.638E+00 2.649E+02 3.757E+02 2.338E+01 6.640E+02 6.666E+02 4.628E+05 21.0379 1.00000
  5.500E+07 5.500E+07 2.648E+00 2.916E+02 4.134E+02 2.598E+01 7.309E+02 7.336E+02 4.699E+05 21.2286 1.00000
  6.000E+07 6.000E+07 2.657E+00 3.183E+02 4.511E+02 2.860E+01 7.980E+02 8.006E+02 4.765E+05 21.4026 1.00000
  7.000E+07 7.000E+07 2.674E+00 3.717E+02 5.265E+02 3.393E+01 9.321E+02 9.348E+02 4.881E+05 21.7109 1.00000
  8.000E+07 8.000E+07 2.689E+00 4.251E+02 6.019E+02 3.934E+01 1.066E+03 1.069E+03 4.981E+05 21.9780 1.00000
  9.000E+07 9.000E+07 2.702E+00 4.785E+02 6.774E+02 4.483E+01 1.201E+03 1.203E+03 5.069E+05 22.2135 1.00000
  1.000E+08 1.000E+08 2.713E+00 5.319E+02 7.528E+02 5.039E+01 1.335E+03 1.338E+03 5.148E+05 22.4242 1.00000
  1.200E+08 1.200E+08 2.733E+00 6.388E+02 9.037E+02 6.170E+01 1.604E+03 1.607E+03 5.285E+05 22.7889 1.00000
  1.400E+08 1.400E+08 2.751E+00 7.457E+02 1.055E+03 7.322E+01 1.873E+03 1.876E+03 5.401E+05 23.0972 1.00000
  1.700E+08 1.700E+08 2.773E+00 9.060E+02 1.281E+03 9.085E+01 2.278E+03 2.281E+03 5.546E+05 23.4855 1.00000
  2.000E+08 2.000E+08 2.791E+00 1.066E+03 1.507E+03 1.088E+02 2.682E+03 2.685E+03 5.668E+05 23.8105 1.00000
  2.500E+08 2.500E+08 2.817E+00 1.334E+03 1.884E+03 1.395E+02 3.358E+03 3.360E+03 5.836E+05 24.2568 1.00000
  3.000E+08 3.000E+08 2.838E+00 1.601E+03 2.262E+03 1.709E+02 4.034E+03 4.036E+03 5.972E+05 24.6215 1.00000
  3.500E+08 3.500E+08 2.856E+00 1.868E+03 2.639E+03 2.029E+02 4.710E+03 4.713E+03 6.087E+05 24.9298 1.00000
  4.000E+08 4.000E+08 2.871E+00 2.136E+03 3.016E+03 2.354E+02 5.387E+03 5.390E+03 6.186E+05 25.1968 1.00000
  4.500E+08 4.500E+08 2.885E+00 2.403E+03 3.393E+03 2.684E+02 6.065E+03 6.068E+03 6.274E+05 25.4324 1.00000
  5.000E+08 5.000E+08 2.898E+00 2.670E+03 3.771E+03 3.019E+02 6.743E+03 6.746E+03 6.352E+05 25.6431 1.00000
  5.500E+08 5.500E+08 2.909E+00 2.938E+03 4.148E+03 3.357E+02 7.421E+03 7.424E+03 6.423E+05 25.8337 1.00000
  6.000E+08 6.000E+08 2.920E+00 3.205E+03 4.525E+03 3.699E+02 8.100E+03 8.103E+03 6.487E+05 26.0078 1.00000
  7.000E+08 7.000E+08 2.938E+00 3.740E+03 5.279E+03 4.393E+02 9.459E+03 9.462E+03 6.602E+05 26.3161 1.00000
  8.000E+08 8.000E+08 2.955E+00 4.275E+03 6.034E+03 5.099E+02 1.082E+04 1.082E+04 6.701E+05 26.5831 1.00000
  9.000E+08 9.000E+08 2.969E+00 4.809E+03 6.788E+03 5.815E+02 1.218E+04 1.218E+04 6.788E+05 26.8187 1.00000
  1.000E+09 1.000E+09 2.982E+00 5.344E+03 7.543E+03 6.541E+02 1.354E+04 1.354E+04 6.866E+05 27.0294 1.00000
