 Incident particle is a Muon with M = 105.65839 MeV
 Index = 0: M3Wax
      Absorber with <Z/A> = 0.55503
 Sternheimer coef:  a     k=m_s   x_0    x_1    I[eV]   Cbar  delta0
                 0.0786  3.6412  0.1523  2.7529   67.9  3.2540 0.00

 *** Table generated with PUMAS v1.00 ***

      T         p     Ionization  brems     pair     photonuc  Radloss    dE/dx   CSDA Range  delta   beta
    [MeV]    [MeV/c]  -----------------------[MeV cm^2/g]------------------------  [g/cm^2]
  1.000E+00 1.457E+01 5.144E+01 7.139E-07 0.000E+00 0.000E+00 7.139E-07 5.144E+01 9.719E-03  0.0000 0.13661
  1.200E+00 1.597E+01 4.436E+01 8.174E-07 0.000E+00 0.000E+00 8.174E-07 4.436E+01 1.392E-02  0.0000 0.14944
  1.400E+00 1.726E+01 3.912E+01 9.163E-07 0.000E+00 0.000E+00 9.163E-07 3.912E+01 1.873E-02  0.0000 0.16119
  1.700E+00 1.903E+01 3.339E+01 1.057E-06 0.000E+00 0.000E+00 1.057E-06 3.339E+01 2.705E-02  0.0000 0.17725
  2.000E+00 2.066E+01 2.923E+01 1.191E-06 0.000E+00 0.000E+00 1.191E-06 2.923E+01 3.668E-02  0.0000 0.19186
  2.500E+00 2.312E+01 2.436E+01 1.401E-06 0.000E+00 0.000E+00 1.401E-06 2.436E+01 5.550E-02  0.0000 0.21376
  3.000E+00 2.536E+01 2.099E+01 1.598E-06 0.000E+00 0.000E+00 1.598E-06 2.099E+01 7.767E-02  0.0000 0.23336
  3.500E+00 2.742E+01 1.851E+01 1.783E-06 0.000E+00 0.000E+00 1.783E-06 1.851E+01 1.031E-01  0.0000 0.25120
  4.000E+00 2.935E+01 1.661E+01 1.959E-06 0.000E+00 0.000E+00 1.959E-06 1.661E+01 1.316E-01  0.0000 0.26763
  4.500E+00 3.116E+01 1.510E+01 2.128E-06 0.000E+00 0.000E+00 2.128E-06 1.510E+01 1.632E-01  0.0000 0.28290
  5.000E+00 3.289E+01 1.388E+01 2.289E-06 0.000E+00 0.000E+00 2.289E-06 1.388E+01 1.978E-01  0.0000 0.29720
  5.500E+00 3.453E+01 1.286E+01 2.444E-06 0.000E+00 0.000E+00 2.444E-06 1.286E+01 2.353E-01  0.0000 0.31066
  6.000E+00 3.611E+01 1.200E+01 2.594E-06 0.000E+00 0.000E+00 2.594E-06 1.200E+01 2.756E-01  0.0000 0.32339
  7.000E+00 3.909E+01 1.062E+01 2.879E-06 0.000E+00 0.000E+00 2.879E-06 1.062E+01 3.643E-01  0.0000 0.34700
  8.000E+00 4.189E+01 9.572E+00 3.148E-06 0.000E+00 0.000E+00 3.148E-06 9.572E+00 4.636E-01  0.0000 0.36854
  9.000E+00 4.453E+01 8.741E+00 3.403E-06 0.000E+00 0.000E+00 3.403E-06 8.741E+00 5.730E-01  0.0000 0.38836
  1.000E+01 4.704E+01 8.066E+00 3.647E-06 0.000E+00 0.000E+00 3.647E-06 8.066E+00 6.922E-01  0.0000 0.40675
  1.200E+01 5.177E+01 7.038E+00 4.106E-06 0.000E+00 0.000E+00 4.106E-06 7.038E+00 9.583E-01  0.0000 0.43998
  1.400E+01 5.616E+01 6.289E+00 4.533E-06 0.000E+00 0.000E+00 4.533E-06 6.289E+00 1.259E+00  0.0000 0.46937
  1.700E+01 6.230E+01 5.483E+00 5.129E-06 0.000E+00 0.000E+00 5.129E-06 5.483E+00 1.771E+00  0.0000 0.50792
  2.000E+01 6.802E+01 4.909E+00 5.686E-06 0.000E+00 0.000E+00 5.686E-06 4.909E+00 2.351E+00  0.0000 0.54129
  2.500E+01 7.686E+01 4.251E+00 6.550E-06 0.000E+00 0.000E+00 6.550E-06 4.251E+00 3.448E+00  0.0000 0.58827
  3.000E+01 8.509E+01 3.807E+00 7.359E-06 0.000E+00 0.000E+00 7.359E-06 3.807E+00 4.693E+00  0.0000 0.62720
  3.500E+01 9.285E+01 3.488E+00 8.133E-06 0.000E+00 0.000E+00 8.133E-06 3.488E+00 6.066E+00  0.0000 0.66011
  4.000E+01 1.003E+02 3.250E+00 8.884E-06 0.000E+00 0.000E+00 8.884E-06 3.250E+00 7.552E+00  0.0000 0.68834
  4.500E+01 1.074E+02 3.065E+00 9.619E-06 0.000E+00 0.000E+00 9.619E-06 3.065E+00 9.137E+00  0.0000 0.71286
  5.000E+01 1.143E+02 2.917E+00 1.034E-05 0.000E+00 0.000E+00 1.034E-05 2.917E+00 1.081E+01  0.0000 0.73434
  5.500E+01 1.210E+02 2.798E+00 1.106E-05 0.000E+00 0.000E+00 1.106E-05 2.798E+00 1.256E+01  0.0000 0.75332
  6.000E+01 1.276E+02 2.700E+00 1.178E-05 0.000E+00 0.000E+00 1.178E-05 2.700E+00 1.438E+01  0.0000 0.77019
  7.000E+01 1.403E+02 2.548E+00 1.321E-05 0.000E+00 0.000E+00 1.321E-05 2.548E+00 1.819E+01  0.0000 0.79887
  8.000E+01 1.527E+02 2.437E+00 1.466E-05 0.000E+00 0.000E+00 1.466E-05 2.437E+00 2.221E+01  0.0067 0.82227
  9.000E+01 1.647E+02 2.350E+00 1.612E-05 0.000E+00 0.000E+00 1.612E-05 2.350E+00 2.639E+01  0.0435 0.84166
  1.000E+02 1.764E+02 2.283E+00 1.760E-05 0.000E+00 0.000E+00 1.760E-05 2.283E+00 3.070E+01  0.0804 0.85794
  1.200E+02 1.994E+02 2.188E+00 2.063E-05 0.000E+00 0.000E+00 2.063E-05 2.188E+00 3.965E+01  0.1533 0.88361
  1.400E+02 2.218E+02 2.126E+00 2.378E-05 0.000E+00 0.000E+00 2.378E-05 2.126E+00 4.893E+01  0.2245 0.90278
  1.700E+02 2.546E+02 2.068E+00 2.869E-05 3.202E-14 0.000E+00 2.869E-05 2.068E+00 6.324E+01  0.3271 0.92363
  2.000E+02 2.868E+02 2.035E+00 3.385E-05 9.313E-12 0.000E+00 3.385E-05 2.035E+00 7.786E+01  0.4247 0.93835
  2.500E+02 3.396E+02 2.008E+00 4.294E-05 7.625E-08 0.000E+00 4.302E-05 2.008E+00 1.026E+02  0.5769 0.95485
  3.000E+02 3.917E+02 2.000E+00 5.262E-05 6.831E-07 0.000E+00 5.330E-05 2.000E+00 1.275E+02  0.7173 0.96548
  3.500E+02 4.432E+02 2.000E+00 6.283E-05 1.881E-06 0.000E+00 6.471E-05 2.000E+00 1.525E+02  0.8476 0.97274
  4.000E+02 4.945E+02 2.005E+00 7.353E-05 3.644E-06 0.000E+00 7.717E-05 2.005E+00 1.775E+02  0.9691 0.97793
  4.500E+02 5.455E+02 2.013E+00 8.467E-05 5.949E-06 0.000E+00 9.062E-05 2.013E+00 2.024E+02  1.0831 0.98176
  5.000E+02 5.964E+02 2.022E+00 9.623E-05 8.779E-06 0.000E+00 1.050E-04 2.022E+00 2.272E+02  1.1903 0.98467
  5.500E+02 6.471E+02 2.031E+00 1.082E-04 1.211E-05 0.000E+00 1.203E-04 2.031E+00 2.519E+02  1.2916 0.98693
  6.000E+02 6.977E+02 2.041E+00 1.205E-04 1.594E-05 0.000E+00 1.364E-04 2.041E+00 2.764E+02  1.3876 0.98873
  7.000E+02 7.987E+02 2.060E+00 1.461E-04 2.499E-05 0.000E+00 1.711E-04 2.060E+00 3.252E+02  1.5660 0.99136
  8.000E+02 8.995E+02 2.079E+00 1.730E-04 3.580E-05 0.000E+00 2.088E-04 2.079E+00 3.735E+02  1.7288 0.99317
  9.000E+02 1.000E+03 2.096E+00 2.010E-04 4.827E-05 0.000E+00 2.492E-04 2.096E+00 4.214E+02  1.8786 0.99447
  1.000E+03 1.101E+03 2.112E+00 2.299E-04 6.229E-05 0.000E+00 2.922E-04 2.113E+00 4.689E+02  2.0175 0.99542
  1.200E+03 1.301E+03 2.142E+00 2.906E-04 9.463E-05 2.257E-05 4.078E-04 2.142E+00 5.629E+02  2.2682 0.99672
  1.400E+03 1.502E+03 2.167E+00 3.545E-04 1.322E-04 6.186E-05 5.486E-04 2.168E+00 6.558E+02  2.4899 0.99753
  1.700E+03 1.803E+03 2.200E+00 4.557E-04 1.973E-04 1.329E-04 7.859E-04 2.201E+00 7.931E+02  2.7813 0.99829
  2.000E+03 2.103E+03 2.228E+00 5.623E-04 2.718E-04 2.169E-04 1.051E-03 2.229E+00 9.285E+02  3.0349 0.99874
  2.500E+03 2.604E+03 2.266E+00 7.503E-04 4.137E-04 3.799E-04 1.544E-03 2.268E+00 1.151E+03  3.3964 0.99918
  3.000E+03 3.104E+03 2.297E+00 9.493E-04 5.749E-04 5.519E-04 2.076E-03 2.299E+00 1.370E+03  3.7022 0.99942
  3.500E+03 3.604E+03 2.323E+00 1.158E-03 7.527E-04 7.348E-04 2.645E-03 2.326E+00 1.586E+03  3.9674 0.99957
  4.000E+03 4.104E+03 2.345E+00 1.374E-03 9.605E-04 9.308E-04 3.265E-03 2.349E+00 1.800E+03  4.2016 0.99967
  4.500E+03 4.604E+03 2.365E+00 1.598E-03 1.188E-03 1.135E-03 3.921E-03 2.369E+00 2.012E+03  4.4114 0.99974
  5.000E+03 5.105E+03 2.382E+00 1.828E-03 1.430E-03 1.332E-03 4.590E-03 2.386E+00 2.222E+03  4.6015 0.99979
  5.500E+03 5.605E+03 2.397E+00 2.065E-03 1.683E-03 1.544E-03 5.292E-03 2.402E+00 2.431E+03  4.7753 0.99982
  6.000E+03 6.105E+03 2.411E+00 2.306E-03 1.949E-03 1.743E-03 5.997E-03 2.417E+00 2.639E+03  4.9353 0.99985
  7.000E+03 7.105E+03 2.435E+00 2.804E-03 2.510E-03 2.163E-03 7.478E-03 2.443E+00 3.050E+03  5.2219 0.99989
  8.000E+03 8.105E+03 2.456E+00 3.320E-03 3.109E-03 2.582E-03 9.011E-03 2.465E+00 3.458E+03  5.4730 0.99992
  9.000E+03 9.105E+03 2.474E+00 3.851E-03 3.740E-03 2.977E-03 1.057E-02 2.484E+00 3.862E+03  5.6965 0.99993
  1.000E+04 1.011E+04 2.489E+00 4.395E-03 4.400E-03 3.385E-03 1.218E-02 2.501E+00 4.263E+03  5.8978 0.99995
  1.200E+04 1.211E+04 2.516E+00 5.521E-03 5.796E-03 4.215E-03 1.553E-02 2.532E+00 5.058E+03  6.2491 0.99996
  1.400E+04 1.411E+04 2.538E+00 6.688E-03 7.279E-03 5.049E-03 1.902E-02 2.557E+00 5.844E+03  6.5486 0.99997
  1.700E+04 1.711E+04 2.565E+00 8.506E-03 9.640E-03 6.287E-03 2.443E-02 2.590E+00 7.010E+03  6.9284 0.99998
  2.000E+04 2.011E+04 2.588E+00 1.039E-02 1.214E-02 7.505E-03 3.003E-02 2.618E+00 8.162E+03  7.2482 0.99999
  2.500E+04 2.511E+04 2.617E+00 1.365E-02 1.655E-02 9.511E-03 3.971E-02 2.657E+00 1.006E+04  7.6895 0.99999
  3.000E+04 3.011E+04 2.641E+00 1.704E-02 2.121E-02 1.149E-02 4.974E-02 2.691E+00 1.193E+04  8.0515 0.99999
  3.500E+04 3.511E+04 2.661E+00 2.053E-02 2.608E-02 1.348E-02 6.010E-02 2.721E+00 1.378E+04  8.3582 1.00000
  4.000E+04 4.011E+04 2.677E+00 2.411E-02 3.112E-02 1.547E-02 7.070E-02 2.748E+00 1.560E+04  8.6242 1.00000
  4.500E+04 4.511E+04 2.692E+00 2.777E-02 3.631E-02 1.742E-02 8.150E-02 2.774E+00 1.742E+04  8.8591 1.00000
  5.000E+04 5.011E+04 2.705E+00 3.150E-02 4.162E-02 1.939E-02 9.250E-02 2.797E+00 1.921E+04  9.0694 1.00000
  5.500E+04 5.511E+04 2.716E+00 3.528E-02 4.704E-02 2.136E-02 1.037E-01 2.820E+00 2.099E+04  9.2596 1.00000
  6.000E+04 6.011E+04 2.727E+00 3.912E-02 5.257E-02 2.332E-02 1.150E-01 2.842E+00 2.276E+04  9.4333 1.00000
  7.000E+04 7.011E+04 2.745E+00 4.695E-02 6.388E-02 2.721E-02 1.380E-01 2.883E+00 2.625E+04  9.7411 1.00000
  8.000E+04 8.011E+04 2.761E+00 5.494E-02 7.548E-02 3.112E-02 1.615E-01 2.923E+00 2.970E+04 10.0078 1.00000
  9.000E+04 9.011E+04 2.775E+00 6.307E-02 8.733E-02 3.503E-02 1.854E-01 2.960E+00 3.309E+04 10.2431 1.00000
  1.000E+05 1.001E+05 2.787E+00 7.134E-02 9.940E-02 3.887E-02 2.096E-01 2.997E+00 3.645E+04 10.4535 1.00000
  1.200E+05 1.201E+05 2.808E+00 8.818E-02 1.241E-01 4.671E-02 2.590E-01 3.067E+00 4.305E+04 10.8178 1.00000
  1.400E+05 1.401E+05 2.826E+00 1.054E-01 1.493E-01 5.455E-02 3.093E-01 3.135E+00 4.950E+04 11.1259 1.00000
  1.700E+05 1.701E+05 2.848E+00 1.318E-01 1.880E-01 6.633E-02 3.861E-01 3.234E+00 5.892E+04 11.5139 1.00000
  2.000E+05 2.001E+05 2.867E+00 1.587E-01 2.276E-01 7.820E-02 4.645E-01 3.331E+00 6.806E+04 11.8388 1.00000
  2.500E+05 2.501E+05 2.892E+00 2.045E-01 2.949E-01 9.805E-02 5.974E-01 3.490E+00 8.273E+04 12.2849 1.00000
  3.000E+05 3.001E+05 2.913E+00 2.512E-01 3.634E-01 1.181E-01 7.327E-01 3.646E+00 9.675E+04 12.6494 1.00000
  3.500E+05 3.501E+05 2.930E+00 2.987E-01 4.330E-01 1.383E-01 8.701E-01 3.800E+00 1.102E+05 12.9576 1.00000
  4.000E+05 4.001E+05 2.946E+00 3.469E-01 5.033E-01 1.587E-01 1.009E+00 3.955E+00 1.231E+05 13.2245 1.00000
  4.500E+05 4.501E+05 2.959E+00 3.955E-01 5.742E-01 1.792E-01 1.149E+00 4.108E+00 1.355E+05 13.4601 1.00000
  5.000E+05 5.001E+05 2.971E+00 4.446E-01 6.457E-01 1.999E-01 1.290E+00 4.261E+00 1.474E+05 13.6707 1.00000
  5.500E+05 5.501E+05 2.982E+00 4.941E-01 7.176E-01 2.205E-01 1.432E+00 4.414E+00 1.590E+05 13.8613 1.00000
  6.000E+05 6.001E+05 2.992E+00 5.439E-01 7.899E-01 2.411E-01 1.575E+00 4.567E+00 1.701E+05 14.0353 1.00000
  7.000E+05 7.001E+05 3.010E+00 6.445E-01 9.355E-01 2.829E-01 1.863E+00 4.873E+00 1.913E+05 14.3436 1.00000
  8.000E+05 8.001E+05 3.025E+00 7.461E-01 1.082E+00 3.250E-01 2.153E+00 5.178E+00 2.112E+05 14.6106 1.00000
  9.000E+05 9.001E+05 3.039E+00 8.485E-01 1.230E+00 3.676E-01 2.446E+00 5.484E+00 2.300E+05 14.8461 1.00000
  1.000E+06 1.000E+06 3.051E+00 9.516E-01 1.378E+00 4.106E-01 2.740E+00 5.791E+00 2.478E+05 15.0568 1.00000
  1.200E+06 1.200E+06 3.072E+00 1.160E+00 1.676E+00 4.976E-01 3.333E+00 6.405E+00 2.806E+05 15.4214 1.00000
  1.400E+06 1.400E+06 3.090E+00 1.369E+00 1.976E+00 5.859E-01 3.931E+00 7.021E+00 3.105E+05 15.7297 1.00000
  1.700E+06 1.700E+06 3.113E+00 1.687E+00 2.428E+00 7.204E-01 4.835E+00 7.948E+00 3.507E+05 16.1180 1.00000
  2.000E+06 2.000E+06 3.132E+00 2.007E+00 2.882E+00 8.571E-01 5.746E+00 8.878E+00 3.865E+05 16.4430 1.00000
  2.500E+06 2.500E+06 3.159E+00 2.545E+00 3.642E+00 1.089E+00 7.276E+00 1.044E+01 4.386E+05 16.8893 1.00000
  3.000E+06 3.000E+06 3.181E+00 3.087E+00 4.406E+00 1.326E+00 8.819E+00 1.200E+01 4.834E+05 17.2539 1.00000
  3.500E+06 3.500E+06 3.200E+00 3.632E+00 5.172E+00 1.566E+00 1.037E+01 1.357E+01 5.227E+05 17.5622 1.00000
  4.000E+06 4.000E+06 3.216E+00 4.180E+00 5.939E+00 1.810E+00 1.193E+01 1.515E+01 5.576E+05 17.8292 1.00000
  4.500E+06 4.500E+06 3.230E+00 4.730E+00 6.708E+00 2.057E+00 1.349E+01 1.672E+01 5.891E+05 18.0648 1.00000
  5.000E+06 5.000E+06 3.243E+00 5.281E+00 7.478E+00 2.307E+00 1.507E+01 1.831E+01 6.177E+05 18.2755 1.00000
  5.500E+06 5.500E+06 3.255E+00 5.834E+00 8.249E+00 2.559E+00 1.664E+01 1.990E+01 6.439E+05 18.4661 1.00000
  6.000E+06 6.000E+06 3.266E+00 6.387E+00 9.020E+00 2.813E+00 1.822E+01 2.149E+01 6.681E+05 18.6402 1.00000
  7.000E+06 7.000E+06 3.285E+00 7.498E+00 1.056E+01 3.329E+00 2.139E+01 2.468E+01 7.116E+05 18.9484 1.00000
  8.000E+06 8.000E+06 3.302E+00 8.612E+00 1.211E+01 3.852E+00 2.458E+01 2.788E+01 7.498E+05 19.2155 1.00000
  9.000E+06 9.000E+06 3.317E+00 9.728E+00 1.366E+01 4.383E+00 2.777E+01 3.109E+01 7.838E+05 19.4511 1.00000
  1.000E+07 1.000E+07 3.330E+00 1.085E+01 1.521E+01 4.919E+00 3.098E+01 3.431E+01 8.145E+05 19.6618 1.00000
  1.200E+07 1.200E+07 3.354E+00 1.309E+01 1.831E+01 6.009E+00 3.741E+01 4.076E+01 8.682E+05 20.0264 1.00000
  1.400E+07 1.400E+07 3.374E+00 1.534E+01 2.142E+01 7.118E+00 4.387E+01 4.724E+01 9.139E+05 20.3347 1.00000
  1.700E+07 1.700E+07 3.399E+00 1.872E+01 2.608E+01 8.813E+00 5.360E+01 5.700E+01 9.719E+05 20.7230 1.00000
  2.000E+07 2.000E+07 3.420E+00 2.210E+01 3.074E+01 1.054E+01 6.338E+01 6.680E+01 1.021E+06 21.0481 1.00000
  2.500E+07 2.500E+07 3.450E+00 2.775E+01 3.852E+01 1.348E+01 7.975E+01 8.320E+01 1.088E+06 21.4944 1.00000
  3.000E+07 3.000E+07 3.474E+00 3.341E+01 4.630E+01 1.649E+01 9.620E+01 9.967E+01 1.143E+06 21.8590 1.00000
  3.500E+07 3.500E+07 3.495E+00 3.908E+01 5.408E+01 1.955E+01 1.127E+02 1.162E+02 1.190E+06 22.1673 1.00000
  4.000E+07 4.000E+07 3.513E+00 4.475E+01 6.187E+01 2.266E+01 1.293E+02 1.328E+02 1.230E+06 22.4344 1.00000
  4.500E+07 4.500E+07 3.529E+00 5.043E+01 6.966E+01 2.581E+01 1.459E+02 1.494E+02 1.266E+06 22.6699 1.00000
  5.000E+07 5.000E+07 3.543E+00 5.611E+01 7.745E+01 2.901E+01 1.626E+02 1.661E+02 1.298E+06 22.8806 1.00000
  5.500E+07 5.500E+07 3.556E+00 6.179E+01 8.524E+01 3.224E+01 1.793E+02 1.828E+02 1.326E+06 23.0713 1.00000
  6.000E+07 6.000E+07 3.568E+00 6.748E+01 9.303E+01 3.550E+01 1.960E+02 1.996E+02 1.352E+06 23.2453 1.00000
  7.000E+07 7.000E+07 3.590E+00 7.886E+01 1.086E+02 4.211E+01 2.296E+02 2.332E+02 1.399E+06 23.5536 1.00000
  8.000E+07 8.000E+07 3.609E+00 9.024E+01 1.242E+02 4.883E+01 2.633E+02 2.669E+02 1.439E+06 23.8207 1.00000
  9.000E+07 9.000E+07 3.625E+00 1.016E+02 1.398E+02 5.565E+01 2.971E+02 3.007E+02 1.475E+06 24.0562 1.00000
  1.000E+08 1.000E+08 3.640E+00 1.130E+02 1.554E+02 6.255E+01 3.309E+02 3.346E+02 1.506E+06 24.2669 1.00000
  1.200E+08 1.200E+08 3.666E+00 1.358E+02 1.866E+02 7.658E+01 3.989E+02 4.026E+02 1.561E+06 24.6316 1.00000
  1.400E+08 1.400E+08 3.688E+00 1.586E+02 2.178E+02 9.088E+01 4.672E+02 4.709E+02 1.607E+06 24.9399 1.00000
  1.700E+08 1.700E+08 3.716E+00 1.928E+02 2.645E+02 1.128E+02 5.701E+02 5.738E+02 1.665E+06 25.3282 1.00000
  2.000E+08 2.000E+08 3.740E+00 2.270E+02 3.113E+02 1.351E+02 6.734E+02 6.772E+02 1.713E+06 25.6532 1.00000
  2.500E+08 2.500E+08 3.773E+00 2.840E+02 3.893E+02 1.732E+02 8.465E+02 8.503E+02 1.780E+06 26.0995 1.00000
  3.000E+08 3.000E+08 3.800E+00 3.411E+02 4.673E+02 2.121E+02 1.021E+03 1.024E+03 1.833E+06 26.4642 1.00000
  3.500E+08 3.500E+08 3.823E+00 3.981E+02 5.453E+02 2.518E+02 1.195E+03 1.199E+03 1.879E+06 26.7725 1.00000
  4.000E+08 4.000E+08 3.843E+00 4.552E+02 6.233E+02 2.922E+02 1.371E+03 1.375E+03 1.918E+06 27.0395 1.00000
  4.500E+08 4.500E+08 3.861E+00 5.123E+02 7.013E+02 3.332E+02 1.547E+03 1.551E+03 1.952E+06 27.2751 1.00000
  5.000E+08 5.000E+08 3.877E+00 5.693E+02 7.793E+02 3.747E+02 1.723E+03 1.727E+03 1.983E+06 27.4858 1.00000
  5.500E+08 5.500E+08 3.892E+00 6.264E+02 8.572E+02 4.167E+02 1.900E+03 1.904E+03 2.010E+06 27.6764 1.00000
  6.000E+08 6.000E+08 3.905E+00 6.835E+02 9.352E+02 4.592E+02 2.078E+03 2.082E+03 2.035E+06 27.8505 1.00000
  7.000E+08 7.000E+08 3.929E+00 7.976E+02 1.091E+03 5.453E+02 2.434E+03 2.438E+03 2.080E+06 28.1588 1.00000
  8.000E+08 8.000E+08 3.950E+00 9.118E+02 1.247E+03 6.329E+02 2.792E+03 2.796E+03 2.118E+06 28.4258 1.00000
  9.000E+08 9.000E+08 3.969E+00 1.026E+03 1.403E+03 7.218E+02 3.151E+03 3.155E+03 2.152E+06 28.6614 1.00000
  1.000E+09 1.000E+09 3.985E+00 1.140E+03 1.559E+03 8.119E+02 3.511E+03 3.515E+03 2.182E+06 28.8721 1.00000
