 Incident particle is a Muon with M = 105.65839 MeV
 Index = 0: MagnesiumOxide
      Absorber with <Z/A> = 0.49622
 Sternheimer coef:  a     k=m_s   x_0    x_1    I[eV]   Cbar  delta0
                 0.0831  3.5968  0.0575  2.8580  143.8  3.6404 0.00

 *** Table generated with PUMAS v1.00 ***

      T         p     Ionization  brems     pair     photonuc  Radloss    dE/dx   CSDA Range  delta   beta
    [MeV]    [MeV/c]  -----------------------[MeV cm^2/g]------------------------  [g/cm^2]
  1.000E+00 1.457E+01 3.987E+01 1.064E-06 0.000E+00 0.000E+00 1.064E-06 3.987E+01 1.254E-02  0.0000 0.13661
  1.200E+00 1.597E+01 3.454E+01 1.222E-06 0.000E+00 0.000E+00 1.222E-06 3.454E+01 1.795E-02  0.0000 0.14944
  1.400E+00 1.726E+01 3.058E+01 1.372E-06 0.000E+00 0.000E+00 1.372E-06 3.058E+01 2.411E-02  0.0000 0.16119
  1.700E+00 1.903E+01 2.621E+01 1.587E-06 0.000E+00 0.000E+00 1.587E-06 2.621E+01 3.474E-02  0.0000 0.17725
  2.000E+00 2.066E+01 2.303E+01 1.790E-06 0.000E+00 0.000E+00 1.790E-06 2.303E+01 4.698E-02  0.0000 0.19186
  2.500E+00 2.312E+01 1.927E+01 2.108E-06 0.000E+00 0.000E+00 2.108E-06 1.927E+01 7.080E-02  0.0000 0.21376
  3.000E+00 2.536E+01 1.666E+01 2.404E-06 0.000E+00 0.000E+00 2.404E-06 1.666E+01 9.878E-02  0.0000 0.23336
  3.500E+00 2.742E+01 1.474E+01 2.684E-06 0.000E+00 0.000E+00 2.684E-06 1.474E+01 1.307E-01  0.0000 0.25120
  4.000E+00 2.935E+01 1.325E+01 2.949E-06 0.000E+00 0.000E+00 2.949E-06 1.325E+01 1.666E-01  0.0000 0.26763
  4.500E+00 3.116E+01 1.207E+01 3.202E-06 0.000E+00 0.000E+00 3.202E-06 1.207E+01 2.061E-01  0.0000 0.28290
  5.000E+00 3.289E+01 1.111E+01 3.444E-06 0.000E+00 0.000E+00 3.444E-06 1.111E+01 2.493E-01  0.0000 0.29720
  5.500E+00 3.453E+01 1.031E+01 3.677E-06 0.000E+00 0.000E+00 3.677E-06 1.031E+01 2.961E-01  0.0000 0.31066
  6.000E+00 3.611E+01 9.633E+00 3.901E-06 0.000E+00 0.000E+00 3.901E-06 9.633E+00 3.463E-01  0.0000 0.32339
  7.000E+00 3.909E+01 8.548E+00 4.327E-06 0.000E+00 0.000E+00 4.327E-06 8.548E+00 4.567E-01  0.0000 0.34700
  8.000E+00 4.189E+01 7.716E+00 4.729E-06 0.000E+00 0.000E+00 4.729E-06 7.716E+00 5.800E-01  0.0000 0.36854
  9.000E+00 4.453E+01 7.056E+00 5.109E-06 0.000E+00 0.000E+00 5.109E-06 7.056E+00 7.156E-01  0.0000 0.38836
  1.000E+01 4.704E+01 6.521E+00 5.471E-06 0.000E+00 0.000E+00 5.471E-06 6.521E+00 8.632E-01  0.0000 0.40675
  1.200E+01 5.177E+01 5.701E+00 6.152E-06 0.000E+00 0.000E+00 6.152E-06 5.701E+00 1.192E+00  0.0000 0.43998
  1.400E+01 5.616E+01 5.104E+00 6.785E-06 0.000E+00 0.000E+00 6.785E-06 5.104E+00 1.563E+00  0.0000 0.46937
  1.700E+01 6.230E+01 4.459E+00 7.667E-06 0.000E+00 0.000E+00 7.667E-06 4.459E+00 2.194E+00  0.0000 0.50792
  2.000E+01 6.802E+01 3.999E+00 8.489E-06 0.000E+00 0.000E+00 8.489E-06 3.999E+00 2.905E+00  0.0000 0.54129
  2.500E+01 7.686E+01 3.470E+00 9.763E-06 0.000E+00 0.000E+00 9.763E-06 3.470E+00 4.251E+00  0.0000 0.58827
  3.000E+01 8.509E+01 3.113E+00 1.096E-05 0.000E+00 0.000E+00 1.096E-05 3.113E+00 5.774E+00  0.0000 0.62720
  3.500E+01 9.285E+01 2.856E+00 1.210E-05 0.000E+00 0.000E+00 1.210E-05 2.856E+00 7.453E+00  0.0000 0.66011
  4.000E+01 1.003E+02 2.664E+00 1.320E-05 0.000E+00 0.000E+00 1.320E-05 2.664E+00 9.266E+00  0.0000 0.68834
  4.500E+01 1.074E+02 2.515E+00 1.429E-05 0.000E+00 0.000E+00 1.429E-05 2.515E+00 1.120E+01  0.0000 0.71286
  5.000E+01 1.143E+02 2.396E+00 1.536E-05 0.000E+00 0.000E+00 1.536E-05 2.396E+00 1.324E+01  0.0000 0.73434
  5.500E+01 1.210E+02 2.300E+00 1.642E-05 0.000E+00 0.000E+00 1.642E-05 2.300E+00 1.537E+01 -0.0006 0.75332
  6.000E+01 1.276E+02 2.220E+00 1.748E-05 0.000E+00 0.000E+00 1.748E-05 2.220E+00 1.758E+01  0.0068 0.77019
  7.000E+01 1.403E+02 2.096E+00 1.959E-05 0.000E+00 0.000E+00 1.959E-05 2.096E+00 2.222E+01  0.0254 0.79887
  8.000E+01 1.527E+02 2.005E+00 2.173E-05 0.000E+00 0.000E+00 2.173E-05 2.005E+00 2.710E+01  0.0473 0.82227
  9.000E+01 1.647E+02 1.937E+00 2.389E-05 0.000E+00 0.000E+00 2.389E-05 1.937E+00 3.217E+01  0.0714 0.84166
  1.000E+02 1.764E+02 1.884E+00 2.609E-05 0.000E+00 0.000E+00 2.609E-05 1.884E+00 3.741E+01  0.0969 0.85794
  1.200E+02 1.994E+02 1.810E+00 3.059E-05 0.000E+00 0.000E+00 3.059E-05 1.810E+00 4.824E+01  0.1500 0.88361
  1.400E+02 2.218E+02 1.762E+00 3.526E-05 0.000E+00 0.000E+00 3.526E-05 1.762E+00 5.944E+01  0.2043 0.90278
  1.700E+02 2.546E+02 1.719E+00 4.256E-05 2.006E-14 0.000E+00 4.256E-05 1.719E+00 7.668E+01  0.2856 0.92363
  2.000E+02 2.868E+02 1.695E+00 5.023E-05 1.416E-11 0.000E+00 5.023E-05 1.695E+00 9.425E+01  0.3654 0.93835
  2.500E+02 3.396E+02 1.677E+00 6.378E-05 1.142E-07 0.000E+00 6.389E-05 1.677E+00 1.239E+02  0.4931 0.95485
  3.000E+02 3.917E+02 1.674E+00 7.820E-05 1.049E-06 0.000E+00 7.925E-05 1.674E+00 1.538E+02  0.6137 0.96548
  3.500E+02 4.432E+02 1.677E+00 9.343E-05 2.911E-06 0.000E+00 9.634E-05 1.677E+00 1.836E+02  0.7273 0.97274
  4.000E+02 4.945E+02 1.684E+00 1.094E-04 5.663E-06 0.000E+00 1.151E-04 1.684E+00 2.134E+02  0.8346 0.97793
  4.500E+02 5.455E+02 1.692E+00 1.260E-04 9.268E-06 0.000E+00 1.353E-04 1.693E+00 2.430E+02  0.9361 0.98176
  5.000E+02 5.964E+02 1.702E+00 1.433E-04 1.370E-05 0.000E+00 1.570E-04 1.702E+00 2.724E+02  1.0323 0.98467
  5.500E+02 6.471E+02 1.712E+00 1.612E-04 1.893E-05 0.000E+00 1.801E-04 1.712E+00 3.017E+02  1.1239 0.98693
  6.000E+02 6.977E+02 1.721E+00 1.796E-04 2.492E-05 0.000E+00 2.045E-04 1.722E+00 3.308E+02  1.2110 0.98873
  7.000E+02 7.987E+02 1.740E+00 2.179E-04 3.911E-05 0.000E+00 2.570E-04 1.741E+00 3.886E+02  1.3740 0.99136
  8.000E+02 8.995E+02 1.758E+00 2.581E-04 5.608E-05 0.000E+00 3.142E-04 1.759E+00 4.458E+02  1.5239 0.99317
  9.000E+02 1.000E+03 1.775E+00 2.999E-04 7.565E-05 0.000E+00 3.756E-04 1.775E+00 5.024E+02  1.6626 0.99447
  1.000E+03 1.101E+03 1.791E+00 3.433E-04 9.767E-05 0.000E+00 4.410E-04 1.791E+00 5.585E+02  1.7917 0.99542
  1.200E+03 1.301E+03 1.818E+00 4.341E-04 1.485E-04 2.254E-05 6.051E-04 1.819E+00 6.693E+02  2.0262 0.99672
  1.400E+03 1.502E+03 1.842E+00 5.298E-04 2.075E-04 6.161E-05 7.989E-04 1.843E+00 7.785E+02  2.2348 0.99753
  1.700E+03 1.803E+03 1.873E+00 6.811E-04 3.098E-04 1.319E-04 1.123E-03 1.874E+00 9.399E+02  2.5106 0.99829
  2.000E+03 2.103E+03 1.899E+00 8.406E-04 4.267E-04 2.145E-04 1.482E-03 1.900E+00 1.099E+03  2.7519 0.99874
  2.500E+03 2.604E+03 1.934E+00 1.122E-03 6.497E-04 3.743E-04 2.146E-03 1.937E+00 1.360E+03  3.0977 0.99918
  3.000E+03 3.104E+03 1.963E+00 1.419E-03 9.029E-04 5.420E-04 2.864E-03 1.966E+00 1.616E+03  3.3916 0.99942
  3.500E+03 3.604E+03 1.987E+00 1.730E-03 1.182E-03 7.196E-04 3.632E-03 1.991E+00 1.869E+03  3.6476 0.99957
  4.000E+03 4.104E+03 2.007E+00 2.053E-03 1.498E-03 9.094E-04 4.461E-03 2.012E+00 2.118E+03  3.8743 0.99967
  4.500E+03 4.604E+03 2.025E+00 2.387E-03 1.840E-03 1.107E-03 5.334E-03 2.030E+00 2.366E+03  4.0780 0.99974
  5.000E+03 5.105E+03 2.041E+00 2.730E-03 2.202E-03 1.296E-03 6.229E-03 2.047E+00 2.611E+03  4.2629 0.99979
  5.500E+03 5.605E+03 2.055E+00 3.082E-03 2.583E-03 1.501E-03 7.166E-03 2.062E+00 2.854E+03  4.4322 0.99982
  6.000E+03 6.105E+03 2.068E+00 3.441E-03 2.980E-03 1.692E-03 8.113E-03 2.076E+00 3.096E+03  4.5885 0.99985
  7.000E+03 7.105E+03 2.090E+00 4.182E-03 3.819E-03 2.095E-03 1.010E-02 2.100E+00 3.575E+03  4.8688 0.99989
  8.000E+03 8.105E+03 2.108E+00 4.947E-03 4.712E-03 2.497E-03 1.216E-02 2.121E+00 4.049E+03  5.1150 0.99992
  9.000E+03 9.105E+03 2.125E+00 5.735E-03 5.652E-03 2.874E-03 1.426E-02 2.139E+00 4.519E+03  5.3345 0.99993
  1.000E+04 1.011E+04 2.139E+00 6.542E-03 6.634E-03 3.264E-03 1.644E-02 2.155E+00 4.984E+03  5.5327 0.99995
  1.200E+04 1.211E+04 2.163E+00 8.208E-03 8.708E-03 4.055E-03 2.097E-02 2.184E+00 5.906E+03  5.8790 0.99996
  1.400E+04 1.411E+04 2.183E+00 9.933E-03 1.091E-02 4.848E-03 2.569E-02 2.209E+00 6.817E+03  6.1749 0.99997
  1.700E+04 1.711E+04 2.208E+00 1.261E-02 1.440E-02 6.024E-03 3.304E-02 2.241E+00 8.165E+03  6.5510 0.99998
  2.000E+04 2.011E+04 2.228E+00 1.539E-02 1.809E-02 7.178E-03 4.066E-02 2.269E+00 9.496E+03  6.8683 0.99999
  2.500E+04 2.511E+04 2.255E+00 2.019E-02 2.460E-02 9.076E-03 5.386E-02 2.309E+00 1.168E+04  7.3069 0.99999
  3.000E+04 3.011E+04 2.276E+00 2.516E-02 3.146E-02 1.094E-02 6.756E-02 2.344E+00 1.383E+04  7.6673 0.99999
  3.500E+04 3.511E+04 2.294E+00 3.028E-02 3.862E-02 1.283E-02 8.172E-02 2.375E+00 1.595E+04  7.9731 1.00000
  4.000E+04 4.011E+04 2.309E+00 3.552E-02 4.601E-02 1.469E-02 9.622E-02 2.405E+00 1.804E+04  8.2386 1.00000
  4.500E+04 4.511E+04 2.322E+00 4.087E-02 5.361E-02 1.653E-02 1.110E-01 2.433E+00 2.011E+04  8.4731 1.00000
  5.000E+04 5.011E+04 2.333E+00 4.631E-02 6.139E-02 1.838E-02 1.261E-01 2.459E+00 2.215E+04  8.6831 1.00000
  5.500E+04 5.511E+04 2.344E+00 5.183E-02 6.932E-02 2.023E-02 1.414E-01 2.485E+00 2.417E+04  8.8733 1.00000
  6.000E+04 6.011E+04 2.353E+00 5.743E-02 7.739E-02 2.207E-02 1.569E-01 2.510E+00 2.618E+04  9.0469 1.00000
  7.000E+04 7.011E+04 2.370E+00 6.883E-02 9.390E-02 2.572E-02 1.884E-01 2.558E+00 3.012E+04  9.3547 1.00000
  8.000E+04 8.011E+04 2.384E+00 8.045E-02 1.108E-01 2.938E-02 2.206E-01 2.604E+00 3.400E+04  9.6214 1.00000
  9.000E+04 9.011E+04 2.396E+00 9.228E-02 1.281E-01 3.305E-02 2.534E-01 2.649E+00 3.780E+04  9.8567 1.00000
  1.000E+05 1.001E+05 2.407E+00 1.043E-01 1.456E-01 3.665E-02 2.865E-01 2.694E+00 4.155E+04 10.0671 1.00000
  1.200E+05 1.201E+05 2.426E+00 1.287E-01 1.814E-01 4.397E-02 3.541E-01 2.780E+00 4.886E+04 10.4314 1.00000
  1.400E+05 1.401E+05 2.442E+00 1.536E-01 2.180E-01 5.130E-02 4.230E-01 2.865E+00 5.595E+04 10.7395 1.00000
  1.700E+05 1.701E+05 2.462E+00 1.918E-01 2.741E-01 6.231E-02 5.282E-01 2.990E+00 6.620E+04 11.1275 1.00000
  2.000E+05 2.001E+05 2.478E+00 2.307E-01 3.313E-01 7.339E-02 6.353E-01 3.113E+00 7.603E+04 11.4524 1.00000
  2.500E+05 2.501E+05 2.501E+00 2.968E-01 4.283E-01 9.191E-02 8.170E-01 3.318E+00 9.160E+04 11.8985 1.00000
  3.000E+05 3.001E+05 2.519E+00 3.641E-01 5.271E-01 1.106E-01 1.002E+00 3.521E+00 1.062E+05 12.2630 1.00000
  3.500E+05 3.501E+05 2.535E+00 4.325E-01 6.271E-01 1.295E-01 1.189E+00 3.724E+00 1.200E+05 12.5712 1.00000
  4.000E+05 4.001E+05 2.549E+00 5.017E-01 7.282E-01 1.485E-01 1.378E+00 3.927E+00 1.331E+05 12.8381 1.00000
  4.500E+05 4.501E+05 2.561E+00 5.715E-01 8.301E-01 1.676E-01 1.569E+00 4.130E+00 1.455E+05 13.0737 1.00000
  5.000E+05 5.001E+05 2.571E+00 6.420E-01 9.326E-01 1.868E-01 1.761E+00 4.333E+00 1.574E+05 13.2843 1.00000
  5.500E+05 5.501E+05 2.581E+00 7.130E-01 1.036E+00 2.060E-01 1.955E+00 4.536E+00 1.687E+05 13.4749 1.00000
  6.000E+05 6.001E+05 2.590E+00 7.845E-01 1.139E+00 2.252E-01 2.149E+00 4.739E+00 1.794E+05 13.6489 1.00000
  7.000E+05 7.001E+05 2.606E+00 9.286E-01 1.348E+00 2.640E-01 2.540E+00 5.146E+00 1.997E+05 13.9572 1.00000
  8.000E+05 8.001E+05 2.620E+00 1.074E+00 1.557E+00 3.032E-01 2.935E+00 5.554E+00 2.184E+05 14.2242 1.00000
  9.000E+05 9.001E+05 2.632E+00 1.220E+00 1.768E+00 3.429E-01 3.332E+00 5.963E+00 2.358E+05 14.4597 1.00000
  1.000E+06 1.000E+06 2.643E+00 1.368E+00 1.980E+00 3.828E-01 3.731E+00 6.373E+00 2.520E+05 14.6704 1.00000
  1.200E+06 1.200E+06 2.662E+00 1.665E+00 2.405E+00 4.638E-01 4.534E+00 7.196E+00 2.816E+05 15.0350 1.00000
  1.400E+06 1.400E+06 2.678E+00 1.964E+00 2.833E+00 5.459E-01 5.343E+00 8.021E+00 3.080E+05 15.3433 1.00000
  1.700E+06 1.700E+06 2.698E+00 2.417E+00 3.477E+00 6.709E-01 6.565E+00 9.263E+00 3.429E+05 15.7316 1.00000
  2.000E+06 2.000E+06 2.716E+00 2.873E+00 4.124E+00 7.980E-01 7.795E+00 1.051E+01 3.734E+05 16.0566 1.00000
  2.500E+06 2.500E+06 2.739E+00 3.639E+00 5.207E+00 1.014E+00 9.859E+00 1.260E+01 4.170E+05 16.5029 1.00000
  3.000E+06 3.000E+06 2.759E+00 4.409E+00 6.293E+00 1.234E+00 1.194E+01 1.470E+01 4.538E+05 16.8675 1.00000
  3.500E+06 3.500E+06 2.776E+00 5.184E+00 7.382E+00 1.457E+00 1.402E+01 1.680E+01 4.857E+05 17.1758 1.00000
  4.000E+06 4.000E+06 2.790E+00 5.962E+00 8.473E+00 1.684E+00 1.612E+01 1.891E+01 5.138E+05 17.4428 1.00000
  4.500E+06 4.500E+06 2.803E+00 6.742E+00 9.566E+00 1.913E+00 1.822E+01 2.102E+01 5.389E+05 17.6784 1.00000
  5.000E+06 5.000E+06 2.815E+00 7.524E+00 1.066E+01 2.145E+00 2.033E+01 2.314E+01 5.616E+05 17.8891 1.00000
  5.500E+06 5.500E+06 2.825E+00 8.308E+00 1.176E+01 2.380E+00 2.244E+01 2.527E+01 5.823E+05 18.0797 1.00000
  6.000E+06 6.000E+06 2.835E+00 9.093E+00 1.285E+01 2.616E+00 2.456E+01 2.740E+01 6.014E+05 18.2538 1.00000
  7.000E+06 7.000E+06 2.852E+00 1.067E+01 1.505E+01 3.096E+00 2.881E+01 3.166E+01 6.354E+05 18.5620 1.00000
  8.000E+06 8.000E+06 2.867E+00 1.224E+01 1.724E+01 3.582E+00 3.307E+01 3.594E+01 6.651E+05 18.8291 1.00000
  9.000E+06 9.000E+06 2.881E+00 1.383E+01 1.944E+01 4.075E+00 3.734E+01 4.022E+01 6.914E+05 19.0647 1.00000
  1.000E+07 1.000E+07 2.893E+00 1.541E+01 2.164E+01 4.573E+00 4.162E+01 4.452E+01 7.151E+05 19.2754 1.00000
  1.200E+07 1.200E+07 2.914E+00 1.858E+01 2.604E+01 5.586E+00 5.021E+01 5.313E+01 7.564E+05 19.6400 1.00000
  1.400E+07 1.400E+07 2.931E+00 2.176E+01 3.045E+01 6.616E+00 5.883E+01 6.176E+01 7.914E+05 19.9483 1.00000
  1.700E+07 1.700E+07 2.954E+00 2.654E+01 3.707E+01 8.191E+00 7.180E+01 7.475E+01 8.358E+05 20.3366 1.00000
  2.000E+07 2.000E+07 2.973E+00 3.132E+01 4.368E+01 9.797E+00 8.480E+01 8.778E+01 8.729E+05 20.6617 1.00000
  2.500E+07 2.500E+07 2.999E+00 3.931E+01 5.472E+01 1.253E+01 1.066E+02 1.096E+02 9.242E+05 21.1080 1.00000
  3.000E+07 3.000E+07 3.021E+00 4.731E+01 6.576E+01 1.532E+01 1.284E+02 1.314E+02 9.661E+05 21.4726 1.00000
  3.500E+07 3.500E+07 3.040E+00 5.531E+01 7.681E+01 1.817E+01 1.503E+02 1.533E+02 1.001E+06 21.7809 1.00000
  4.000E+07 4.000E+07 3.056E+00 6.333E+01 8.786E+01 2.106E+01 1.722E+02 1.753E+02 1.032E+06 22.0480 1.00000
  4.500E+07 4.500E+07 3.070E+00 7.134E+01 9.891E+01 2.399E+01 1.942E+02 1.973E+02 1.059E+06 22.2835 1.00000
  5.000E+07 5.000E+07 3.083E+00 7.936E+01 1.100E+02 2.696E+01 2.163E+02 2.194E+02 1.083E+06 22.4942 1.00000
  5.500E+07 5.500E+07 3.095E+00 8.738E+01 1.210E+02 2.996E+01 2.384E+02 2.414E+02 1.105E+06 22.6849 1.00000
  6.000E+07 6.000E+07 3.105E+00 9.541E+01 1.321E+02 3.299E+01 2.605E+02 2.636E+02 1.125E+06 22.8589 1.00000
  7.000E+07 7.000E+07 3.125E+00 1.115E+02 1.542E+02 3.913E+01 3.048E+02 3.079E+02 1.160E+06 23.1672 1.00000
  8.000E+07 8.000E+07 3.141E+00 1.275E+02 1.763E+02 4.537E+01 3.492E+02 3.523E+02 1.190E+06 23.4343 1.00000
  9.000E+07 9.000E+07 3.156E+00 1.436E+02 1.984E+02 5.171E+01 3.937E+02 3.969E+02 1.217E+06 23.6698 1.00000
  1.000E+08 1.000E+08 3.169E+00 1.597E+02 2.205E+02 5.812E+01 4.383E+02 4.415E+02 1.241E+06 23.8805 1.00000
  1.200E+08 1.200E+08 3.193E+00 1.918E+02 2.648E+02 7.116E+01 5.277E+02 5.309E+02 1.282E+06 24.2452 1.00000
  1.400E+08 1.400E+08 3.212E+00 2.240E+02 3.090E+02 8.444E+01 6.174E+02 6.206E+02 1.317E+06 24.5535 1.00000
  1.700E+08 1.700E+08 3.238E+00 2.722E+02 3.754E+02 1.048E+02 7.524E+02 7.556E+02 1.361E+06 24.9418 1.00000
  2.000E+08 2.000E+08 3.259E+00 3.205E+02 4.417E+02 1.255E+02 8.877E+02 8.910E+02 1.398E+06 25.2668 1.00000
  2.500E+08 2.500E+08 3.288E+00 4.009E+02 5.524E+02 1.609E+02 1.114E+03 1.117E+03 1.448E+06 25.7131 1.00000
  3.000E+08 3.000E+08 3.312E+00 4.814E+02 6.630E+02 1.971E+02 1.341E+03 1.345E+03 1.489E+06 26.0778 1.00000
  3.500E+08 3.500E+08 3.333E+00 5.619E+02 7.736E+02 2.340E+02 1.569E+03 1.573E+03 1.524E+06 26.3861 1.00000
  4.000E+08 4.000E+08 3.351E+00 6.423E+02 8.842E+02 2.715E+02 1.798E+03 1.801E+03 1.554E+06 26.6531 1.00000
  4.500E+08 4.500E+08 3.367E+00 7.228E+02 9.949E+02 3.096E+02 2.027E+03 2.031E+03 1.580E+06 26.8887 1.00000
  5.000E+08 5.000E+08 3.382E+00 8.033E+02 1.105E+03 3.482E+02 2.257E+03 2.260E+03 1.603E+06 27.0994 1.00000
  5.500E+08 5.500E+08 3.395E+00 8.838E+02 1.216E+03 3.872E+02 2.487E+03 2.490E+03 1.624E+06 27.2900 1.00000
  6.000E+08 6.000E+08 3.407E+00 9.643E+02 1.327E+03 4.266E+02 2.718E+03 2.721E+03 1.644E+06 27.4641 1.00000
  7.000E+08 7.000E+08 3.428E+00 1.125E+03 1.548E+03 5.067E+02 3.180E+03 3.183E+03 1.678E+06 27.7724 1.00000
  8.000E+08 8.000E+08 3.447E+00 1.286E+03 1.769E+03 5.881E+02 3.644E+03 3.647E+03 1.707E+06 28.0394 1.00000
  9.000E+08 9.000E+08 3.463E+00 1.447E+03 1.990E+03 6.707E+02 4.108E+03 4.112E+03 1.733E+06 28.2750 1.00000
  1.000E+09 1.000E+09 3.478E+00 1.608E+03 2.212E+03 7.544E+02 4.574E+03 4.578E+03 1.756E+06 28.4857 1.00000
