 Incident particle is a Muon with M = 105.65839 MeV
 Index = 0: Mendelevium
      Absorber with <Z/A> = 0.39132
 Sternheimer coef:  a     k=m_s   x_0    x_1    I[eV]   Cbar  delta0
                 0.2636  3.0000  0.5886  3.0000 1007.0  6.4068 0.00

 *** Table generated with PUMAS v1.00 ***

      T         p     Ionization  brems     pair     photonuc  Radloss    dE/dx   CSDA Range  delta   beta
    [MeV]    [MeV/c]  -----------------------[MeV cm^2/g]------------------------  [g/cm^2]
  1.000E+00 1.457E+01 1.891E+01 6.661E-06 0.000E+00 0.000E+00 6.661E-06 1.891E+01 2.644E-02  0.0000 0.13661
  1.200E+00 1.597E+01 1.677E+01 7.646E-06 0.000E+00 0.000E+00 7.646E-06 1.677E+01 3.770E-02  0.0000 0.14944
  1.400E+00 1.726E+01 1.511E+01 8.577E-06 0.000E+00 0.000E+00 8.577E-06 1.511E+01 5.028E-02  0.0000 0.16119
  1.700E+00 1.903E+01 1.323E+01 9.891E-06 0.000E+00 0.000E+00 9.891E-06 1.323E+01 7.154E-02  0.0000 0.17725
  2.000E+00 2.066E+01 1.181E+01 1.112E-05 0.000E+00 0.000E+00 1.112E-05 1.181E+01 9.559E-02  0.0000 0.19186
  2.500E+00 2.312E+01 1.008E+01 1.303E-05 0.000E+00 0.000E+00 1.303E-05 1.008E+01 1.416E-01  0.0000 0.21376
  3.000E+00 2.536E+01 8.846E+00 1.478E-05 0.000E+00 0.000E+00 1.478E-05 8.846E+00 1.946E-01  0.0000 0.23336
  3.500E+00 2.742E+01 7.916E+00 1.642E-05 0.000E+00 0.000E+00 1.642E-05 7.916E+00 2.545E-01  0.0000 0.25120
  4.000E+00 2.935E+01 7.187E+00 1.795E-05 0.000E+00 0.000E+00 1.795E-05 7.187E+00 3.208E-01  0.0000 0.26763
  4.500E+00 3.116E+01 6.600E+00 1.940E-05 0.000E+00 0.000E+00 1.940E-05 6.600E+00 3.935E-01  0.0000 0.28290
  5.000E+00 3.289E+01 6.115E+00 2.078E-05 0.000E+00 0.000E+00 2.078E-05 6.115E+00 4.723E-01  0.0000 0.29720
  5.500E+00 3.453E+01 5.708E+00 2.209E-05 0.000E+00 0.000E+00 2.209E-05 5.708E+00 5.569E-01  0.0000 0.31066
  6.000E+00 3.611E+01 5.361E+00 2.335E-05 0.000E+00 0.000E+00 2.335E-05 5.361E+00 6.474E-01  0.0000 0.32339
  7.000E+00 3.909E+01 4.799E+00 2.572E-05 0.000E+00 0.000E+00 2.572E-05 4.799E+00 8.448E-01  0.0000 0.34700
  8.000E+00 4.189E+01 4.363E+00 2.792E-05 0.000E+00 0.000E+00 2.792E-05 4.363E+00 1.064E+00  0.0000 0.36854
  9.000E+00 4.453E+01 4.014E+00 3.000E-05 0.000E+00 0.000E+00 3.000E-05 4.014E+00 1.303E+00  0.0000 0.38836
  1.000E+01 4.704E+01 3.729E+00 3.196E-05 0.000E+00 0.000E+00 3.196E-05 3.729E+00 1.561E+00  0.0000 0.40675
  1.200E+01 5.177E+01 3.288E+00 3.561E-05 0.000E+00 0.000E+00 3.561E-05 3.288E+00 2.134E+00  0.0000 0.43998
  1.400E+01 5.616E+01 2.963E+00 3.897E-05 0.000E+00 0.000E+00 3.897E-05 2.963E+00 2.775E+00  0.0000 0.46937
  1.700E+01 6.230E+01 2.610E+00 4.362E-05 0.000E+00 0.000E+00 4.362E-05 2.610E+00 3.856E+00  0.0000 0.50792
  2.000E+01 6.802E+01 2.355E+00 4.793E-05 0.000E+00 0.000E+00 4.793E-05 2.355E+00 5.068E+00  0.0000 0.54129
  2.500E+01 7.686E+01 2.061E+00 5.459E-05 0.000E+00 0.000E+00 5.459E-05 2.061E+00 7.343E+00  0.0000 0.58827
  3.000E+01 8.509E+01 1.860E+00 6.083E-05 0.000E+00 0.000E+00 6.083E-05 1.860E+00 9.900E+00  0.0000 0.62720
  3.500E+01 9.285E+01 1.716E+00 6.681E-05 0.000E+00 0.000E+00 6.681E-05 1.716E+00 1.270E+01  0.0000 0.66011
  4.000E+01 1.003E+02 1.607E+00 7.263E-05 0.000E+00 0.000E+00 7.263E-05 1.607E+00 1.571E+01  0.0000 0.68834
  4.500E+01 1.074E+02 1.523E+00 7.836E-05 0.000E+00 0.000E+00 7.836E-05 1.523E+00 1.891E+01  0.0000 0.71286
  5.000E+01 1.143E+02 1.456E+00 8.404E-05 0.000E+00 0.000E+00 8.404E-05 1.456E+00 2.227E+01  0.0000 0.73434
  5.500E+01 1.210E+02 1.402E+00 8.969E-05 0.000E+00 0.000E+00 8.969E-05 1.402E+00 2.577E+01  0.0000 0.75332
  6.000E+01 1.276E+02 1.357E+00 9.535E-05 0.000E+00 0.000E+00 9.535E-05 1.357E+00 2.939E+01  0.0000 0.77019
  7.000E+01 1.403E+02 1.289E+00 1.067E-04 0.000E+00 0.000E+00 1.067E-04 1.289E+00 3.696E+01  0.0000 0.79887
  8.000E+01 1.527E+02 1.240E+00 1.183E-04 0.000E+00 0.000E+00 1.183E-04 1.240E+00 4.487E+01  0.0000 0.82227
  9.000E+01 1.647E+02 1.203E+00 1.300E-04 0.000E+00 0.000E+00 1.300E-04 1.204E+00 5.306E+01  0.0000 0.84166
  1.000E+02 1.764E+02 1.176E+00 1.420E-04 0.000E+00 0.000E+00 1.420E-04 1.176E+00 6.146E+01  0.0000 0.85794
  1.200E+02 1.994E+02 1.139E+00 1.668E-04 0.000E+00 0.000E+00 1.668E-04 1.140E+00 7.874E+01  0.0000 0.88361
  1.400E+02 2.218E+02 1.118E+00 1.926E-04 0.000E+00 0.000E+00 1.926E-04 1.118E+00 9.646E+01  0.0000 0.90278
  1.700E+02 2.546E+02 1.101E+00 2.332E-04 0.000E+00 0.000E+00 2.332E-04 1.102E+00 1.235E+02  0.0000 0.92363
  2.000E+02 2.868E+02 1.096E+00 2.761E-04 0.000E+00 0.000E+00 2.761E-04 1.096E+00 1.508E+02  0.0000 0.93835
  2.500E+02 3.396E+02 1.099E+00 3.525E-04 0.000E+00 0.000E+00 3.525E-04 1.099E+00 1.964E+02  0.0000 0.95485
  3.000E+02 3.917E+02 1.108E+00 4.343E-04 0.000E+00 0.000E+00 4.343E-04 1.109E+00 2.416E+02  0.0000 0.96548
  3.500E+02 4.432E+02 1.121E+00 5.213E-04 0.000E+00 0.000E+00 5.213E-04 1.122E+00 2.865E+02  0.0024 0.97274
  4.000E+02 4.945E+02 1.135E+00 6.128E-04 0.000E+00 0.000E+00 6.128E-04 1.136E+00 3.308E+02  0.0131 0.97793
  4.500E+02 5.455E+02 1.148E+00 7.087E-04 0.000E+00 0.000E+00 7.087E-04 1.149E+00 3.745E+02  0.0298 0.98176
  5.000E+02 5.964E+02 1.162E+00 8.087E-04 0.000E+00 0.000E+00 8.087E-04 1.162E+00 4.178E+02  0.0506 0.98467
  5.500E+02 6.471E+02 1.174E+00 9.123E-04 1.248E-04 0.000E+00 1.037E-03 1.175E+00 4.606E+02  0.0744 0.98693
  6.000E+02 6.977E+02 1.186E+00 1.020E-03 1.753E-04 0.000E+00 1.195E-03 1.188E+00 5.029E+02  0.1002 0.98873
  7.000E+02 7.987E+02 1.209E+00 1.244E-03 2.810E-04 0.000E+00 1.525E-03 1.210E+00 5.863E+02  0.1558 0.99136
  8.000E+02 8.995E+02 1.229E+00 1.480E-03 4.063E-04 0.000E+00 1.886E-03 1.231E+00 6.682E+02  0.2142 0.99317
  9.000E+02 1.000E+03 1.248E+00 1.727E-03 5.511E-04 0.000E+00 2.278E-03 1.250E+00 7.488E+02  0.2737 0.99447
  1.000E+03 1.101E+03 1.264E+00 1.984E-03 7.142E-04 0.000E+00 2.698E-03 1.267E+00 8.283E+02  0.3332 0.99542
  1.200E+03 1.301E+03 1.294E+00 2.524E-03 1.091E-03 2.244E-05 3.638E-03 1.297E+00 9.843E+02  0.4504 0.99672
  1.400E+03 1.502E+03 1.319E+00 3.097E-03 1.530E-03 6.076E-05 4.688E-03 1.323E+00 1.137E+03  0.5634 0.99753
  1.700E+03 1.803E+03 1.350E+00 4.007E-03 2.292E-03 1.284E-04 6.427E-03 1.357E+00 1.361E+03  0.7235 0.99829
  2.000E+03 2.103E+03 1.376E+00 4.971E-03 3.162E-03 2.068E-04 8.340E-03 1.385E+00 1.580E+03  0.8725 0.99874
  2.500E+03 2.604E+03 1.412E+00 6.679E-03 4.822E-03 3.562E-04 1.186E-02 1.423E+00 1.936E+03  1.0987 0.99918
  3.000E+03 3.104E+03 1.440E+00 8.493E-03 6.707E-03 5.102E-04 1.571E-02 1.455E+00 2.283E+03  1.3014 0.99942
  3.500E+03 3.604E+03 1.463E+00 1.040E-02 8.784E-03 6.713E-04 1.985E-02 1.483E+00 2.624E+03  1.4848 0.99957
  4.000E+03 4.104E+03 1.483E+00 1.238E-02 1.104E-02 8.419E-04 2.426E-02 1.507E+00 2.958E+03  1.6523 0.99967
  4.500E+03 4.604E+03 1.500E+00 1.443E-02 1.344E-02 1.018E-03 2.890E-02 1.528E+00 3.288E+03  1.8065 0.99974
  5.000E+03 5.105E+03 1.515E+00 1.655E-02 1.599E-02 1.186E-03 3.372E-02 1.548E+00 3.613E+03  1.9493 0.99979
  5.500E+03 5.605E+03 1.528E+00 1.872E-02 1.865E-02 1.366E-03 3.873E-02 1.567E+00 3.934E+03  2.0823 0.99982
  6.000E+03 6.105E+03 1.540E+00 2.094E-02 2.142E-02 1.533E-03 4.389E-02 1.584E+00 4.251E+03  2.2069 0.99985
  7.000E+03 7.105E+03 1.560E+00 2.551E-02 2.726E-02 1.886E-03 5.466E-02 1.615E+00 4.877E+03  2.4346 0.99989
  8.000E+03 8.105E+03 1.578E+00 3.025E-02 3.345E-02 2.234E-03 6.594E-02 1.644E+00 5.490E+03  2.6388 0.99992
  9.000E+03 9.105E+03 1.593E+00 3.513E-02 3.995E-02 2.559E-03 7.764E-02 1.670E+00 6.094E+03  2.8240 0.99993
  1.000E+04 1.011E+04 1.606E+00 4.014E-02 4.671E-02 2.893E-03 8.974E-02 1.695E+00 6.688E+03  2.9936 0.99995
  1.200E+04 1.211E+04 1.627E+00 5.047E-02 6.093E-02 3.567E-03 1.150E-01 1.742E+00 7.852E+03  3.2952 0.99996
  1.400E+04 1.411E+04 1.645E+00 6.118E-02 7.594E-02 4.238E-03 1.414E-01 1.787E+00 8.986E+03  3.5577 0.99997
  1.700E+04 1.711E+04 1.667E+00 7.782E-02 9.966E-02 5.226E-03 1.827E-01 1.849E+00 1.064E+04  3.8974 0.99998
  2.000E+04 2.011E+04 1.684E+00 9.504E-02 1.246E-01 6.190E-03 2.258E-01 1.910E+00 1.223E+04  4.1889 0.99999
  2.500E+04 2.511E+04 1.707E+00 1.248E-01 1.682E-01 7.763E-03 3.007E-01 2.008E+00 1.479E+04  4.5985 0.99999
  3.000E+04 3.011E+04 1.725E+00 1.556E-01 2.139E-01 9.299E-03 3.788E-01 2.104E+00 1.722E+04  4.9404 0.99999
  3.500E+04 3.511E+04 1.740E+00 1.873E-01 2.612E-01 1.084E-02 4.594E-01 2.199E+00 1.955E+04  5.2339 1.00000
  4.000E+04 4.011E+04 1.752E+00 2.197E-01 3.099E-01 1.237E-02 5.420E-01 2.294E+00 2.177E+04  5.4909 1.00000
  4.500E+04 4.511E+04 1.763E+00 2.528E-01 3.598E-01 1.386E-02 6.264E-01 2.389E+00 2.391E+04  5.7196 1.00000
  5.000E+04 5.011E+04 1.772E+00 2.864E-01 4.105E-01 1.535E-02 7.123E-01 2.484E+00 2.596E+04  5.9255 1.00000
  5.500E+04 5.511E+04 1.780E+00 3.205E-01 4.622E-01 1.686E-02 7.995E-01 2.580E+00 2.794E+04  6.1127 1.00000
  6.000E+04 6.011E+04 1.788E+00 3.550E-01 5.145E-01 1.834E-02 8.878E-01 2.676E+00 2.984E+04  6.2844 1.00000
  7.000E+04 7.011E+04 1.801E+00 4.251E-01 6.211E-01 2.127E-02 1.067E+00 2.868E+00 3.345E+04  6.5898 1.00000
  8.000E+04 8.011E+04 1.812E+00 4.966E-01 7.297E-01 2.421E-02 1.250E+00 3.063E+00 3.683E+04  6.8554 1.00000
  9.000E+04 9.011E+04 1.822E+00 5.692E-01 8.401E-01 2.714E-02 1.436E+00 3.258E+00 4.000E+04  7.0903 1.00000
  1.000E+05 1.001E+05 1.831E+00 6.427E-01 9.518E-01 3.001E-02 1.625E+00 3.455E+00 4.298E+04  7.3007 1.00000
  1.200E+05 1.201E+05 1.845E+00 7.922E-01 1.179E+00 3.584E-02 2.007E+00 3.852E+00 4.847E+04  7.6650 1.00000
  1.400E+05 1.401E+05 1.858E+00 9.443E-01 1.410E+00 4.166E-02 2.396E+00 4.254E+00 5.341E+04  7.9731 1.00000
  1.700E+05 1.701E+05 1.874E+00 1.177E+00 1.761E+00 5.038E-02 2.988E+00 4.862E+00 6.003E+04  8.3611 1.00000
  2.000E+05 2.001E+05 1.887E+00 1.413E+00 2.118E+00 5.913E-02 3.590E+00 5.477E+00 6.585E+04  8.6860 1.00000
  2.500E+05 2.501E+05 1.905E+00 1.813E+00 2.721E+00 7.373E-02 4.607E+00 6.512E+00 7.425E+04  9.1321 1.00000
  3.000E+05 3.001E+05 1.919E+00 2.220E+00 3.330E+00 8.841E-02 5.639E+00 7.558E+00 8.140E+04  9.4966 1.00000
  3.500E+05 3.501E+05 1.931E+00 2.632E+00 3.946E+00 1.032E-01 6.681E+00 8.612E+00 8.761E+04  9.8048 1.00000
  4.000E+05 4.001E+05 1.942E+00 3.047E+00 4.565E+00 1.182E-01 7.731E+00 9.673E+00 9.310E+04 10.0717 1.00000
  4.500E+05 4.501E+05 1.952E+00 3.467E+00 5.188E+00 1.331E-01 8.788E+00 1.074E+01 9.801E+04 10.3073 1.00000
  5.000E+05 5.001E+05 1.960E+00 3.889E+00 5.814E+00 1.482E-01 9.851E+00 1.181E+01 1.025E+05 10.5179 1.00000
  5.500E+05 5.501E+05 1.968E+00 4.313E+00 6.442E+00 1.632E-01 1.092E+01 1.289E+01 1.065E+05 10.7085 1.00000
  6.000E+05 6.001E+05 1.975E+00 4.740E+00 7.072E+00 1.782E-01 1.199E+01 1.396E+01 1.102E+05 10.8825 1.00000
  7.000E+05 7.001E+05 1.987E+00 5.598E+00 8.337E+00 2.085E-01 1.414E+01 1.613E+01 1.169E+05 11.1908 1.00000
  8.000E+05 8.001E+05 1.998E+00 6.462E+00 9.608E+00 2.391E-01 1.631E+01 1.831E+01 1.228E+05 11.4578 1.00000
  9.000E+05 9.001E+05 2.008E+00 7.332E+00 1.088E+01 2.700E-01 1.848E+01 2.049E+01 1.279E+05 11.6933 1.00000
  1.000E+06 1.000E+06 2.016E+00 8.205E+00 1.216E+01 3.012E-01 2.067E+01 2.268E+01 1.326E+05 11.9040 1.00000
  1.200E+06 1.200E+06 2.031E+00 9.962E+00 1.472E+01 3.643E-01 2.505E+01 2.708E+01 1.407E+05 12.2686 1.00000
  1.400E+06 1.400E+06 2.044E+00 1.173E+01 1.730E+01 4.282E-01 2.945E+01 3.150E+01 1.475E+05 12.5769 1.00000
  1.700E+06 1.700E+06 2.060E+00 1.439E+01 2.117E+01 5.256E-01 3.609E+01 3.815E+01 1.562E+05 12.9652 1.00000
  2.000E+06 2.000E+06 2.074E+00 1.707E+01 2.505E+01 6.245E-01 4.274E+01 4.482E+01 1.635E+05 13.2902 1.00000
  2.500E+06 2.500E+06 2.093E+00 2.156E+01 3.153E+01 7.924E-01 5.388E+01 5.597E+01 1.736E+05 13.7365 1.00000
  3.000E+06 3.000E+06 2.108E+00 2.606E+01 3.803E+01 9.634E-01 6.505E+01 6.716E+01 1.817E+05 14.1011 1.00000
  3.500E+06 3.500E+06 2.121E+00 3.059E+01 4.453E+01 1.137E+00 7.626E+01 7.838E+01 1.887E+05 14.4094 1.00000
  4.000E+06 4.000E+06 2.133E+00 3.512E+01 5.105E+01 1.313E+00 8.748E+01 8.961E+01 1.946E+05 14.6764 1.00000
  4.500E+06 4.500E+06 2.143E+00 3.966E+01 5.757E+01 1.492E+00 9.872E+01 1.009E+02 1.999E+05 14.9120 1.00000
  5.000E+06 5.000E+06 2.152E+00 4.421E+01 6.409E+01 1.672E+00 1.100E+02 1.121E+02 2.046E+05 15.1227 1.00000
  5.500E+06 5.500E+06 2.161E+00 4.876E+01 7.062E+01 1.854E+00 1.212E+02 1.234E+02 2.089E+05 15.3133 1.00000
  6.000E+06 6.000E+06 2.168E+00 5.332E+01 7.715E+01 2.038E+00 1.325E+02 1.347E+02 2.127E+05 15.4874 1.00000
  7.000E+06 7.000E+06 2.182E+00 6.245E+01 9.023E+01 2.411E+00 1.551E+02 1.573E+02 2.196E+05 15.7956 1.00000
  8.000E+06 8.000E+06 2.194E+00 7.160E+01 1.033E+02 2.788E+00 1.777E+02 1.799E+02 2.256E+05 16.0627 1.00000
  9.000E+06 9.000E+06 2.204E+00 8.076E+01 1.164E+02 3.171E+00 2.003E+02 2.025E+02 2.308E+05 16.2983 1.00000
  1.000E+07 1.000E+07 2.214E+00 8.992E+01 1.295E+02 3.558E+00 2.230E+02 2.252E+02 2.355E+05 16.5090 1.00000
  1.200E+07 1.200E+07 2.230E+00 1.083E+02 1.557E+02 4.345E+00 2.683E+02 2.705E+02 2.437E+05 16.8736 1.00000
  1.400E+07 1.400E+07 2.244E+00 1.266E+02 1.819E+02 5.145E+00 3.137E+02 3.159E+02 2.505E+05 17.1819 1.00000
  1.700E+07 1.700E+07 2.262E+00 1.542E+02 2.212E+02 6.369E+00 3.818E+02 3.841E+02 2.592E+05 17.5702 1.00000
  2.000E+07 2.000E+07 2.277E+00 1.818E+02 2.606E+02 7.615E+00 4.500E+02 4.523E+02 2.664E+05 17.8953 1.00000
  2.500E+07 2.500E+07 2.298E+00 2.279E+02 3.262E+02 9.737E+00 5.638E+02 5.661E+02 2.764E+05 18.3416 1.00000
  3.000E+07 3.000E+07 2.315E+00 2.739E+02 3.918E+02 1.191E+01 6.776E+02 6.799E+02 2.844E+05 18.7062 1.00000
  3.500E+07 3.500E+07 2.329E+00 3.200E+02 4.574E+02 1.412E+01 7.916E+02 7.939E+02 2.913E+05 19.0145 1.00000
  4.000E+07 4.000E+07 2.342E+00 3.662E+02 5.230E+02 1.636E+01 9.056E+02 9.079E+02 2.972E+05 19.2816 1.00000
  4.500E+07 4.500E+07 2.353E+00 4.123E+02 5.887E+02 1.863E+01 1.020E+03 1.022E+03 3.024E+05 19.5171 1.00000
  5.000E+07 5.000E+07 2.364E+00 4.584E+02 6.543E+02 2.094E+01 1.134E+03 1.136E+03 3.070E+05 19.7278 1.00000
  5.500E+07 5.500E+07 2.373E+00 5.046E+02 7.200E+02 2.327E+01 1.248E+03 1.250E+03 3.112E+05 19.9185 1.00000
  6.000E+07 6.000E+07 2.381E+00 5.507E+02 7.856E+02 2.562E+01 1.362E+03 1.364E+03 3.151E+05 20.0925 1.00000
  7.000E+07 7.000E+07 2.396E+00 6.431E+02 9.169E+02 3.039E+01 1.590E+03 1.593E+03 3.219E+05 20.4008 1.00000
  8.000E+07 8.000E+07 2.410E+00 7.354E+02 1.048E+03 3.524E+01 1.819E+03 1.821E+03 3.277E+05 20.6679 1.00000
  9.000E+07 9.000E+07 2.421E+00 8.278E+02 1.180E+03 4.016E+01 2.048E+03 2.050E+03 3.329E+05 20.9034 1.00000
  1.000E+08 1.000E+08 2.432E+00 9.202E+02 1.311E+03 4.513E+01 2.276E+03 2.279E+03 3.376E+05 21.1141 1.00000
  1.200E+08 1.200E+08 2.450E+00 1.105E+03 1.574E+03 5.526E+01 2.734E+03 2.736E+03 3.456E+05 21.4788 1.00000
  1.400E+08 1.400E+08 2.466E+00 1.290E+03 1.836E+03 6.557E+01 3.192E+03 3.194E+03 3.524E+05 21.7871 1.00000
  1.700E+08 1.700E+08 2.486E+00 1.567E+03 2.230E+03 8.136E+01 3.879E+03 3.881E+03 3.610E+05 22.1754 1.00000
  2.000E+08 2.000E+08 2.502E+00 1.844E+03 2.624E+03 9.747E+01 4.566E+03 4.569E+03 3.681E+05 22.5004 1.00000
  2.500E+08 2.500E+08 2.525E+00 2.306E+03 3.281E+03 1.249E+02 5.712E+03 5.715E+03 3.779E+05 22.9467 1.00000
  3.000E+08 3.000E+08 2.545E+00 2.768E+03 3.938E+03 1.530E+02 6.859E+03 6.862E+03 3.860E+05 23.3114 1.00000
  3.500E+08 3.500E+08 2.561E+00 3.231E+03 4.595E+03 1.817E+02 8.007E+03 8.009E+03 3.927E+05 23.6197 1.00000
  4.000E+08 4.000E+08 2.575E+00 3.693E+03 5.251E+03 2.108E+02 9.155E+03 9.157E+03 3.986E+05 23.8867 1.00000
  4.500E+08 4.500E+08 2.588E+00 4.155E+03 5.908E+03 2.404E+02 1.030E+04 1.031E+04 4.037E+05 24.1223 1.00000
  5.000E+08 5.000E+08 2.599E+00 4.617E+03 6.565E+03 2.703E+02 1.145E+04 1.145E+04 4.083E+05 24.3330 1.00000
  5.500E+08 5.500E+08 2.609E+00 5.079E+03 7.221E+03 3.006E+02 1.260E+04 1.260E+04 4.125E+05 24.5236 1.00000
  6.000E+08 6.000E+08 2.619E+00 5.542E+03 7.878E+03 3.313E+02 1.375E+04 1.375E+04 4.163E+05 24.6977 1.00000
  7.000E+08 7.000E+08 2.636E+00 6.466E+03 9.191E+03 3.934E+02 1.605E+04 1.605E+04 4.231E+05 25.0060 1.00000
  8.000E+08 8.000E+08 2.650E+00 7.390E+03 1.050E+04 4.566E+02 1.835E+04 1.835E+04 4.289E+05 25.2730 1.00000
  9.000E+08 9.000E+08 2.664E+00 8.315E+03 1.182E+04 5.207E+02 2.065E+04 2.066E+04 4.340E+05 25.5086 1.00000
  1.000E+09 1.000E+09 2.675E+00 9.239E+03 1.313E+04 5.857E+02 2.296E+04 2.296E+04 4.386E+05 25.7193 1.00000
