 Incident particle is a Muon with M = 105.65839 MeV
 Index = 0: MercuricIodide
      Absorber with <Z/A> = 0.40933
 Sternheimer coef:  a     k=m_s   x_0    x_1    I[eV]   Cbar  delta0
                 0.2151  2.7264  0.1040  3.4728  684.5  6.3787 0.00

 *** Table generated with PUMAS v1.00 ***

      T         p     Ionization  brems     pair     photonuc  Radloss    dE/dx   CSDA Range  delta   beta
    [MeV]    [MeV/c]  -----------------------[MeV cm^2/g]------------------------  [g/cm^2]
  1.000E+00 1.457E+01 2.238E+01 4.621E-06 0.000E+00 0.000E+00 4.621E-06 2.238E+01 2.234E-02  0.0000 0.13661
  1.200E+00 1.597E+01 1.971E+01 5.307E-06 0.000E+00 0.000E+00 5.307E-06 1.971E+01 3.188E-02  0.0000 0.14944
  1.400E+00 1.726E+01 1.768E+01 5.958E-06 0.000E+00 0.000E+00 5.958E-06 1.768E+01 4.262E-02  0.0000 0.16119
  1.700E+00 1.903E+01 1.538E+01 6.878E-06 0.000E+00 0.000E+00 6.878E-06 1.538E+01 6.086E-02  0.0000 0.17725
  2.000E+00 2.066E+01 1.367E+01 7.741E-06 0.000E+00 0.000E+00 7.741E-06 1.367E+01 8.158E-02  0.0000 0.19186
  2.500E+00 2.312E+01 1.161E+01 9.081E-06 0.000E+00 0.000E+00 9.081E-06 1.161E+01 1.214E-01  0.0000 0.21376
  3.000E+00 2.536E+01 1.014E+01 1.032E-05 0.000E+00 0.000E+00 1.032E-05 1.014E+01 1.676E-01  0.0000 0.23336
  3.500E+00 2.742E+01 9.049E+00 1.147E-05 0.000E+00 0.000E+00 1.147E-05 9.049E+00 2.199E-01  0.0000 0.25120
  4.000E+00 2.935E+01 8.196E+00 1.256E-05 0.000E+00 0.000E+00 1.256E-05 8.196E+00 2.780E-01  0.0000 0.26763
  4.500E+00 3.116E+01 7.510E+00 1.359E-05 0.000E+00 0.000E+00 1.359E-05 7.510E+00 3.418E-01  0.0000 0.28290
  5.000E+00 3.289E+01 6.946E+00 1.457E-05 0.000E+00 0.000E+00 1.457E-05 6.946E+00 4.111E-01  0.0000 0.29720
  5.500E+00 3.453E+01 6.474E+00 1.550E-05 0.000E+00 0.000E+00 1.550E-05 6.474E+00 4.857E-01  0.0000 0.31066
  6.000E+00 3.611E+01 6.071E+00 1.640E-05 0.000E+00 0.000E+00 1.640E-05 6.071E+00 5.655E-01  0.0000 0.32339
  7.000E+00 3.909E+01 5.423E+00 1.809E-05 0.000E+00 0.000E+00 1.809E-05 5.423E+00 7.400E-01  0.0000 0.34700
  8.000E+00 4.189E+01 4.921E+00 1.967E-05 0.000E+00 0.000E+00 1.967E-05 4.921E+00 9.339E-01  0.0000 0.36854
  9.000E+00 4.453E+01 4.521E+00 2.115E-05 0.000E+00 0.000E+00 2.115E-05 4.521E+00 1.146E+00  0.0000 0.38836
  1.000E+01 4.704E+01 4.193E+00 2.256E-05 0.000E+00 0.000E+00 2.256E-05 4.193E+00 1.376E+00  0.0000 0.40675
  1.200E+01 5.177E+01 3.690E+00 2.518E-05 0.000E+00 0.000E+00 2.518E-05 3.690E+00 1.885E+00  0.0000 0.43998
  1.400E+01 5.616E+01 3.320E+00 2.761E-05 0.000E+00 0.000E+00 2.761E-05 3.320E+00 2.458E+00  0.0000 0.46937
  1.700E+01 6.230E+01 2.918E+00 3.096E-05 0.000E+00 0.000E+00 3.096E-05 2.918E+00 3.424E+00  0.0000 0.50792
  2.000E+01 6.802E+01 2.629E+00 3.407E-05 0.000E+00 0.000E+00 3.407E-05 2.629E+00 4.508E+00  0.0000 0.54129
  2.500E+01 7.686E+01 2.296E+00 3.887E-05 0.000E+00 0.000E+00 3.887E-05 2.296E+00 6.548E+00  0.0000 0.58827
  3.000E+01 8.509E+01 2.069E+00 4.338E-05 0.000E+00 0.000E+00 4.338E-05 2.069E+00 8.845E+00  0.0000 0.62720
  3.500E+01 9.285E+01 1.906E+00 4.769E-05 0.000E+00 0.000E+00 4.769E-05 1.906E+00 1.136E+01  0.0000 0.66011
  4.000E+01 1.003E+02 1.784E+00 5.188E-05 0.000E+00 0.000E+00 5.188E-05 1.784E+00 1.408E+01  0.0000 0.68834
  4.500E+01 1.074E+02 1.689E+00 5.600E-05 0.000E+00 0.000E+00 5.600E-05 1.689E+00 1.696E+01  0.0000 0.71286
  5.000E+01 1.143E+02 1.613E+00 6.008E-05 0.000E+00 0.000E+00 6.008E-05 1.613E+00 1.999E+01  0.0000 0.73434
  5.500E+01 1.210E+02 1.552E+00 6.414E-05 0.000E+00 0.000E+00 6.414E-05 1.552E+00 2.315E+01  0.0000 0.75332
  6.000E+01 1.276E+02 1.501E+00 6.821E-05 0.000E+00 0.000E+00 6.821E-05 1.501E+00 2.643E+01  0.0000 0.77019
  7.000E+01 1.403E+02 1.425E+00 7.637E-05 0.000E+00 0.000E+00 7.637E-05 1.425E+00 3.327E+01 -0.0040 0.79887
  8.000E+01 1.527E+02 1.369E+00 8.464E-05 0.000E+00 0.000E+00 8.464E-05 1.369E+00 4.043E+01 -0.0068 0.82227
  9.000E+01 1.647E+02 1.328E+00 9.305E-05 0.000E+00 0.000E+00 9.305E-05 1.328E+00 4.785E+01 -0.0066 0.84166
  1.000E+02 1.764E+02 1.297E+00 1.016E-04 0.000E+00 0.000E+00 1.016E-04 1.297E+00 5.547E+01 -0.0041 0.85794
  1.200E+02 1.994E+02 1.254E+00 1.193E-04 0.000E+00 0.000E+00 1.193E-04 1.254E+00 7.116E+01  0.0055 0.88361
  1.400E+02 2.218E+02 1.227E+00 1.377E-04 0.000E+00 0.000E+00 1.377E-04 1.227E+00 8.728E+01  0.0193 0.90278
  1.700E+02 2.546E+02 1.206E+00 1.666E-04 0.000E+00 0.000E+00 1.666E-04 1.206E+00 1.119E+02  0.0446 0.92363
  2.000E+02 2.868E+02 1.196E+00 1.972E-04 0.000E+00 0.000E+00 1.972E-04 1.196E+00 1.369E+02  0.0730 0.93835
  2.500E+02 3.396E+02 1.194E+00 2.514E-04 0.000E+00 0.000E+00 2.514E-04 1.194E+00 1.788E+02  0.1238 0.95485
  3.000E+02 3.917E+02 1.200E+00 3.095E-04 0.000E+00 0.000E+00 3.095E-04 1.200E+00 2.205E+02  0.1760 0.96548
  3.500E+02 4.432E+02 1.209E+00 3.711E-04 0.000E+00 0.000E+00 3.711E-04 1.210E+00 2.620E+02  0.2281 0.97274
  4.000E+02 4.945E+02 1.220E+00 4.359E-04 7.919E-06 0.000E+00 4.438E-04 1.221E+00 3.032E+02  0.2794 0.97793
  4.500E+02 5.455E+02 1.232E+00 5.037E-04 2.029E-05 0.000E+00 5.240E-04 1.233E+00 3.439E+02  0.3296 0.98176
  5.000E+02 5.964E+02 1.244E+00 5.743E-04 6.287E-05 0.000E+00 6.372E-04 1.245E+00 3.843E+02  0.3784 0.98467
  5.500E+02 6.471E+02 1.256E+00 6.475E-04 9.062E-05 0.000E+00 7.382E-04 1.256E+00 4.243E+02  0.4259 0.98693
  6.000E+02 6.977E+02 1.267E+00 7.232E-04 1.206E-04 0.000E+00 8.438E-04 1.268E+00 4.639E+02  0.4721 0.98873
  7.000E+02 7.987E+02 1.288E+00 8.813E-04 1.912E-04 0.000E+00 1.072E-03 1.289E+00 5.421E+02  0.5604 0.99136
  8.000E+02 8.995E+02 1.308E+00 1.048E-03 2.758E-04 0.000E+00 1.323E-03 1.309E+00 6.191E+02  0.6438 0.99317
  9.000E+02 1.000E+03 1.326E+00 1.221E-03 3.735E-04 0.000E+00 1.595E-03 1.327E+00 6.950E+02  0.7227 0.99447
  1.000E+03 1.101E+03 1.342E+00 1.402E-03 4.836E-04 0.000E+00 1.886E-03 1.344E+00 7.699E+02  0.7976 0.99542
  1.200E+03 1.301E+03 1.371E+00 1.782E-03 7.379E-04 2.246E-05 2.542E-03 1.374E+00 9.171E+02  0.9367 0.99672
  1.400E+03 1.502E+03 1.397E+00 2.183E-03 1.034E-03 6.092E-05 3.278E-03 1.400E+00 1.061E+03  1.0636 0.99753
  1.700E+03 1.803E+03 1.429E+00 2.821E-03 1.547E-03 1.291E-04 4.497E-03 1.433E+00 1.273E+03  1.2356 0.99829
  2.000E+03 2.103E+03 1.456E+00 3.496E-03 2.134E-03 2.083E-04 5.838E-03 1.461E+00 1.480E+03  1.3899 0.99874
  2.500E+03 2.604E+03 1.492E+00 4.689E-03 3.253E-03 3.596E-04 8.302E-03 1.501E+00 1.818E+03  1.6167 0.99918
  3.000E+03 3.104E+03 1.522E+00 5.956E-03 4.523E-03 5.162E-04 1.099E-02 1.533E+00 2.148E+03  1.8146 0.99942
  3.500E+03 3.604E+03 1.547E+00 7.285E-03 5.922E-03 6.805E-04 1.389E-02 1.561E+00 2.471E+03  1.9905 0.99957
  4.000E+03 4.104E+03 1.568E+00 8.667E-03 7.445E-03 8.547E-04 1.697E-02 1.585E+00 2.789E+03  2.1491 0.99967
  4.500E+03 4.604E+03 1.587E+00 1.010E-02 9.074E-03 1.035E-03 2.021E-02 1.607E+00 3.102E+03  2.2937 0.99974
  5.000E+03 5.105E+03 1.603E+00 1.157E-02 1.079E-02 1.207E-03 2.357E-02 1.626E+00 3.411E+03  2.4267 0.99979
  5.500E+03 5.605E+03 1.617E+00 1.308E-02 1.260E-02 1.392E-03 2.707E-02 1.644E+00 3.717E+03  2.5499 0.99982
  6.000E+03 6.105E+03 1.630E+00 1.462E-02 1.448E-02 1.563E-03 3.066E-02 1.661E+00 4.020E+03  2.6648 0.99985
  7.000E+03 7.105E+03 1.653E+00 1.780E-02 1.844E-02 1.925E-03 3.817E-02 1.691E+00 4.616E+03  2.8737 0.99989
  8.000E+03 8.105E+03 1.672E+00 2.110E-02 2.263E-02 2.283E-03 4.601E-02 1.718E+00 5.203E+03  3.0603 0.99992
  9.000E+03 9.105E+03 1.689E+00 2.449E-02 2.704E-02 2.618E-03 5.414E-02 1.743E+00 5.781E+03  3.2289 0.99993
  1.000E+04 1.011E+04 1.703E+00 2.796E-02 3.163E-02 2.962E-03 6.255E-02 1.766E+00 6.351E+03  3.3830 0.99995
  1.200E+04 1.211E+04 1.728E+00 3.513E-02 4.129E-02 3.658E-03 8.008E-02 1.808E+00 7.470E+03  3.6565 0.99996
  1.400E+04 1.411E+04 1.748E+00 4.256E-02 5.149E-02 4.351E-03 9.841E-02 1.847E+00 8.565E+03  3.8944 0.99997
  1.700E+04 1.711E+04 1.773E+00 5.411E-02 6.764E-02 5.374E-03 1.271E-01 1.900E+00 1.017E+04  4.2022 0.99998
  2.000E+04 2.011E+04 1.793E+00 6.605E-02 8.461E-02 6.373E-03 1.570E-01 1.950E+00 1.173E+04  4.4667 0.99999
  2.500E+04 2.511E+04 1.819E+00 8.668E-02 1.144E-01 8.006E-03 2.090E-01 2.028E+00 1.424E+04  4.8394 0.99999
  3.000E+04 3.011E+04 1.840E+00 1.080E-01 1.456E-01 9.601E-03 2.632E-01 2.103E+00 1.666E+04  5.1517 0.99999
  3.500E+04 3.511E+04 1.856E+00 1.300E-01 1.779E-01 1.121E-02 3.191E-01 2.176E+00 1.900E+04  5.4208 1.00000
  4.000E+04 4.011E+04 1.871E+00 1.525E-01 2.113E-01 1.279E-02 3.765E-01 2.247E+00 2.126E+04  5.6577 1.00000
  4.500E+04 4.511E+04 1.883E+00 1.754E-01 2.454E-01 1.435E-02 4.351E-01 2.318E+00 2.345E+04  5.8692 1.00000
  5.000E+04 5.011E+04 1.894E+00 1.987E-01 2.802E-01 1.591E-02 4.947E-01 2.388E+00 2.558E+04  6.0605 1.00000
  5.500E+04 5.511E+04 1.903E+00 2.223E-01 3.156E-01 1.748E-02 5.553E-01 2.458E+00 2.764E+04  6.2350 1.00000
  6.000E+04 6.011E+04 1.912E+00 2.462E-01 3.515E-01 1.902E-02 6.167E-01 2.528E+00 2.965E+04  6.3957 1.00000
  7.000E+04 7.011E+04 1.926E+00 2.948E-01 4.247E-01 2.209E-02 7.416E-01 2.668E+00 3.350E+04  6.6831 1.00000
  8.000E+04 8.011E+04 1.939E+00 3.444E-01 4.993E-01 2.516E-02 8.688E-01 2.808E+00 3.715E+04  6.9348 1.00000
  9.000E+04 9.011E+04 1.950E+00 3.947E-01 5.752E-01 2.822E-02 9.981E-01 2.948E+00 4.063E+04  7.1588 1.00000
  1.000E+05 1.001E+05 1.960E+00 4.457E-01 6.522E-01 3.122E-02 1.129E+00 3.089E+00 4.395E+04  7.3607 1.00000
  1.200E+05 1.201E+05 1.976E+00 5.494E-01 8.086E-01 3.733E-02 1.395E+00 3.371E+00 5.015E+04  7.7130 1.00000
  1.400E+05 1.401E+05 1.989E+00 6.549E-01 9.678E-01 4.343E-02 1.666E+00 3.656E+00 5.585E+04  8.0135 1.00000
  1.700E+05 1.701E+05 2.006E+00 8.161E-01 1.210E+00 5.256E-02 2.079E+00 4.085E+00 6.363E+04  8.3950 1.00000
  2.000E+05 2.001E+05 2.020E+00 9.801E-01 1.457E+00 6.174E-02 2.499E+00 4.519E+00 7.062E+04  8.7166 1.00000
  2.500E+05 2.501E+05 2.039E+00 1.258E+00 1.873E+00 7.705E-02 3.208E+00 5.247E+00 8.092E+04  9.1605 1.00000
  3.000E+05 3.001E+05 2.054E+00 1.541E+00 2.295E+00 9.246E-02 3.928E+00 5.982E+00 8.986E+04  9.5247 1.00000
  3.500E+05 3.501E+05 2.067E+00 1.827E+00 2.721E+00 1.080E-01 4.656E+00 6.723E+00 9.776E+04  9.8329 1.00000
  4.000E+05 4.001E+05 2.078E+00 2.116E+00 3.150E+00 1.237E-01 5.390E+00 7.468E+00 1.048E+05 10.0998 1.00000
  4.500E+05 4.501E+05 2.088E+00 2.407E+00 3.581E+00 1.394E-01 6.128E+00 8.216E+00 1.112E+05 10.3354 1.00000
  5.000E+05 5.001E+05 2.097E+00 2.701E+00 4.015E+00 1.553E-01 6.871E+00 8.968E+00 1.170E+05 10.5460 1.00000
  5.500E+05 5.501E+05 2.105E+00 2.996E+00 4.450E+00 1.710E-01 7.618E+00 9.723E+00 1.224E+05 10.7366 1.00000
  6.000E+05 6.001E+05 2.112E+00 3.293E+00 4.887E+00 1.868E-01 8.367E+00 1.048E+01 1.274E+05 10.9106 1.00000
  7.000E+05 7.001E+05 2.126E+00 3.891E+00 5.765E+00 2.186E-01 9.874E+00 1.200E+01 1.363E+05 11.2189 1.00000
  8.000E+05 8.001E+05 2.137E+00 4.493E+00 6.646E+00 2.508E-01 1.139E+01 1.353E+01 1.442E+05 11.4859 1.00000
  9.000E+05 9.001E+05 2.147E+00 5.098E+00 7.530E+00 2.833E-01 1.291E+01 1.506E+01 1.512E+05 11.7214 1.00000
  1.000E+06 1.000E+06 2.156E+00 5.706E+00 8.417E+00 3.161E-01 1.444E+01 1.660E+01 1.575E+05 11.9321 1.00000
  1.200E+06 1.200E+06 2.172E+00 6.930E+00 1.020E+01 3.824E-01 1.751E+01 1.968E+01 1.686E+05 12.2967 1.00000
  1.400E+06 1.400E+06 2.185E+00 8.162E+00 1.198E+01 4.496E-01 2.059E+01 2.278E+01 1.781E+05 12.6050 1.00000
  1.700E+06 1.700E+06 2.202E+00 1.002E+01 1.467E+01 5.521E-01 2.524E+01 2.745E+01 1.901E+05 12.9933 1.00000
  2.000E+06 2.000E+06 2.216E+00 1.189E+01 1.737E+01 6.561E-01 2.991E+01 3.213E+01 2.003E+05 13.3183 1.00000
  2.500E+06 2.500E+06 2.236E+00 1.502E+01 2.187E+01 8.327E-01 3.772E+01 3.996E+01 2.143E+05 13.7646 1.00000
  3.000E+06 3.000E+06 2.252E+00 1.816E+01 2.639E+01 1.013E+00 4.556E+01 4.781E+01 2.258E+05 14.1292 1.00000
  3.500E+06 3.500E+06 2.266E+00 2.132E+01 3.091E+01 1.195E+00 5.342E+01 5.569E+01 2.355E+05 14.4375 1.00000
  4.000E+06 4.000E+06 2.278E+00 2.449E+01 3.544E+01 1.381E+00 6.130E+01 6.358E+01 2.439E+05 14.7045 1.00000
  4.500E+06 4.500E+06 2.288E+00 2.766E+01 3.997E+01 1.568E+00 6.919E+01 7.148E+01 2.514E+05 14.9401 1.00000
  5.000E+06 5.000E+06 2.298E+00 3.083E+01 4.451E+01 1.758E+00 7.710E+01 7.940E+01 2.580E+05 15.1508 1.00000
  5.500E+06 5.500E+06 2.307E+00 3.401E+01 4.905E+01 1.950E+00 8.501E+01 8.732E+01 2.640E+05 15.3414 1.00000
  6.000E+06 6.000E+06 2.315E+00 3.720E+01 5.359E+01 2.143E+00 9.293E+01 9.525E+01 2.695E+05 15.5155 1.00000
  7.000E+06 7.000E+06 2.329E+00 4.358E+01 6.268E+01 2.535E+00 1.088E+02 1.111E+02 2.793E+05 15.8237 1.00000
  8.000E+06 8.000E+06 2.341E+00 4.997E+01 7.177E+01 2.933E+00 1.247E+02 1.270E+02 2.877E+05 16.0908 1.00000
  9.000E+06 9.000E+06 2.352E+00 5.637E+01 8.088E+01 3.336E+00 1.406E+02 1.429E+02 2.951E+05 16.3264 1.00000
  1.000E+07 1.000E+07 2.362E+00 6.277E+01 8.998E+01 3.743E+00 1.565E+02 1.589E+02 3.018E+05 16.5371 1.00000
  1.200E+07 1.200E+07 2.379E+00 7.560E+01 1.082E+02 4.571E+00 1.884E+02 1.908E+02 3.133E+05 16.9017 1.00000
  1.400E+07 1.400E+07 2.394E+00 8.844E+01 1.264E+02 5.413E+00 2.203E+02 2.227E+02 3.230E+05 17.2100 1.00000
  1.700E+07 1.700E+07 2.413E+00 1.077E+02 1.538E+02 6.700E+00 2.682E+02 2.706E+02 3.353E+05 17.5983 1.00000
  2.000E+07 2.000E+07 2.428E+00 1.270E+02 1.812E+02 8.012E+00 3.162E+02 3.186E+02 3.456E+05 17.9234 1.00000
  2.500E+07 2.500E+07 2.450E+00 1.592E+02 2.268E+02 1.025E+01 3.962E+02 3.987E+02 3.597E+05 18.3697 1.00000
  3.000E+07 3.000E+07 2.468E+00 1.914E+02 2.724E+02 1.253E+01 4.764E+02 4.789E+02 3.712E+05 18.7343 1.00000
  3.500E+07 3.500E+07 2.483E+00 2.237E+02 3.181E+02 1.485E+01 5.566E+02 5.591E+02 3.809E+05 19.0426 1.00000
  4.000E+07 4.000E+07 2.497E+00 2.559E+02 3.637E+02 1.721E+01 6.369E+02 6.394E+02 3.893E+05 19.3097 1.00000
  4.500E+07 4.500E+07 2.508E+00 2.882E+02 4.094E+02 1.961E+01 7.172E+02 7.197E+02 3.966E+05 19.5452 1.00000
  5.000E+07 5.000E+07 2.519E+00 3.205E+02 4.551E+02 2.203E+01 7.976E+02 8.001E+02 4.032E+05 19.7559 1.00000
  5.500E+07 5.500E+07 2.529E+00 3.528E+02 5.007E+02 2.448E+01 8.780E+02 8.805E+02 4.092E+05 19.9466 1.00000
  6.000E+07 6.000E+07 2.538E+00 3.850E+02 5.464E+02 2.696E+01 9.584E+02 9.609E+02 4.146E+05 20.1206 1.00000
  7.000E+07 7.000E+07 2.553E+00 4.496E+02 6.378E+02 3.198E+01 1.119E+03 1.122E+03 4.243E+05 20.4289 1.00000
  8.000E+07 8.000E+07 2.567E+00 5.142E+02 7.291E+02 3.708E+01 1.280E+03 1.283E+03 4.327E+05 20.6960 1.00000
  9.000E+07 9.000E+07 2.579E+00 5.788E+02 8.205E+02 4.226E+01 1.442E+03 1.444E+03 4.400E+05 20.9315 1.00000
  1.000E+08 1.000E+08 2.590E+00 6.434E+02 9.118E+02 4.750E+01 1.603E+03 1.605E+03 4.466E+05 21.1422 1.00000
  1.200E+08 1.200E+08 2.610E+00 7.727E+02 1.095E+03 5.815E+01 1.925E+03 1.928E+03 4.580E+05 21.5069 1.00000
  1.400E+08 1.400E+08 2.626E+00 9.019E+02 1.277E+03 6.900E+01 2.248E+03 2.251E+03 4.676E+05 21.8152 1.00000
  1.700E+08 1.700E+08 2.647E+00 1.096E+03 1.551E+03 8.562E+01 2.733E+03 2.736E+03 4.798E+05 22.2035 1.00000
  2.000E+08 2.000E+08 2.664E+00 1.290E+03 1.826E+03 1.026E+02 3.218E+03 3.221E+03 4.899E+05 22.5285 1.00000
  2.500E+08 2.500E+08 2.688E+00 1.613E+03 2.282E+03 1.315E+02 4.027E+03 4.030E+03 5.039E+05 22.9748 1.00000
  3.000E+08 3.000E+08 2.708E+00 1.936E+03 2.739E+03 1.610E+02 4.837E+03 4.840E+03 5.153E+05 23.3395 1.00000
  3.500E+08 3.500E+08 2.725E+00 2.260E+03 3.196E+03 1.912E+02 5.647E+03 5.650E+03 5.249E+05 23.6478 1.00000
  4.000E+08 4.000E+08 2.740E+00 2.583E+03 3.653E+03 2.219E+02 6.458E+03 6.461E+03 5.331E+05 23.9148 1.00000
  4.500E+08 4.500E+08 2.754E+00 2.906E+03 4.110E+03 2.530E+02 7.269E+03 7.272E+03 5.405E+05 24.1504 1.00000
  5.000E+08 5.000E+08 2.765E+00 3.230E+03 4.567E+03 2.845E+02 8.081E+03 8.084E+03 5.470E+05 24.3611 1.00000
  5.500E+08 5.500E+08 2.776E+00 3.553E+03 5.024E+03 3.164E+02 8.893E+03 8.896E+03 5.529E+05 24.5517 1.00000
  6.000E+08 6.000E+08 2.786E+00 3.876E+03 5.481E+03 3.486E+02 9.706E+03 9.708E+03 5.583E+05 24.7258 1.00000
  7.000E+08 7.000E+08 2.804E+00 4.523E+03 6.394E+03 4.140E+02 1.133E+04 1.133E+04 5.678E+05 25.0341 1.00000
  8.000E+08 8.000E+08 2.819E+00 5.170E+03 7.308E+03 4.805E+02 1.296E+04 1.296E+04 5.761E+05 25.3011 1.00000
  9.000E+08 9.000E+08 2.833E+00 5.816E+03 8.222E+03 5.480E+02 1.459E+04 1.459E+04 5.834E+05 25.5367 1.00000
  1.000E+09 1.000E+09 2.845E+00 6.463E+03 9.136E+03 6.164E+02 1.622E+04 1.622E+04 5.899E+05 25.7474 1.00000
