 Incident particle is a Muon with M = 105.65839 MeV
 Index = 0: Mercury
      Absorber with <Z/A> = 0.39882
 Sternheimer coef:  a     k=m_s   x_0    x_1    I[eV]   Cbar  delta0
                 0.1101  3.0519  0.2756  3.7275  800.0  5.9605 0.14

 *** Table generated with PUMAS v1.00 ***

      T         p     Ionization  brems     pair     photonuc  Radloss    dE/dx   CSDA Range  delta   beta
    [MeV]    [MeV/c]  -----------------------[MeV cm^2/g]------------------------  [g/cm^2]
  1.000E+00 1.457E+01 2.078E+01 5.483E-06 0.000E+00 0.000E+00 5.483E-06 2.078E+01 2.406E-02  0.0007 0.13661
  1.200E+00 1.597E+01 1.835E+01 6.296E-06 0.000E+00 0.000E+00 6.296E-06 1.835E+01 3.433E-02  0.0009 0.14944
  1.400E+00 1.726E+01 1.648E+01 7.065E-06 0.000E+00 0.000E+00 7.065E-06 1.648E+01 4.584E-02  0.0010 0.16119
  1.700E+00 1.903E+01 1.437E+01 8.152E-06 0.000E+00 0.000E+00 8.152E-06 1.437E+01 6.538E-02  0.0013 0.17725
  2.000E+00 2.066E+01 1.280E+01 9.172E-06 0.000E+00 0.000E+00 9.172E-06 1.280E+01 8.754E-02  0.0015 0.19186
  2.500E+00 2.312E+01 1.089E+01 1.075E-05 0.000E+00 0.000E+00 1.075E-05 1.089E+01 1.300E-01  0.0019 0.21376
  3.000E+00 2.536E+01 9.530E+00 1.221E-05 0.000E+00 0.000E+00 1.221E-05 9.530E+00 1.792E-01  0.0023 0.23336
  3.500E+00 2.742E+01 8.512E+00 1.357E-05 0.000E+00 0.000E+00 1.357E-05 8.512E+00 2.348E-01  0.0027 0.25120
  4.000E+00 2.935E+01 7.716E+00 1.485E-05 0.000E+00 0.000E+00 1.485E-05 7.716E+00 2.966E-01  0.0030 0.26763
  4.500E+00 3.116E+01 7.076E+00 1.606E-05 0.000E+00 0.000E+00 1.606E-05 7.076E+00 3.643E-01  0.0034 0.28290
  5.000E+00 3.289E+01 6.549E+00 1.720E-05 0.000E+00 0.000E+00 1.720E-05 6.549E+00 4.378E-01  0.0038 0.29720
  5.500E+00 3.453E+01 6.107E+00 1.830E-05 0.000E+00 0.000E+00 1.830E-05 6.107E+00 5.170E-01  0.0042 0.31066
  6.000E+00 3.611E+01 5.730E+00 1.935E-05 0.000E+00 0.000E+00 1.935E-05 5.730E+00 6.015E-01  0.0046 0.32339
  7.000E+00 3.909E+01 5.122E+00 2.133E-05 0.000E+00 0.000E+00 2.133E-05 5.122E+00 7.864E-01  0.0054 0.34700
  8.000E+00 4.189E+01 4.651E+00 2.318E-05 0.000E+00 0.000E+00 2.318E-05 4.651E+00 9.915E-01  0.0062 0.36854
  9.000E+00 4.453E+01 4.275E+00 2.492E-05 0.000E+00 0.000E+00 2.492E-05 4.275E+00 1.216E+00  0.0070 0.38836
  1.000E+01 4.704E+01 3.967E+00 2.656E-05 0.000E+00 0.000E+00 2.656E-05 3.967E+00 1.459E+00  0.0078 0.40675
  1.200E+01 5.177E+01 3.494E+00 2.962E-05 0.000E+00 0.000E+00 2.962E-05 3.494E+00 1.997E+00  0.0094 0.43998
  1.400E+01 5.616E+01 3.145E+00 3.245E-05 0.000E+00 0.000E+00 3.245E-05 3.145E+00 2.601E+00  0.0111 0.46937
  1.700E+01 6.230E+01 2.766E+00 3.636E-05 0.000E+00 0.000E+00 3.636E-05 2.766E+00 3.621E+00  0.0137 0.50792
  2.000E+01 6.802E+01 2.493E+00 3.998E-05 0.000E+00 0.000E+00 3.998E-05 2.493E+00 4.765E+00  0.0163 0.54129
  2.500E+01 7.686E+01 2.178E+00 4.558E-05 0.000E+00 0.000E+00 4.558E-05 2.178E+00 6.915E+00  0.0208 0.58827
  3.000E+01 8.509E+01 1.964E+00 5.083E-05 0.000E+00 0.000E+00 5.083E-05 1.964E+00 9.336E+00  0.0255 0.62720
  3.500E+01 9.285E+01 1.809E+00 5.585E-05 0.000E+00 0.000E+00 5.585E-05 1.809E+00 1.199E+01  0.0304 0.66011
  4.000E+01 1.003E+02 1.693E+00 6.074E-05 0.000E+00 0.000E+00 6.074E-05 1.693E+00 1.485E+01  0.0354 0.68834
  4.500E+01 1.074E+02 1.603E+00 6.555E-05 0.000E+00 0.000E+00 6.555E-05 1.603E+00 1.789E+01  0.0407 0.71286
  5.000E+01 1.143E+02 1.531E+00 7.031E-05 0.000E+00 0.000E+00 7.031E-05 1.531E+00 2.108E+01  0.0461 0.73434
  5.500E+01 1.210E+02 1.473E+00 7.506E-05 0.000E+00 0.000E+00 7.506E-05 1.473E+00 2.441E+01  0.0516 0.75332
  6.000E+01 1.276E+02 1.425E+00 7.980E-05 0.000E+00 0.000E+00 7.980E-05 1.425E+00 2.786E+01  0.0574 0.77019
  7.000E+01 1.403E+02 1.351E+00 8.934E-05 0.000E+00 0.000E+00 8.934E-05 1.351E+00 3.507E+01  0.0694 0.79887
  8.000E+01 1.527E+02 1.298E+00 9.901E-05 0.000E+00 0.000E+00 9.901E-05 1.298E+00 4.263E+01  0.0821 0.82227
  9.000E+01 1.647E+02 1.258E+00 1.088E-04 0.000E+00 0.000E+00 1.088E-04 1.258E+00 5.045E+01  0.0956 0.84166
  1.000E+02 1.764E+02 1.228E+00 1.189E-04 0.000E+00 0.000E+00 1.189E-04 1.228E+00 5.850E+01  0.1097 0.85794
  1.200E+02 1.994E+02 1.187E+00 1.396E-04 0.000E+00 0.000E+00 1.396E-04 1.187E+00 7.507E+01  0.1381 0.88361
  1.400E+02 2.218E+02 1.162E+00 1.611E-04 0.000E+00 0.000E+00 1.611E-04 1.162E+00 9.210E+01  0.1563 0.90278
  1.700E+02 2.546E+02 1.142E+00 1.950E-04 0.000E+00 0.000E+00 1.950E-04 1.142E+00 1.181E+02  0.1879 0.92363
  2.000E+02 2.868E+02 1.133E+00 2.309E-04 0.000E+00 0.000E+00 2.309E-04 1.134E+00 1.445E+02  0.2223 0.93835
  2.500E+02 3.396E+02 1.132E+00 2.945E-04 0.000E+00 0.000E+00 2.945E-04 1.132E+00 1.886E+02  0.2821 0.95485
  3.000E+02 3.917E+02 1.137E+00 3.627E-04 0.000E+00 0.000E+00 3.627E-04 1.138E+00 2.327E+02  0.3424 0.96548
  3.500E+02 4.432E+02 1.147E+00 4.351E-04 0.000E+00 0.000E+00 4.351E-04 1.147E+00 2.765E+02  0.4020 0.97274
  4.000E+02 4.945E+02 1.158E+00 5.113E-04 0.000E+00 0.000E+00 5.113E-04 1.158E+00 3.199E+02  0.4602 0.97793
  4.500E+02 5.455E+02 1.169E+00 5.911E-04 0.000E+00 0.000E+00 5.911E-04 1.169E+00 3.628E+02  0.5166 0.98176
  5.000E+02 5.964E+02 1.180E+00 6.742E-04 7.260E-05 0.000E+00 7.468E-04 1.181E+00 4.054E+02  0.5714 0.98467
  5.500E+02 6.471E+02 1.191E+00 7.603E-04 1.079E-04 0.000E+00 8.682E-04 1.192E+00 4.475E+02  0.6243 0.98693
  6.000E+02 6.977E+02 1.202E+00 8.494E-04 1.442E-04 0.000E+00 9.936E-04 1.203E+00 4.893E+02  0.6756 0.98873
  7.000E+02 7.987E+02 1.222E+00 1.036E-03 2.291E-04 0.000E+00 1.265E-03 1.224E+00 5.717E+02  0.7733 0.99136
  8.000E+02 8.995E+02 1.241E+00 1.232E-03 3.307E-04 0.000E+00 1.562E-03 1.243E+00 6.528E+02  0.8651 0.99317
  9.000E+02 1.000E+03 1.258E+00 1.436E-03 4.482E-04 0.000E+00 1.885E-03 1.260E+00 7.327E+02  0.9516 0.99447
  1.000E+03 1.101E+03 1.274E+00 1.650E-03 5.805E-04 0.000E+00 2.230E-03 1.276E+00 8.116E+02  1.0333 0.99542
  1.200E+03 1.301E+03 1.302E+00 2.098E-03 8.863E-04 2.245E-05 3.006E-03 1.305E+00 9.666E+02  1.1845 0.99672
  1.400E+03 1.502E+03 1.326E+00 2.572E-03 1.242E-03 6.084E-05 3.875E-03 1.330E+00 1.118E+03  1.3219 0.99753
  1.700E+03 1.803E+03 1.356E+00 3.325E-03 1.859E-03 1.288E-04 5.313E-03 1.361E+00 1.341E+03  1.5072 0.99829
  2.000E+03 2.103E+03 1.382E+00 4.122E-03 2.565E-03 2.076E-04 6.895E-03 1.389E+00 1.560E+03  1.6727 0.99874
  2.500E+03 2.604E+03 1.417E+00 5.534E-03 3.911E-03 3.579E-04 9.802E-03 1.427E+00 1.915E+03  1.9147 0.99918
  3.000E+03 3.104E+03 1.445E+00 7.033E-03 5.438E-03 5.132E-04 1.298E-02 1.458E+00 2.262E+03  2.1248 0.99942
  3.500E+03 3.604E+03 1.468E+00 8.605E-03 7.122E-03 6.758E-04 1.640E-02 1.485E+00 2.601E+03  2.3109 0.99957
  4.000E+03 4.104E+03 1.489E+00 1.024E-02 8.950E-03 8.482E-04 2.004E-02 1.509E+00 2.936E+03  2.4782 0.99967
  4.500E+03 4.604E+03 1.506E+00 1.193E-02 1.091E-02 1.026E-03 2.387E-02 1.530E+00 3.265E+03  2.6303 0.99974
  5.000E+03 5.105E+03 1.521E+00 1.368E-02 1.297E-02 1.196E-03 2.784E-02 1.549E+00 3.589E+03  2.7698 0.99979
  5.500E+03 5.605E+03 1.535E+00 1.547E-02 1.513E-02 1.379E-03 3.198E-02 1.567E+00 3.910E+03  2.8988 0.99982
  6.000E+03 6.105E+03 1.548E+00 1.730E-02 1.739E-02 1.548E-03 3.623E-02 1.584E+00 4.228E+03  3.0189 0.99985
  7.000E+03 7.105E+03 1.569E+00 2.107E-02 2.214E-02 1.905E-03 4.511E-02 1.614E+00 4.853E+03  3.2367 0.99989
  8.000E+03 8.105E+03 1.588E+00 2.497E-02 2.717E-02 2.258E-03 5.440E-02 1.642E+00 5.467E+03  3.4306 0.99992
  9.000E+03 9.105E+03 1.603E+00 2.899E-02 3.245E-02 2.588E-03 6.403E-02 1.667E+00 6.072E+03  3.6054 0.99993
  1.000E+04 1.011E+04 1.617E+00 3.311E-02 3.795E-02 2.927E-03 7.399E-02 1.691E+00 6.667E+03  3.7648 0.99995
  1.200E+04 1.211E+04 1.641E+00 4.162E-02 4.953E-02 3.611E-03 9.476E-02 1.735E+00 7.835E+03  4.0470 0.99996
  1.400E+04 1.411E+04 1.660E+00 5.044E-02 6.174E-02 4.293E-03 1.165E-01 1.776E+00 8.974E+03  4.2916 0.99997
  1.700E+04 1.711E+04 1.683E+00 6.413E-02 8.107E-02 5.299E-03 1.505E-01 1.834E+00 1.064E+04  4.6071 0.99998
  2.000E+04 2.011E+04 1.702E+00 7.830E-02 1.014E-01 6.280E-03 1.860E-01 1.888E+00 1.225E+04  4.8774 0.99999
  2.500E+04 2.511E+04 1.728E+00 1.028E-01 1.369E-01 7.882E-03 2.476E-01 1.975E+00 1.484E+04  5.2569 0.99999
  3.000E+04 3.011E+04 1.747E+00 1.281E-01 1.742E-01 9.447E-03 3.118E-01 2.059E+00 1.732E+04  5.5739 0.99999
  3.500E+04 3.511E+04 1.764E+00 1.542E-01 2.129E-01 1.102E-02 3.781E-01 2.142E+00 1.970E+04  5.8463 1.00000
  4.000E+04 4.011E+04 1.777E+00 1.809E-01 2.527E-01 1.257E-02 4.462E-01 2.223E+00 2.199E+04  6.0855 1.00000
  4.500E+04 4.511E+04 1.789E+00 2.081E-01 2.934E-01 1.410E-02 5.156E-01 2.305E+00 2.420E+04  6.2987 1.00000
  5.000E+04 5.011E+04 1.799E+00 2.357E-01 3.350E-01 1.563E-02 5.863E-01 2.386E+00 2.633E+04  6.4912 1.00000
  5.500E+04 5.511E+04 1.809E+00 2.637E-01 3.772E-01 1.716E-02 6.581E-01 2.467E+00 2.839E+04  6.6667 1.00000
  6.000E+04 6.011E+04 1.817E+00 2.921E-01 4.200E-01 1.867E-02 7.308E-01 2.548E+00 3.039E+04  6.8279 1.00000
  7.000E+04 7.011E+04 1.831E+00 3.498E-01 5.072E-01 2.167E-02 8.788E-01 2.710E+00 3.420E+04  7.1160 1.00000
  8.000E+04 8.011E+04 1.844E+00 4.086E-01 5.962E-01 2.467E-02 1.030E+00 2.873E+00 3.778E+04  7.3678 1.00000
  9.000E+04 9.011E+04 1.854E+00 4.683E-01 6.866E-01 2.767E-02 1.183E+00 3.037E+00 4.117E+04  7.5916 1.00000
  1.000E+05 1.001E+05 1.864E+00 5.289E-01 7.783E-01 3.060E-02 1.338E+00 3.201E+00 4.438E+04  7.7930 1.00000
  1.200E+05 1.201E+05 1.880E+00 6.519E-01 9.645E-01 3.657E-02 1.653E+00 3.533E+00 5.033E+04  8.1440 1.00000
  1.400E+05 1.401E+05 1.893E+00 7.771E-01 1.154E+00 4.252E-02 1.974E+00 3.866E+00 5.575E+04  8.4431 1.00000
  1.700E+05 1.701E+05 1.909E+00 9.683E-01 1.443E+00 5.145E-02 2.462E+00 4.372E+00 6.306E+04  8.8225 1.00000
  2.000E+05 2.001E+05 1.923E+00 1.163E+00 1.735E+00 6.040E-02 2.959E+00 4.882E+00 6.956E+04  9.1419 1.00000
  2.500E+05 2.501E+05 1.942E+00 1.492E+00 2.230E+00 7.535E-02 3.798E+00 5.740E+00 7.904E+04  9.5830 1.00000
  3.000E+05 3.001E+05 1.957E+00 1.827E+00 2.731E+00 9.039E-02 4.649E+00 6.606E+00 8.718E+04  9.9450 1.00000
  3.500E+05 3.501E+05 1.969E+00 2.167E+00 3.237E+00 1.056E-01 5.510E+00 7.479E+00 9.431E+04 10.2520 1.00000
  4.000E+05 4.001E+05 1.980E+00 2.509E+00 3.747E+00 1.209E-01 6.377E+00 8.357E+00 1.006E+05 10.5184 1.00000
  4.500E+05 4.501E+05 1.990E+00 2.855E+00 4.259E+00 1.362E-01 7.250E+00 9.240E+00 1.063E+05 10.7536 1.00000
  5.000E+05 5.001E+05 1.999E+00 3.203E+00 4.774E+00 1.516E-01 8.128E+00 1.013E+01 1.115E+05 10.9642 1.00000
  5.500E+05 5.501E+05 2.006E+00 3.552E+00 5.291E+00 1.670E-01 9.010E+00 1.102E+01 1.163E+05 11.1548 1.00000
  6.000E+05 6.001E+05 2.014E+00 3.904E+00 5.809E+00 1.824E-01 9.896E+00 1.191E+01 1.206E+05 11.3288 1.00000
  7.000E+05 7.001E+05 2.026E+00 4.612E+00 6.850E+00 2.134E-01 1.168E+01 1.370E+01 1.285E+05 11.6371 1.00000
  8.000E+05 8.001E+05 2.037E+00 5.325E+00 7.896E+00 2.448E-01 1.347E+01 1.550E+01 1.353E+05 11.9041 1.00000
  9.000E+05 9.001E+05 2.047E+00 6.042E+00 8.945E+00 2.765E-01 1.526E+01 1.731E+01 1.415E+05 12.1396 1.00000
  1.000E+06 1.000E+06 2.056E+00 6.762E+00 9.997E+00 3.085E-01 1.707E+01 1.912E+01 1.470E+05 12.3503 1.00000
  1.200E+06 1.200E+06 2.071E+00 8.211E+00 1.211E+01 3.731E-01 2.069E+01 2.276E+01 1.566E+05 12.7149 1.00000
  1.400E+06 1.400E+06 2.084E+00 9.669E+00 1.423E+01 4.387E-01 2.433E+01 2.642E+01 1.648E+05 13.0232 1.00000
  1.700E+06 1.700E+06 2.101E+00 1.187E+01 1.741E+01 5.385E-01 2.982E+01 3.192E+01 1.751E+05 13.4115 1.00000
  2.000E+06 2.000E+06 2.114E+00 1.408E+01 2.061E+01 6.399E-01 3.533E+01 3.744E+01 1.838E+05 13.7365 1.00000
  2.500E+06 2.500E+06 2.134E+00 1.778E+01 2.595E+01 8.120E-01 4.455E+01 4.668E+01 1.959E+05 14.1828 1.00000
  3.000E+06 3.000E+06 2.149E+00 2.150E+01 3.130E+01 9.874E-01 5.379E+01 5.594E+01 2.057E+05 14.5474 1.00000
  3.500E+06 3.500E+06 2.163E+00 2.524E+01 3.666E+01 1.166E+00 6.307E+01 6.523E+01 2.140E+05 14.8557 1.00000
  4.000E+06 4.000E+06 2.175E+00 2.898E+01 4.203E+01 1.346E+00 7.236E+01 7.453E+01 2.212E+05 15.1227 1.00000
  4.500E+06 4.500E+06 2.185E+00 3.273E+01 4.740E+01 1.529E+00 8.167E+01 8.385E+01 2.275E+05 15.3583 1.00000
  5.000E+06 5.000E+06 2.194E+00 3.649E+01 5.278E+01 1.714E+00 9.098E+01 9.318E+01 2.332E+05 15.5690 1.00000
  5.500E+06 5.500E+06 2.203E+00 4.025E+01 5.816E+01 1.901E+00 1.003E+02 1.025E+02 2.383E+05 15.7596 1.00000
  6.000E+06 6.000E+06 2.211E+00 4.402E+01 6.355E+01 2.090E+00 1.097E+02 1.119E+02 2.430E+05 15.9337 1.00000
  7.000E+06 7.000E+06 2.224E+00 5.156E+01 7.432E+01 2.471E+00 1.284E+02 1.306E+02 2.513E+05 16.2419 1.00000
  8.000E+06 8.000E+06 2.236E+00 5.912E+01 8.510E+01 2.859E+00 1.471E+02 1.493E+02 2.585E+05 16.5090 1.00000
  9.000E+06 9.000E+06 2.247E+00 6.668E+01 9.589E+01 3.251E+00 1.658E+02 1.681E+02 2.648E+05 16.7446 1.00000
  1.000E+07 1.000E+07 2.257E+00 7.425E+01 1.067E+02 3.648E+00 1.846E+02 1.868E+02 2.704E+05 16.9553 1.00000
  1.200E+07 1.200E+07 2.274E+00 8.942E+01 1.283E+02 4.455E+00 2.221E+02 2.244E+02 2.802E+05 17.3199 1.00000
  1.400E+07 1.400E+07 2.288E+00 1.046E+02 1.499E+02 5.276E+00 2.597E+02 2.620E+02 2.885E+05 17.6282 1.00000
  1.700E+07 1.700E+07 2.306E+00 1.274E+02 1.823E+02 6.530E+00 3.162E+02 3.185E+02 2.989E+05 18.0165 1.00000
  2.000E+07 2.000E+07 2.321E+00 1.502E+02 2.147E+02 7.809E+00 3.727E+02 3.750E+02 3.077E+05 18.3416 1.00000
  2.500E+07 2.500E+07 2.342E+00 1.883E+02 2.688E+02 9.985E+00 4.670E+02 4.694E+02 3.196E+05 18.7879 1.00000
  3.000E+07 3.000E+07 2.360E+00 2.263E+02 3.229E+02 1.221E+01 5.614E+02 5.638E+02 3.294E+05 19.1525 1.00000
  3.500E+07 3.500E+07 2.375E+00 2.644E+02 3.770E+02 1.447E+01 6.559E+02 6.583E+02 3.376E+05 19.4608 1.00000
  4.000E+07 4.000E+07 2.388E+00 3.026E+02 4.311E+02 1.678E+01 7.504E+02 7.528E+02 3.448E+05 19.7279 1.00000
  4.500E+07 4.500E+07 2.399E+00 3.407E+02 4.852E+02 1.911E+01 8.450E+02 8.474E+02 3.510E+05 19.9634 1.00000
  5.000E+07 5.000E+07 2.410E+00 3.788E+02 5.393E+02 2.147E+01 9.396E+02 9.420E+02 3.566E+05 20.1741 1.00000
  5.500E+07 5.500E+07 2.419E+00 4.170E+02 5.934E+02 2.386E+01 1.034E+03 1.037E+03 3.617E+05 20.3648 1.00000
  6.000E+07 6.000E+07 2.428E+00 4.551E+02 6.475E+02 2.627E+01 1.129E+03 1.131E+03 3.663E+05 20.5388 1.00000
  7.000E+07 7.000E+07 2.443E+00 5.315E+02 7.558E+02 3.117E+01 1.318E+03 1.321E+03 3.745E+05 20.8471 1.00000
  8.000E+07 8.000E+07 2.457E+00 6.078E+02 8.640E+02 3.614E+01 1.508E+03 1.510E+03 3.816E+05 21.1142 1.00000
  9.000E+07 9.000E+07 2.468E+00 6.841E+02 9.723E+02 4.118E+01 1.698E+03 1.700E+03 3.879E+05 21.3497 1.00000
  1.000E+08 1.000E+08 2.479E+00 7.605E+02 1.081E+03 4.629E+01 1.887E+03 1.890E+03 3.935E+05 21.5604 1.00000
  1.200E+08 1.200E+08 2.498E+00 9.132E+02 1.297E+03 5.667E+01 2.267E+03 2.269E+03 4.032E+05 21.9251 1.00000
  1.400E+08 1.400E+08 2.514E+00 1.066E+03 1.514E+03 6.725E+01 2.647E+03 2.649E+03 4.113E+05 22.2334 1.00000
  1.700E+08 1.700E+08 2.534E+00 1.295E+03 1.838E+03 8.344E+01 3.217E+03 3.220E+03 4.217E+05 22.6217 1.00000
  2.000E+08 2.000E+08 2.551E+00 1.524E+03 2.163E+03 9.996E+01 3.788E+03 3.790E+03 4.303E+05 22.9467 1.00000
  2.500E+08 2.500E+08 2.575E+00 1.906E+03 2.705E+03 1.281E+02 4.739E+03 4.742E+03 4.421E+05 23.3930 1.00000
  3.000E+08 3.000E+08 2.594E+00 2.288E+03 3.246E+03 1.569E+02 5.691E+03 5.694E+03 4.518E+05 23.7577 1.00000
  3.500E+08 3.500E+08 2.611E+00 2.670E+03 3.787E+03 1.863E+02 6.644E+03 6.647E+03 4.600E+05 24.0660 1.00000
  4.000E+08 4.000E+08 2.625E+00 3.053E+03 4.329E+03 2.162E+02 7.597E+03 7.600E+03 4.670E+05 24.3330 1.00000
  4.500E+08 4.500E+08 2.638E+00 3.435E+03 4.870E+03 2.465E+02 8.551E+03 8.554E+03 4.732E+05 24.5686 1.00000
  5.000E+08 5.000E+08 2.650E+00 3.817E+03 5.411E+03 2.772E+02 9.505E+03 9.508E+03 4.788E+05 24.7793 1.00000
  5.500E+08 5.500E+08 2.660E+00 4.199E+03 5.953E+03 3.083E+02 1.046E+04 1.046E+04 4.838E+05 24.9699 1.00000
  6.000E+08 6.000E+08 2.670E+00 4.581E+03 6.494E+03 3.397E+02 1.141E+04 1.142E+04 4.884E+05 25.1440 1.00000
  7.000E+08 7.000E+08 2.687E+00 5.345E+03 7.577E+03 4.034E+02 1.333E+04 1.333E+04 4.965E+05 25.4523 1.00000
  8.000E+08 8.000E+08 2.702E+00 6.109E+03 8.659E+03 4.683E+02 1.524E+04 1.524E+04 5.035E+05 25.7193 1.00000
  9.000E+08 9.000E+08 2.715E+00 6.873E+03 9.742E+03 5.340E+02 1.715E+04 1.715E+04 5.097E+05 25.9549 1.00000
  1.000E+09 1.000E+09 2.727E+00 7.638E+03 1.082E+04 6.007E+02 1.906E+04 1.907E+04 5.153E+05 26.1656 1.00000
