 Incident particle is a Muon with M = 105.65839 MeV
 Index = 0: Methane
      Absorber with <Z/A> = 0.62315
 Sternheimer coef:  a     k=m_s   x_0    x_1    I[eV]   Cbar  delta0
                 0.0925  3.6257  1.6263  3.9716   41.7  9.5243 0.00

 *** Table generated with PUMAS v1.00 ***

      T         p     Ionization  brems     pair     photonuc  Radloss    dE/dx   CSDA Range  delta   beta
    [MeV]    [MeV/c]  -----------------------[MeV cm^2/g]------------------------  [g/cm^2]
  1.000E+00 1.457E+01 6.276E+01 5.721E-07 0.000E+00 0.000E+00 5.721E-07 6.276E+01 7.967E-03  0.0000 0.13661
  1.200E+00 1.597E+01 5.398E+01 6.532E-07 0.000E+00 0.000E+00 6.532E-07 5.398E+01 1.141E-02  0.0000 0.14944
  1.400E+00 1.726E+01 4.752E+01 7.307E-07 0.000E+00 0.000E+00 7.307E-07 4.752E+01 1.537E-02  0.0000 0.16119
  1.700E+00 1.903E+01 4.045E+01 8.414E-07 0.000E+00 0.000E+00 8.414E-07 4.045E+01 2.223E-02  0.0000 0.17725
  2.000E+00 2.066E+01 3.535E+01 9.465E-07 0.000E+00 0.000E+00 9.465E-07 3.535E+01 3.019E-02  0.0000 0.19186
  2.500E+00 2.312E+01 2.939E+01 1.112E-06 0.000E+00 0.000E+00 1.112E-06 2.939E+01 4.576E-02  0.0000 0.21376
  3.000E+00 2.536E+01 2.528E+01 1.266E-06 0.000E+00 0.000E+00 1.266E-06 2.528E+01 6.416E-02  0.0000 0.23336
  3.500E+00 2.742E+01 2.226E+01 1.413E-06 0.000E+00 0.000E+00 1.413E-06 2.226E+01 8.528E-02  0.0000 0.25120
  4.000E+00 2.935E+01 1.995E+01 1.552E-06 0.000E+00 0.000E+00 1.552E-06 1.995E+01 1.090E-01  0.0000 0.26763
  4.500E+00 3.116E+01 1.812E+01 1.685E-06 0.000E+00 0.000E+00 1.685E-06 1.812E+01 1.354E-01  0.0000 0.28290
  5.000E+00 3.289E+01 1.664E+01 1.813E-06 0.000E+00 0.000E+00 1.813E-06 1.664E+01 1.642E-01  0.0000 0.29720
  5.500E+00 3.453E+01 1.540E+01 1.936E-06 0.000E+00 0.000E+00 1.936E-06 1.540E+01 1.954E-01  0.0000 0.31066
  6.000E+00 3.611E+01 1.436E+01 2.055E-06 0.000E+00 0.000E+00 2.055E-06 1.436E+01 2.291E-01  0.0000 0.32339
  7.000E+00 3.909E+01 1.270E+01 2.282E-06 0.000E+00 0.000E+00 2.282E-06 1.270E+01 3.033E-01  0.0000 0.34700
  8.000E+00 4.189E+01 1.143E+01 2.496E-06 0.000E+00 0.000E+00 2.496E-06 1.143E+01 3.864E-01  0.0000 0.36854
  9.000E+00 4.453E+01 1.043E+01 2.699E-06 0.000E+00 0.000E+00 2.699E-06 1.043E+01 4.780E-01  0.0000 0.38836
  1.000E+01 4.704E+01 9.620E+00 2.894E-06 0.000E+00 0.000E+00 2.894E-06 9.620E+00 5.779E-01  0.0000 0.40675
  1.200E+01 5.177E+01 8.383E+00 3.260E-06 0.000E+00 0.000E+00 3.260E-06 8.383E+00 8.011E-01  0.0000 0.43998
  1.400E+01 5.616E+01 7.485E+00 3.602E-06 0.000E+00 0.000E+00 3.602E-06 7.485E+00 1.054E+00  0.0000 0.46937
  1.700E+01 6.230E+01 6.517E+00 4.081E-06 0.000E+00 0.000E+00 4.081E-06 6.517E+00 1.485E+00  0.0000 0.50792
  2.000E+01 6.802E+01 5.830E+00 4.527E-06 0.000E+00 0.000E+00 4.527E-06 5.830E+00 1.972E+00  0.0000 0.54129
  2.500E+01 7.686E+01 5.042E+00 5.222E-06 0.000E+00 0.000E+00 5.222E-06 5.042E+00 2.897E+00  0.0000 0.58827
  3.000E+01 8.509E+01 4.511E+00 5.873E-06 0.000E+00 0.000E+00 5.873E-06 4.511E+00 3.947E+00  0.0000 0.62720
  3.500E+01 9.285E+01 4.131E+00 6.496E-06 0.000E+00 0.000E+00 6.496E-06 4.131E+00 5.106E+00  0.0000 0.66011
  4.000E+01 1.003E+02 3.845E+00 7.099E-06 0.000E+00 0.000E+00 7.099E-06 3.845E+00 6.361E+00  0.0000 0.68834
  4.500E+01 1.074E+02 3.624E+00 7.690E-06 0.000E+00 0.000E+00 7.690E-06 3.624E+00 7.701E+00  0.0000 0.71286
  5.000E+01 1.143E+02 3.448E+00 8.273E-06 0.000E+00 0.000E+00 8.273E-06 3.449E+00 9.116E+00  0.0000 0.73434
  5.500E+01 1.210E+02 3.306E+00 8.852E-06 0.000E+00 0.000E+00 8.852E-06 3.306E+00 1.060E+01  0.0000 0.75332
  6.000E+01 1.276E+02 3.188E+00 9.427E-06 0.000E+00 0.000E+00 9.427E-06 3.188E+00 1.214E+01  0.0000 0.77019
  7.000E+01 1.403E+02 3.007E+00 1.058E-05 0.000E+00 0.000E+00 1.058E-05 3.007E+00 1.537E+01  0.0000 0.79887
  8.000E+01 1.527E+02 2.875E+00 1.174E-05 0.000E+00 0.000E+00 1.174E-05 2.875E+00 1.877E+01  0.0000 0.82227
  9.000E+01 1.647E+02 2.776E+00 1.291E-05 0.000E+00 0.000E+00 1.291E-05 2.776E+00 2.231E+01  0.0000 0.84166
  1.000E+02 1.764E+02 2.701E+00 1.409E-05 0.000E+00 0.000E+00 1.409E-05 2.701E+00 2.596E+01  0.0000 0.85794
  1.200E+02 1.994E+02 2.595E+00 1.652E-05 0.000E+00 0.000E+00 1.652E-05 2.595E+00 3.352E+01  0.0000 0.88361
  1.400E+02 2.218E+02 2.528E+00 1.904E-05 0.000E+00 0.000E+00 1.904E-05 2.528E+00 4.133E+01  0.0000 0.90278
  1.700E+02 2.546E+02 2.468E+00 2.297E-05 3.309E-14 0.000E+00 2.297E-05 2.468E+00 5.334E+01  0.0000 0.92363
  2.000E+02 2.868E+02 2.437E+00 2.709E-05 7.386E-12 0.000E+00 2.709E-05 2.437E+00 6.557E+01  0.0000 0.93835
  2.500E+02 3.396E+02 2.418E+00 3.435E-05 6.085E-08 0.000E+00 3.441E-05 2.418E+00 8.617E+01  0.0000 0.95485
  3.000E+02 3.917E+02 2.419E+00 4.207E-05 5.299E-07 0.000E+00 4.260E-05 2.419E+00 1.068E+02  0.0000 0.96548
  3.500E+02 4.432E+02 2.430E+00 5.021E-05 1.451E-06 0.000E+00 5.166E-05 2.430E+00 1.275E+02  0.0000 0.97274
  4.000E+02 4.945E+02 2.446E+00 5.873E-05 2.802E-06 0.000E+00 6.154E-05 2.446E+00 1.480E+02  0.0000 0.97793
  4.500E+02 5.455E+02 2.464E+00 6.761E-05 4.567E-06 0.000E+00 7.218E-05 2.464E+00 1.684E+02  0.0000 0.98176
  5.000E+02 5.964E+02 2.483E+00 7.682E-05 6.731E-06 0.000E+00 8.355E-05 2.483E+00 1.886E+02  0.0000 0.98467
  5.500E+02 6.471E+02 2.503E+00 8.634E-05 9.281E-06 0.000E+00 9.562E-05 2.503E+00 2.086E+02  0.0000 0.98693
  6.000E+02 6.977E+02 2.522E+00 9.615E-05 1.220E-05 0.000E+00 1.083E-04 2.523E+00 2.285E+02  0.0000 0.98873
  7.000E+02 7.987E+02 2.560E+00 1.166E-04 1.911E-05 0.000E+00 1.357E-04 2.560E+00 2.679E+02  0.0000 0.99136
  8.000E+02 8.995E+02 2.596E+00 1.379E-04 2.737E-05 0.000E+00 1.653E-04 2.596E+00 3.067E+02  0.0000 0.99317
  9.000E+02 1.000E+03 2.629E+00 1.602E-04 3.689E-05 0.000E+00 1.971E-04 2.630E+00 3.449E+02  0.0000 0.99447
  1.000E+03 1.101E+03 2.661E+00 1.833E-04 4.759E-05 0.000E+00 2.309E-04 2.661E+00 3.827E+02  0.0000 0.99542
  1.200E+03 1.301E+03 2.717E+00 2.316E-04 7.228E-05 2.258E-05 3.264E-04 2.717E+00 4.571E+02  0.0000 0.99672
  1.400E+03 1.502E+03 2.767E+00 2.825E-04 1.010E-04 6.202E-05 4.455E-04 2.767E+00 5.301E+02  0.0000 0.99753
  1.700E+03 1.803E+03 2.831E+00 3.631E-04 1.506E-04 1.336E-04 6.473E-04 2.832E+00 6.372E+02  0.0000 0.99829
  2.000E+03 2.103E+03 2.886E+00 4.480E-04 2.074E-04 2.184E-04 8.739E-04 2.887E+00 7.422E+02  0.0000 0.99874
  2.500E+03 2.604E+03 2.963E+00 5.980E-04 3.157E-04 3.837E-04 1.297E-03 2.965E+00 9.131E+02  0.0000 0.99918
  3.000E+03 3.104E+03 3.027E+00 7.569E-04 4.387E-04 5.587E-04 1.754E-03 3.029E+00 1.080E+03  0.0000 0.99942
  3.500E+03 3.604E+03 3.082E+00 9.234E-04 5.744E-04 7.453E-04 2.243E-03 3.084E+00 1.244E+03  0.0000 0.99957
  4.000E+03 4.104E+03 3.129E+00 1.097E-03 7.387E-04 9.455E-04 2.781E-03 3.132E+00 1.404E+03  0.0000 0.99967
  4.500E+03 4.604E+03 3.169E+00 1.276E-03 9.207E-04 1.155E-03 3.351E-03 3.172E+00 1.563E+03  0.0184 0.99974
  5.000E+03 5.105E+03 3.199E+00 1.460E-03 1.114E-03 1.356E-03 3.930E-03 3.203E+00 1.720E+03  0.0893 0.99979
  5.500E+03 5.605E+03 3.226E+00 1.650E-03 1.317E-03 1.574E-03 4.541E-03 3.231E+00 1.875E+03  0.1595 0.99982
  6.000E+03 6.105E+03 3.251E+00 1.844E-03 1.530E-03 1.778E-03 5.152E-03 3.256E+00 2.030E+03  0.2283 0.99985
  7.000E+03 7.105E+03 3.292E+00 2.244E-03 1.981E-03 2.210E-03 6.435E-03 3.299E+00 2.335E+03  0.3614 0.99989
  8.000E+03 8.105E+03 3.327E+00 2.659E-03 2.463E-03 2.641E-03 7.763E-03 3.335E+00 2.636E+03  0.4876 0.99992
  9.000E+03 9.105E+03 3.357E+00 3.086E-03 2.971E-03 3.048E-03 9.106E-03 3.367E+00 2.935E+03  0.6070 0.99993
  1.000E+04 1.011E+04 3.384E+00 3.525E-03 3.504E-03 3.469E-03 1.050E-02 3.394E+00 3.230E+03  0.7201 0.99995
  1.200E+04 1.211E+04 3.427E+00 4.434E-03 4.632E-03 4.326E-03 1.339E-02 3.441E+00 3.816E+03  0.9289 0.99996
  1.400E+04 1.411E+04 3.463E+00 5.378E-03 5.832E-03 5.188E-03 1.640E-02 3.479E+00 4.394E+03  1.1180 0.99997
  1.700E+04 1.711E+04 3.505E+00 6.850E-03 7.747E-03 6.469E-03 2.107E-02 3.526E+00 5.250E+03  1.3714 0.99998
  2.000E+04 2.011E+04 3.539E+00 8.378E-03 9.776E-03 7.732E-03 2.589E-02 3.565E+00 6.096E+03  1.5957 0.99999
  2.500E+04 2.511E+04 3.584E+00 1.103E-02 1.336E-02 9.813E-03 3.421E-02 3.618E+00 7.489E+03  1.9205 0.99999
  3.000E+04 3.011E+04 3.618E+00 1.379E-02 1.716E-02 1.187E-02 4.282E-02 3.661E+00 8.863E+03  2.1992 0.99999
  3.500E+04 3.511E+04 3.646E+00 1.664E-02 2.114E-02 1.394E-02 5.172E-02 3.698E+00 1.022E+04  2.4434 1.00000
  4.000E+04 4.011E+04 3.670E+00 1.956E-02 2.525E-02 1.601E-02 6.082E-02 3.731E+00 1.157E+04  2.6609 1.00000
  4.500E+04 4.511E+04 3.690E+00 2.255E-02 2.949E-02 1.805E-02 7.009E-02 3.760E+00 1.290E+04  2.8570 1.00000
  5.000E+04 5.011E+04 3.707E+00 2.560E-02 3.384E-02 2.009E-02 7.953E-02 3.787E+00 1.423E+04  3.0356 1.00000
  5.500E+04 5.511E+04 3.723E+00 2.870E-02 3.828E-02 2.215E-02 8.913E-02 3.812E+00 1.554E+04  3.1996 1.00000
  6.000E+04 6.011E+04 3.737E+00 3.185E-02 4.281E-02 2.419E-02 9.885E-02 3.836E+00 1.685E+04  3.3513 1.00000
  7.000E+04 7.011E+04 3.761E+00 3.826E-02 5.209E-02 2.825E-02 1.186E-01 3.879E+00 1.944E+04  3.6242 1.00000
  8.000E+04 8.011E+04 3.781E+00 4.483E-02 6.162E-02 3.233E-02 1.388E-01 3.920E+00 2.201E+04  3.8647 1.00000
  9.000E+04 9.011E+04 3.799E+00 5.151E-02 7.137E-02 3.641E-02 1.593E-01 3.958E+00 2.455E+04  4.0797 1.00000
  1.000E+05 1.001E+05 3.814E+00 5.831E-02 8.130E-02 4.043E-02 1.800E-01 3.994E+00 2.706E+04  4.2741 1.00000
  1.200E+05 1.201E+05 3.840E+00 7.218E-02 1.016E-01 4.861E-02 2.224E-01 4.062E+00 3.203E+04  4.6148 1.00000
  1.400E+05 1.401E+05 3.861E+00 8.638E-02 1.225E-01 5.681E-02 2.656E-01 4.127E+00 3.691E+04  4.9067 1.00000
  1.700E+05 1.701E+05 3.888E+00 1.081E-01 1.545E-01 6.914E-02 3.317E-01 4.220E+00 4.410E+04  5.2786 1.00000
  2.000E+05 2.001E+05 3.910E+00 1.304E-01 1.872E-01 8.155E-02 3.991E-01 4.309E+00 5.114E+04  5.5931 1.00000
  2.500E+05 2.501E+05 3.939E+00 1.683E-01 2.429E-01 1.023E-01 5.135E-01 4.453E+00 6.256E+04  6.0288 1.00000
  3.000E+05 3.001E+05 3.963E+00 2.070E-01 2.998E-01 1.233E-01 6.301E-01 4.593E+00 7.361E+04  6.3876 1.00000
  3.500E+05 3.501E+05 3.983E+00 2.464E-01 3.575E-01 1.445E-01 7.485E-01 4.731E+00 8.434E+04  6.6924 1.00000
  4.000E+05 4.001E+05 4.000E+00 2.864E-01 4.160E-01 1.659E-01 8.683E-01 4.868E+00 9.476E+04  6.9574 1.00000
  4.500E+05 4.501E+05 4.015E+00 3.267E-01 4.750E-01 1.874E-01 9.892E-01 5.004E+00 1.049E+05  7.1916 1.00000
  5.000E+05 5.001E+05 4.029E+00 3.676E-01 5.345E-01 2.091E-01 1.111E+00 5.140E+00 1.147E+05  7.4016 1.00000
  5.500E+05 5.501E+05 4.041E+00 4.087E-01 5.944E-01 2.306E-01 1.234E+00 5.275E+00 1.244E+05  7.5917 1.00000
  6.000E+05 6.001E+05 4.052E+00 4.502E-01 6.546E-01 2.523E-01 1.357E+00 5.409E+00 1.337E+05  7.7654 1.00000
  7.000E+05 7.001E+05 4.072E+00 5.339E-01 7.760E-01 2.960E-01 1.606E+00 5.678E+00 1.518E+05  8.0733 1.00000
  8.000E+05 8.001E+05 4.089E+00 6.185E-01 8.983E-01 3.403E-01 1.857E+00 5.947E+00 1.690E+05  8.3403 1.00000
  9.000E+05 9.001E+05 4.105E+00 7.039E-01 1.021E+00 3.849E-01 2.110E+00 6.215E+00 1.854E+05  8.5758 1.00000
  1.000E+06 1.000E+06 4.119E+00 7.899E-01 1.145E+00 4.300E-01 2.365E+00 6.484E+00 2.012E+05  8.7865 1.00000
  1.200E+06 1.200E+06 4.142E+00 9.635E-01 1.394E+00 5.213E-01 2.879E+00 7.021E+00 2.309E+05  9.1511 1.00000
  1.400E+06 1.400E+06 4.163E+00 1.139E+00 1.645E+00 6.139E-01 3.397E+00 7.560E+00 2.583E+05  9.4594 1.00000
  1.700E+06 1.700E+06 4.188E+00 1.404E+00 2.023E+00 7.550E-01 4.182E+00 8.370E+00 2.961E+05  9.8477 1.00000
  2.000E+06 2.000E+06 4.210E+00 1.672E+00 2.403E+00 8.984E-01 4.973E+00 9.183E+00 3.303E+05 10.1727 1.00000
  2.500E+06 2.500E+06 4.240E+00 2.122E+00 3.040E+00 1.142E+00 6.304E+00 1.054E+01 3.813E+05 10.6190 1.00000
  3.000E+06 3.000E+06 4.265E+00 2.576E+00 3.680E+00 1.390E+00 7.646E+00 1.191E+01 4.260E+05 10.9836 1.00000
  3.500E+06 3.500E+06 4.286E+00 3.033E+00 4.321E+00 1.642E+00 8.997E+00 1.328E+01 4.658E+05 11.2919 1.00000
  4.000E+06 4.000E+06 4.304E+00 3.493E+00 4.965E+00 1.898E+00 1.036E+01 1.466E+01 5.017E+05 11.5589 1.00000
  4.500E+06 4.500E+06 4.320E+00 3.954E+00 5.609E+00 2.157E+00 1.172E+01 1.604E+01 5.343E+05 11.7945 1.00000
  5.000E+06 5.000E+06 4.335E+00 4.416E+00 6.255E+00 2.419E+00 1.309E+01 1.743E+01 5.642E+05 12.0052 1.00000
  5.500E+06 5.500E+06 4.348E+00 4.880E+00 6.901E+00 2.684E+00 1.447E+01 1.881E+01 5.919E+05 12.1958 1.00000
  6.000E+06 6.000E+06 4.360E+00 5.345E+00 7.549E+00 2.951E+00 1.584E+01 2.021E+01 6.175E+05 12.3699 1.00000
  7.000E+06 7.000E+06 4.382E+00 6.278E+00 8.845E+00 3.492E+00 1.861E+01 2.300E+01 6.640E+05 12.6781 1.00000
  8.000E+06 8.000E+06 4.401E+00 7.214E+00 1.014E+01 4.042E+00 2.140E+01 2.580E+01 7.051E+05 12.9452 1.00000
  9.000E+06 9.000E+06 4.417E+00 8.152E+00 1.144E+01 4.598E+00 2.419E+01 2.861E+01 7.420E+05 13.1808 1.00000
  1.000E+07 1.000E+07 4.432E+00 9.092E+00 1.274E+01 5.161E+00 2.700E+01 3.143E+01 7.754E+05 13.3915 1.00000
  1.200E+07 1.200E+07 4.459E+00 1.098E+01 1.534E+01 6.305E+00 3.263E+01 3.709E+01 8.342E+05 13.7561 1.00000
  1.400E+07 1.400E+07 4.481E+00 1.287E+01 1.795E+01 7.469E+00 3.829E+01 4.277E+01 8.845E+05 14.0644 1.00000
  1.700E+07 1.700E+07 4.509E+00 1.571E+01 2.186E+01 9.248E+00 4.682E+01 5.133E+01 9.488E+05 14.4527 1.00000
  2.000E+07 2.000E+07 4.533E+00 1.856E+01 2.578E+01 1.106E+01 5.540E+01 5.993E+01 1.003E+06 14.7778 1.00000
  2.500E+07 2.500E+07 4.566E+00 2.332E+01 3.231E+01 1.415E+01 6.977E+01 7.434E+01 1.078E+06 15.2241 1.00000
  3.000E+07 3.000E+07 4.594E+00 2.808E+01 3.884E+01 1.730E+01 8.423E+01 8.882E+01 1.140E+06 15.5887 1.00000
  3.500E+07 3.500E+07 4.617E+00 3.286E+01 4.538E+01 2.052E+01 9.875E+01 1.034E+02 1.193E+06 15.8970 1.00000
  4.000E+07 4.000E+07 4.637E+00 3.764E+01 5.192E+01 2.378E+01 1.133E+02 1.180E+02 1.238E+06 16.1641 1.00000
  4.500E+07 4.500E+07 4.655E+00 4.242E+01 5.846E+01 2.709E+01 1.280E+02 1.326E+02 1.278E+06 16.3996 1.00000
  5.000E+07 5.000E+07 4.671E+00 4.720E+01 6.500E+01 3.044E+01 1.426E+02 1.473E+02 1.314E+06 16.6103 1.00000
  5.500E+07 5.500E+07 4.686E+00 5.199E+01 7.154E+01 3.383E+01 1.574E+02 1.621E+02 1.346E+06 16.8010 1.00000
  6.000E+07 6.000E+07 4.700E+00 5.678E+01 7.809E+01 3.726E+01 1.721E+02 1.768E+02 1.376E+06 16.9750 1.00000
  7.000E+07 7.000E+07 4.724E+00 6.637E+01 9.117E+01 4.420E+01 2.017E+02 2.065E+02 1.428E+06 17.2833 1.00000
  8.000E+07 8.000E+07 4.745E+00 7.596E+01 1.043E+02 5.125E+01 2.315E+02 2.362E+02 1.474E+06 17.5504 1.00000
  9.000E+07 9.000E+07 4.763E+00 8.555E+01 1.174E+02 5.840E+01 2.613E+02 2.661E+02 1.514E+06 17.7859 1.00000
  1.000E+08 1.000E+08 4.780E+00 9.515E+01 1.305E+02 6.565E+01 2.913E+02 2.960E+02 1.549E+06 17.9966 1.00000
  1.200E+08 1.200E+08 4.809E+00 1.144E+02 1.566E+02 8.038E+01 3.514E+02 3.562E+02 1.611E+06 18.3613 1.00000
  1.400E+08 1.400E+08 4.834E+00 1.336E+02 1.828E+02 9.539E+01 4.118E+02 4.166E+02 1.663E+06 18.6696 1.00000
  1.700E+08 1.700E+08 4.866E+00 1.624E+02 2.221E+02 1.184E+02 5.029E+02 5.078E+02 1.729E+06 19.0579 1.00000
  2.000E+08 2.000E+08 4.892E+00 1.912E+02 2.614E+02 1.418E+02 5.945E+02 5.994E+02 1.783E+06 19.3829 1.00000
  2.500E+08 2.500E+08 4.929E+00 2.393E+02 3.269E+02 1.818E+02 7.480E+02 7.529E+02 1.858E+06 19.8292 1.00000
  3.000E+08 3.000E+08 4.960E+00 2.874E+02 3.924E+02 2.226E+02 9.025E+02 9.074E+02 1.919E+06 20.1939 1.00000
  3.500E+08 3.500E+08 4.986E+00 3.355E+02 4.579E+02 2.643E+02 1.058E+03 1.063E+03 1.970E+06 20.5022 1.00000
  4.000E+08 4.000E+08 5.008E+00 3.836E+02 5.234E+02 3.067E+02 1.214E+03 1.219E+03 2.014E+06 20.7692 1.00000
  4.500E+08 4.500E+08 5.028E+00 4.317E+02 5.889E+02 3.497E+02 1.370E+03 1.375E+03 2.053E+06 21.0048 1.00000
  5.000E+08 5.000E+08 5.046E+00 4.799E+02 6.544E+02 3.933E+02 1.528E+03 1.533E+03 2.087E+06 21.2155 1.00000
  5.500E+08 5.500E+08 5.063E+00 5.280E+02 7.199E+02 4.374E+02 1.685E+03 1.690E+03 2.118E+06 21.4061 1.00000
  6.000E+08 6.000E+08 5.078E+00 5.761E+02 7.854E+02 4.820E+02 1.843E+03 1.849E+03 2.147E+06 21.5802 1.00000
  7.000E+08 7.000E+08 5.105E+00 6.723E+02 9.164E+02 5.724E+02 2.161E+03 2.166E+03 2.197E+06 21.8885 1.00000
  8.000E+08 8.000E+08 5.128E+00 7.686E+02 1.047E+03 6.643E+02 2.480E+03 2.486E+03 2.240E+06 22.1555 1.00000
  9.000E+08 9.000E+08 5.149E+00 8.649E+02 1.178E+03 7.577E+02 2.801E+03 2.806E+03 2.278E+06 22.3911 1.00000
  1.000E+09 1.000E+09 5.168E+00 9.611E+02 1.309E+03 8.522E+02 3.123E+03 3.128E+03 2.312E+06 22.6018 1.00000
