 Incident particle is a Muon with M = 105.65839 MeV
 Index = 0: Methanol
      Absorber with <Z/A> = 0.56167
 Sternheimer coef:  a     k=m_s   x_0    x_1    I[eV]   Cbar  delta0
                 0.0897  3.5477  0.2529  2.7639   67.6  3.5160 0.00

 *** Table generated with PUMAS v1.00 ***

      T         p     Ionization  brems     pair     photonuc  Radloss    dE/dx   CSDA Range  delta   beta
    [MeV]    [MeV/c]  -----------------------[MeV cm^2/g]------------------------  [g/cm^2]
  1.000E+00 1.457E+01 5.210E+01 7.103E-07 0.000E+00 0.000E+00 7.103E-07 5.210E+01 9.597E-03  0.0000 0.13661
  1.200E+00 1.597E+01 4.493E+01 8.133E-07 0.000E+00 0.000E+00 8.133E-07 4.493E+01 1.374E-02  0.0000 0.14944
  1.400E+00 1.726E+01 3.962E+01 9.117E-07 0.000E+00 0.000E+00 9.117E-07 3.962E+01 1.849E-02  0.0000 0.16119
  1.700E+00 1.903E+01 3.381E+01 1.052E-06 0.000E+00 0.000E+00 1.052E-06 3.381E+01 2.671E-02  0.0000 0.17725
  2.000E+00 2.066E+01 2.960E+01 1.185E-06 0.000E+00 0.000E+00 1.185E-06 2.960E+01 3.622E-02  0.0000 0.19186
  2.500E+00 2.312E+01 2.466E+01 1.394E-06 0.000E+00 0.000E+00 1.394E-06 2.466E+01 5.480E-02  0.0000 0.21376
  3.000E+00 2.536E+01 2.125E+01 1.590E-06 0.000E+00 0.000E+00 1.590E-06 2.125E+01 7.670E-02  0.0000 0.23336
  3.500E+00 2.742E+01 1.875E+01 1.774E-06 0.000E+00 0.000E+00 1.774E-06 1.875E+01 1.018E-01  0.0000 0.25120
  4.000E+00 2.935E+01 1.682E+01 1.950E-06 0.000E+00 0.000E+00 1.950E-06 1.682E+01 1.300E-01  0.0000 0.26763
  4.500E+00 3.116E+01 1.529E+01 2.117E-06 0.000E+00 0.000E+00 2.117E-06 1.529E+01 1.612E-01  0.0000 0.28290
  5.000E+00 3.289E+01 1.405E+01 2.278E-06 0.000E+00 0.000E+00 2.278E-06 1.405E+01 1.953E-01  0.0000 0.29720
  5.500E+00 3.453E+01 1.302E+01 2.432E-06 0.000E+00 0.000E+00 2.432E-06 1.302E+01 2.323E-01  0.0000 0.31066
  6.000E+00 3.611E+01 1.215E+01 2.582E-06 0.000E+00 0.000E+00 2.582E-06 1.215E+01 2.721E-01  0.0000 0.32339
  7.000E+00 3.909E+01 1.076E+01 2.866E-06 0.000E+00 0.000E+00 2.866E-06 1.076E+01 3.598E-01  0.0000 0.34700
  8.000E+00 4.189E+01 9.692E+00 3.134E-06 0.000E+00 0.000E+00 3.134E-06 9.692E+00 4.578E-01  0.0000 0.36854
  9.000E+00 4.453E+01 8.850E+00 3.388E-06 0.000E+00 0.000E+00 3.388E-06 8.850E+00 5.659E-01  0.0000 0.38836
  1.000E+01 4.704E+01 8.167E+00 3.631E-06 0.000E+00 0.000E+00 3.631E-06 8.167E+00 6.836E-01  0.0000 0.40675
  1.200E+01 5.177E+01 7.126E+00 4.088E-06 0.000E+00 0.000E+00 4.088E-06 7.126E+00 9.464E-01  0.0000 0.43998
  1.400E+01 5.616E+01 6.368E+00 4.514E-06 0.000E+00 0.000E+00 4.514E-06 6.368E+00 1.244E+00  0.0000 0.46937
  1.700E+01 6.230E+01 5.551E+00 5.109E-06 0.000E+00 0.000E+00 5.109E-06 5.551E+00 1.750E+00  0.0000 0.50792
  2.000E+01 6.802E+01 4.971E+00 5.664E-06 0.000E+00 0.000E+00 5.664E-06 4.971E+00 2.321E+00  0.0000 0.54129
  2.500E+01 7.686E+01 4.304E+00 6.525E-06 0.000E+00 0.000E+00 6.525E-06 4.304E+00 3.405E+00  0.0000 0.58827
  3.000E+01 8.509E+01 3.854E+00 7.333E-06 0.000E+00 0.000E+00 7.333E-06 3.854E+00 4.635E+00  0.0000 0.62720
  3.500E+01 9.285E+01 3.532E+00 8.105E-06 0.000E+00 0.000E+00 8.105E-06 3.532E+00 5.991E+00  0.0000 0.66011
  4.000E+01 1.003E+02 3.290E+00 8.853E-06 0.000E+00 0.000E+00 8.853E-06 3.290E+00 7.459E+00  0.0000 0.68834
  4.500E+01 1.074E+02 3.103E+00 9.586E-06 0.000E+00 0.000E+00 9.586E-06 3.103E+00 9.025E+00  0.0000 0.71286
  5.000E+01 1.143E+02 2.954E+00 1.031E-05 0.000E+00 0.000E+00 1.031E-05 2.954E+00 1.068E+01  0.0000 0.73434
  5.500E+01 1.210E+02 2.833E+00 1.103E-05 0.000E+00 0.000E+00 1.103E-05 2.833E+00 1.241E+01  0.0000 0.75332
  6.000E+01 1.276E+02 2.733E+00 1.174E-05 0.000E+00 0.000E+00 1.174E-05 2.733E+00 1.420E+01  0.0000 0.77019
  7.000E+01 1.403E+02 2.580E+00 1.317E-05 0.000E+00 0.000E+00 1.317E-05 2.580E+00 1.797E+01  0.0000 0.79887
  8.000E+01 1.527E+02 2.468E+00 1.461E-05 0.000E+00 0.000E+00 1.461E-05 2.468E+00 2.193E+01  0.0000 0.82227
  9.000E+01 1.647E+02 2.385E+00 1.606E-05 0.000E+00 0.000E+00 1.606E-05 2.385E+00 2.606E+01  0.0000 0.84166
  1.000E+02 1.764E+02 2.321E+00 1.754E-05 0.000E+00 0.000E+00 1.754E-05 2.321E+00 3.031E+01  0.0000 0.85794
  1.200E+02 1.994E+02 2.229E+00 2.057E-05 0.000E+00 0.000E+00 2.057E-05 2.229E+00 3.910E+01  0.0303 0.88361
  1.400E+02 2.218E+02 2.166E+00 2.370E-05 0.000E+00 0.000E+00 2.370E-05 2.166E+00 4.821E+01  0.0967 0.90278
  1.700E+02 2.546E+02 2.107E+00 2.860E-05 4.181E-14 0.000E+00 2.860E-05 2.107E+00 6.225E+01  0.1930 0.92363
  2.000E+02 2.868E+02 2.074E+00 3.373E-05 9.342E-12 0.000E+00 3.373E-05 2.074E+00 7.660E+01  0.2851 0.93835
  2.500E+02 3.396E+02 2.047E+00 4.279E-05 7.681E-08 0.000E+00 4.287E-05 2.047E+00 1.009E+02  0.4294 0.95485
  3.000E+02 3.917E+02 2.039E+00 5.243E-05 6.799E-07 0.000E+00 5.311E-05 2.039E+00 1.253E+02  0.5633 0.96548
  3.500E+02 4.432E+02 2.039E+00 6.260E-05 1.869E-06 0.000E+00 6.447E-05 2.039E+00 1.499E+02  0.6879 0.97274
  4.000E+02 4.945E+02 2.045E+00 7.326E-05 3.618E-06 0.000E+00 7.687E-05 2.045E+00 1.743E+02  0.8045 0.97793
  4.500E+02 5.455E+02 2.053E+00 8.435E-05 5.904E-06 0.000E+00 9.026E-05 2.053E+00 1.988E+02  0.9140 0.98176
  5.000E+02 5.964E+02 2.062E+00 9.587E-05 8.711E-06 0.000E+00 1.046E-04 2.062E+00 2.231E+02  1.0173 0.98467
  5.500E+02 6.471E+02 2.072E+00 1.078E-04 1.202E-05 0.000E+00 1.198E-04 2.072E+00 2.472E+02  1.1150 0.98693
  6.000E+02 6.977E+02 2.082E+00 1.200E-04 1.581E-05 0.000E+00 1.358E-04 2.082E+00 2.713E+02  1.2078 0.98873
  7.000E+02 7.987E+02 2.102E+00 1.456E-04 2.478E-05 0.000E+00 1.703E-04 2.102E+00 3.191E+02  1.3804 0.99136
  8.000E+02 8.995E+02 2.121E+00 1.723E-04 3.551E-05 0.000E+00 2.078E-04 2.121E+00 3.665E+02  1.5383 0.99317
  9.000E+02 1.000E+03 2.139E+00 2.001E-04 4.787E-05 0.000E+00 2.480E-04 2.139E+00 4.134E+02  1.6838 0.99447
  1.000E+03 1.101E+03 2.156E+00 2.290E-04 6.177E-05 0.000E+00 2.907E-04 2.156E+00 4.600E+02  1.8189 0.99542
  1.200E+03 1.301E+03 2.186E+00 2.894E-04 9.384E-05 2.257E-05 4.058E-04 2.186E+00 5.521E+02  2.0632 0.99672
  1.400E+03 1.502E+03 2.212E+00 3.530E-04 1.311E-04 6.186E-05 5.460E-04 2.213E+00 6.430E+02  2.2797 0.99753
  1.700E+03 1.803E+03 2.246E+00 4.537E-04 1.957E-04 1.329E-04 7.822E-04 2.247E+00 7.776E+02  2.5648 0.99829
  2.000E+03 2.103E+03 2.275E+00 5.598E-04 2.695E-04 2.169E-04 1.046E-03 2.276E+00 9.103E+02  2.8134 0.99874
  2.500E+03 2.604E+03 2.314E+00 7.469E-04 4.102E-04 3.800E-04 1.537E-03 2.315E+00 1.128E+03  3.1685 0.99918
  3.000E+03 3.104E+03 2.346E+00 9.450E-04 5.700E-04 5.521E-04 2.067E-03 2.348E+00 1.343E+03  3.4694 0.99942
  3.500E+03 3.604E+03 2.372E+00 1.152E-03 7.462E-04 7.351E-04 2.634E-03 2.375E+00 1.554E+03  3.7307 0.99957
  4.000E+03 4.104E+03 2.395E+00 1.368E-03 9.526E-04 9.311E-04 3.252E-03 2.398E+00 1.764E+03  3.9619 0.99967
  4.500E+03 4.604E+03 2.415E+00 1.591E-03 1.179E-03 1.136E-03 3.905E-03 2.419E+00 1.971E+03  4.1692 0.99974
  5.000E+03 5.105E+03 2.432E+00 1.820E-03 1.419E-03 1.332E-03 4.571E-03 2.437E+00 2.177E+03  4.3572 0.99979
  5.500E+03 5.605E+03 2.448E+00 2.055E-03 1.671E-03 1.545E-03 5.271E-03 2.453E+00 2.382E+03  4.5291 0.99982
  6.000E+03 6.105E+03 2.462E+00 2.295E-03 1.934E-03 1.743E-03 5.973E-03 2.468E+00 2.585E+03  4.6876 0.99985
  7.000E+03 7.105E+03 2.487E+00 2.791E-03 2.493E-03 2.164E-03 7.448E-03 2.494E+00 2.988E+03  4.9717 0.99989
  8.000E+03 8.105E+03 2.508E+00 3.304E-03 3.087E-03 2.584E-03 8.975E-03 2.517E+00 3.387E+03  5.2208 0.99992
  9.000E+03 9.105E+03 2.526E+00 3.833E-03 3.715E-03 2.979E-03 1.053E-02 2.536E+00 3.783E+03  5.4428 0.99993
  1.000E+04 1.011E+04 2.542E+00 4.375E-03 4.371E-03 3.387E-03 1.213E-02 2.554E+00 4.176E+03  5.6429 0.99995
  1.200E+04 1.211E+04 2.569E+00 5.495E-03 5.758E-03 4.218E-03 1.547E-02 2.585E+00 4.955E+03  5.9923 0.99996
  1.400E+04 1.411E+04 2.592E+00 6.657E-03 7.233E-03 5.052E-03 1.894E-02 2.610E+00 5.725E+03  6.2904 0.99997
  1.700E+04 1.711E+04 2.619E+00 8.466E-03 9.581E-03 6.291E-03 2.434E-02 2.643E+00 6.867E+03  6.6690 0.99998
  2.000E+04 2.011E+04 2.642E+00 1.034E-02 1.207E-02 7.510E-03 2.992E-02 2.672E+00 7.996E+03  6.9879 0.99999
  2.500E+04 2.511E+04 2.672E+00 1.359E-02 1.645E-02 9.518E-03 3.956E-02 2.711E+00 9.853E+03  7.4284 0.99999
  3.000E+04 3.011E+04 2.696E+00 1.696E-02 2.109E-02 1.150E-02 4.955E-02 2.745E+00 1.169E+04  7.7899 0.99999
  3.500E+04 3.511E+04 2.716E+00 2.044E-02 2.593E-02 1.350E-02 5.987E-02 2.776E+00 1.350E+04  8.0964 1.00000
  4.000E+04 4.011E+04 2.733E+00 2.401E-02 3.095E-02 1.548E-02 7.043E-02 2.803E+00 1.529E+04  8.3623 1.00000
  4.500E+04 4.511E+04 2.748E+00 2.765E-02 3.611E-02 1.744E-02 8.119E-02 2.829E+00 1.707E+04  8.5972 1.00000
  5.000E+04 5.011E+04 2.761E+00 3.136E-02 4.139E-02 1.940E-02 9.215E-02 2.853E+00 1.883E+04  8.8074 1.00000
  5.500E+04 5.511E+04 2.772E+00 3.513E-02 4.679E-02 2.138E-02 1.033E-01 2.876E+00 2.057E+04  8.9976 1.00000
  6.000E+04 6.011E+04 2.783E+00 3.895E-02 5.229E-02 2.334E-02 1.146E-01 2.898E+00 2.230E+04  9.1713 1.00000
  7.000E+04 7.011E+04 2.802E+00 4.674E-02 6.354E-02 2.724E-02 1.375E-01 2.939E+00 2.573E+04  9.4791 1.00000
  8.000E+04 8.011E+04 2.818E+00 5.470E-02 7.509E-02 3.115E-02 1.609E-01 2.979E+00 2.911E+04  9.7458 1.00000
  9.000E+04 9.011E+04 2.832E+00 6.280E-02 8.689E-02 3.506E-02 1.848E-01 3.016E+00 3.245E+04  9.9811 1.00000
  1.000E+05 1.001E+05 2.844E+00 7.103E-02 9.890E-02 3.891E-02 2.088E-01 3.053E+00 3.574E+04 10.1915 1.00000
  1.200E+05 1.201E+05 2.865E+00 8.781E-02 1.235E-01 4.675E-02 2.580E-01 3.123E+00 4.222E+04 10.5558 1.00000
  1.400E+05 1.401E+05 2.883E+00 1.050E-01 1.486E-01 5.460E-02 3.082E-01 3.191E+00 4.855E+04 10.8639 1.00000
  1.700E+05 1.701E+05 2.906E+00 1.312E-01 1.872E-01 6.640E-02 3.848E-01 3.291E+00 5.781E+04 11.2519 1.00000
  2.000E+05 2.001E+05 2.924E+00 1.580E-01 2.265E-01 7.828E-02 4.628E-01 3.387E+00 6.680E+04 11.5768 1.00000
  2.500E+05 2.501E+05 2.950E+00 2.037E-01 2.935E-01 9.815E-02 5.954E-01 3.546E+00 8.123E+04 12.0229 1.00000
  3.000E+05 3.001E+05 2.971E+00 2.502E-01 3.618E-01 1.182E-01 7.303E-01 3.701E+00 9.504E+04 12.3874 1.00000
  3.500E+05 3.501E+05 2.989E+00 2.976E-01 4.311E-01 1.385E-01 8.672E-01 3.856E+00 1.083E+05 12.6956 1.00000
  4.000E+05 4.001E+05 3.004E+00 3.455E-01 5.012E-01 1.589E-01 1.006E+00 4.010E+00 1.210E+05 12.9625 1.00000
  4.500E+05 4.501E+05 3.018E+00 3.940E-01 5.718E-01 1.794E-01 1.145E+00 4.163E+00 1.332E+05 13.1981 1.00000
  5.000E+05 5.001E+05 3.030E+00 4.429E-01 6.430E-01 2.002E-01 1.286E+00 4.316E+00 1.450E+05 13.4087 1.00000
  5.500E+05 5.501E+05 3.041E+00 4.922E-01 7.147E-01 2.207E-01 1.428E+00 4.469E+00 1.564E+05 13.5993 1.00000
  6.000E+05 6.001E+05 3.051E+00 5.419E-01 7.867E-01 2.414E-01 1.570E+00 4.621E+00 1.674E+05 13.7733 1.00000
  7.000E+05 7.001E+05 3.069E+00 6.421E-01 9.318E-01 2.832E-01 1.857E+00 4.926E+00 1.884E+05 14.0816 1.00000
  8.000E+05 8.001E+05 3.085E+00 7.433E-01 1.078E+00 3.254E-01 2.147E+00 5.231E+00 2.081E+05 14.3486 1.00000
  9.000E+05 9.001E+05 3.098E+00 8.454E-01 1.225E+00 3.680E-01 2.438E+00 5.537E+00 2.267E+05 14.5841 1.00000
  1.000E+06 1.000E+06 3.111E+00 9.482E-01 1.372E+00 4.111E-01 2.732E+00 5.842E+00 2.443E+05 14.7948 1.00000
  1.200E+06 1.200E+06 3.132E+00 1.155E+00 1.669E+00 4.982E-01 3.323E+00 6.455E+00 2.769E+05 15.1594 1.00000
  1.400E+06 1.400E+06 3.151E+00 1.365E+00 1.968E+00 5.865E-01 3.919E+00 7.070E+00 3.065E+05 15.4677 1.00000
  1.700E+06 1.700E+06 3.174E+00 1.681E+00 2.418E+00 7.212E-01 4.821E+00 7.994E+00 3.465E+05 15.8560 1.00000
  2.000E+06 2.000E+06 3.193E+00 2.000E+00 2.871E+00 8.581E-01 5.729E+00 8.923E+00 3.821E+05 16.1810 1.00000
  2.500E+06 2.500E+06 3.220E+00 2.536E+00 3.629E+00 1.090E+00 7.256E+00 1.048E+01 4.340E+05 16.6273 1.00000
  3.000E+06 3.000E+06 3.242E+00 3.077E+00 4.390E+00 1.327E+00 8.794E+00 1.204E+01 4.786E+05 16.9919 1.00000
  3.500E+06 3.500E+06 3.261E+00 3.620E+00 5.153E+00 1.568E+00 1.034E+01 1.360E+01 5.177E+05 17.3002 1.00000
  4.000E+06 4.000E+06 3.278E+00 4.166E+00 5.918E+00 1.812E+00 1.190E+01 1.517E+01 5.526E+05 17.5672 1.00000
  4.500E+06 4.500E+06 3.292E+00 4.714E+00 6.684E+00 2.059E+00 1.346E+01 1.675E+01 5.840E+05 17.8028 1.00000
  5.000E+06 5.000E+06 3.306E+00 5.264E+00 7.451E+00 2.309E+00 1.502E+01 1.833E+01 6.126E+05 18.0135 1.00000
  5.500E+06 5.500E+06 3.318E+00 5.815E+00 8.219E+00 2.562E+00 1.660E+01 1.991E+01 6.388E+05 18.2041 1.00000
  6.000E+06 6.000E+06 3.329E+00 6.367E+00 8.988E+00 2.817E+00 1.817E+01 2.150E+01 6.629E+05 18.3782 1.00000
  7.000E+06 7.000E+06 3.348E+00 7.474E+00 1.053E+01 3.333E+00 2.133E+01 2.468E+01 7.065E+05 18.6864 1.00000
  8.000E+06 8.000E+06 3.365E+00 8.585E+00 1.207E+01 3.857E+00 2.451E+01 2.788E+01 7.446E+05 18.9535 1.00000
  9.000E+06 9.000E+06 3.380E+00 9.698E+00 1.361E+01 4.388E+00 2.770E+01 3.108E+01 7.787E+05 19.1891 1.00000
  1.000E+07 1.000E+07 3.394E+00 1.081E+01 1.516E+01 4.925E+00 3.089E+01 3.429E+01 8.093E+05 19.3998 1.00000
  1.200E+07 1.200E+07 3.417E+00 1.305E+01 1.825E+01 6.016E+00 3.731E+01 4.073E+01 8.631E+05 19.7644 1.00000
  1.400E+07 1.400E+07 3.437E+00 1.529E+01 2.134E+01 7.126E+00 4.376E+01 4.719E+01 9.088E+05 20.0727 1.00000
  1.700E+07 1.700E+07 3.463E+00 1.866E+01 2.599E+01 8.823E+00 5.347E+01 5.693E+01 9.669E+05 20.4610 1.00000
  2.000E+07 2.000E+07 3.484E+00 2.203E+01 3.063E+01 1.055E+01 6.322E+01 6.670E+01 1.016E+06 20.7861 1.00000
  2.500E+07 2.500E+07 3.514E+00 2.767E+01 3.838E+01 1.350E+01 7.955E+01 8.306E+01 1.083E+06 21.2324 1.00000
  3.000E+07 3.000E+07 3.539E+00 3.331E+01 4.614E+01 1.651E+01 9.596E+01 9.950E+01 1.139E+06 21.5970 1.00000
  3.500E+07 3.500E+07 3.560E+00 3.897E+01 5.390E+01 1.957E+01 1.124E+02 1.160E+02 1.185E+06 21.9053 1.00000
  4.000E+07 4.000E+07 3.578E+00 4.462E+01 6.166E+01 2.269E+01 1.290E+02 1.325E+02 1.226E+06 22.1724 1.00000
  4.500E+07 4.500E+07 3.594E+00 5.028E+01 6.942E+01 2.585E+01 1.455E+02 1.491E+02 1.261E+06 22.4079 1.00000
  5.000E+07 5.000E+07 3.609E+00 5.595E+01 7.718E+01 2.904E+01 1.622E+02 1.658E+02 1.293E+06 22.6186 1.00000
  5.500E+07 5.500E+07 3.622E+00 6.161E+01 8.495E+01 3.227E+01 1.788E+02 1.825E+02 1.322E+06 22.8093 1.00000
  6.000E+07 6.000E+07 3.634E+00 6.728E+01 9.271E+01 3.554E+01 1.955E+02 1.992E+02 1.348E+06 22.9833 1.00000
  7.000E+07 7.000E+07 3.656E+00 7.862E+01 1.082E+02 4.216E+01 2.290E+02 2.327E+02 1.395E+06 23.2916 1.00000
  8.000E+07 8.000E+07 3.675E+00 8.997E+01 1.238E+02 4.889E+01 2.626E+02 2.663E+02 1.435E+06 23.5587 1.00000
  9.000E+07 9.000E+07 3.692E+00 1.013E+02 1.393E+02 5.571E+01 2.964E+02 3.000E+02 1.470E+06 23.7942 1.00000
  1.000E+08 1.000E+08 3.707E+00 1.127E+02 1.549E+02 6.262E+01 3.302E+02 3.339E+02 1.502E+06 24.0049 1.00000
  1.200E+08 1.200E+08 3.733E+00 1.354E+02 1.859E+02 7.667E+01 3.980E+02 4.017E+02 1.557E+06 24.3696 1.00000
  1.400E+08 1.400E+08 3.756E+00 1.581E+02 2.170E+02 9.099E+01 4.661E+02 4.699E+02 1.603E+06 24.6779 1.00000
  1.700E+08 1.700E+08 3.784E+00 1.922E+02 2.636E+02 1.129E+02 5.688E+02 5.726E+02 1.661E+06 25.0662 1.00000
  2.000E+08 2.000E+08 3.808E+00 2.263E+02 3.103E+02 1.353E+02 6.719E+02 6.757E+02 1.710E+06 25.3912 1.00000
  2.500E+08 2.500E+08 3.841E+00 2.832E+02 3.880E+02 1.734E+02 8.446E+02 8.484E+02 1.776E+06 25.8375 1.00000
  3.000E+08 3.000E+08 3.869E+00 3.401E+02 4.657E+02 2.124E+02 1.018E+03 1.022E+03 1.830E+06 26.2022 1.00000
  3.500E+08 3.500E+08 3.892E+00 3.970E+02 5.434E+02 2.521E+02 1.193E+03 1.196E+03 1.875E+06 26.5105 1.00000
  4.000E+08 4.000E+08 3.913E+00 4.539E+02 6.212E+02 2.926E+02 1.368E+03 1.372E+03 1.915E+06 26.7775 1.00000
  4.500E+08 4.500E+08 3.931E+00 5.108E+02 6.989E+02 3.336E+02 1.543E+03 1.547E+03 1.949E+06 27.0131 1.00000
  5.000E+08 5.000E+08 3.947E+00 5.677E+02 7.766E+02 3.752E+02 1.719E+03 1.723E+03 1.980E+06 27.2238 1.00000
  5.500E+08 5.500E+08 3.962E+00 6.246E+02 8.543E+02 4.172E+02 1.896E+03 1.900E+03 2.007E+06 27.4144 1.00000
  6.000E+08 6.000E+08 3.975E+00 6.815E+02 9.321E+02 4.597E+02 2.073E+03 2.077E+03 2.032E+06 27.5885 1.00000
  7.000E+08 7.000E+08 4.000E+00 7.953E+02 1.088E+03 5.460E+02 2.429E+03 2.433E+03 2.077E+06 27.8968 1.00000
  8.000E+08 8.000E+08 4.021E+00 9.092E+02 1.243E+03 6.337E+02 2.786E+03 2.790E+03 2.116E+06 28.1638 1.00000
  9.000E+08 9.000E+08 4.040E+00 1.023E+03 1.398E+03 7.227E+02 3.144E+03 3.148E+03 2.149E+06 28.3994 1.00000
  1.000E+09 1.000E+09 4.056E+00 1.137E+03 1.554E+03 8.129E+02 3.504E+03 3.508E+03 2.179E+06 28.6101 1.00000
