 Incident particle is a Muon with M = 105.65839 MeV
 Index = 0: MixDWax
      Absorber with <Z/A> = 0.56469
 Sternheimer coef:  a     k=m_s   x_0    x_1    I[eV]   Cbar  delta0
                 0.0749  3.6823  0.1371  2.7145   60.9  3.0780 0.00

 *** Table generated with PUMAS v1.00 ***

      T         p     Ionization  brems     pair     photonuc  Radloss    dE/dx   CSDA Range  delta   beta
    [MeV]    [MeV/c]  -----------------------[MeV cm^2/g]------------------------  [g/cm^2]
  1.000E+00 1.457E+01 5.335E+01 6.582E-07 0.000E+00 0.000E+00 6.582E-07 5.335E+01 9.372E-03  0.0000 0.13661
  1.200E+00 1.597E+01 4.598E+01 7.532E-07 0.000E+00 0.000E+00 7.532E-07 4.598E+01 1.342E-02  0.0000 0.14944
  1.400E+00 1.726E+01 4.053E+01 8.438E-07 0.000E+00 0.000E+00 8.438E-07 4.053E+01 1.806E-02  0.0000 0.16119
  1.700E+00 1.903E+01 3.457E+01 9.733E-07 0.000E+00 0.000E+00 9.733E-07 3.457E+01 2.610E-02  0.0000 0.17725
  2.000E+00 2.066E+01 3.025E+01 1.096E-06 0.000E+00 0.000E+00 1.096E-06 3.025E+01 3.540E-02  0.0000 0.19186
  2.500E+00 2.312E+01 2.519E+01 1.289E-06 0.000E+00 0.000E+00 1.289E-06 2.519E+01 5.359E-02  0.0000 0.21376
  3.000E+00 2.536E+01 2.170E+01 1.469E-06 0.000E+00 0.000E+00 1.469E-06 2.170E+01 7.503E-02  0.0000 0.23336
  3.500E+00 2.742E+01 1.913E+01 1.640E-06 0.000E+00 0.000E+00 1.640E-06 1.913E+01 9.962E-02  0.0000 0.25120
  4.000E+00 2.935E+01 1.716E+01 1.801E-06 0.000E+00 0.000E+00 1.801E-06 1.716E+01 1.273E-01  0.0000 0.26763
  4.500E+00 3.116E+01 1.560E+01 1.956E-06 0.000E+00 0.000E+00 1.956E-06 1.560E+01 1.578E-01  0.0000 0.28290
  5.000E+00 3.289E+01 1.433E+01 2.105E-06 0.000E+00 0.000E+00 2.105E-06 1.433E+01 1.913E-01  0.0000 0.29720
  5.500E+00 3.453E+01 1.328E+01 2.247E-06 0.000E+00 0.000E+00 2.247E-06 1.328E+01 2.276E-01  0.0000 0.31066
  6.000E+00 3.611E+01 1.239E+01 2.385E-06 0.000E+00 0.000E+00 2.385E-06 1.239E+01 2.666E-01  0.0000 0.32339
  7.000E+00 3.909E+01 1.096E+01 2.648E-06 0.000E+00 0.000E+00 2.648E-06 1.096E+01 3.526E-01  0.0000 0.34700
  8.000E+00 4.189E+01 9.877E+00 2.896E-06 0.000E+00 0.000E+00 2.896E-06 9.877E+00 4.488E-01  0.0000 0.36854
  9.000E+00 4.453E+01 9.018E+00 3.131E-06 0.000E+00 0.000E+00 3.131E-06 9.018E+00 5.548E-01  0.0000 0.38836
  1.000E+01 4.704E+01 8.321E+00 3.355E-06 0.000E+00 0.000E+00 3.355E-06 8.321E+00 6.704E-01  0.0000 0.40675
  1.200E+01 5.177E+01 7.258E+00 3.778E-06 0.000E+00 0.000E+00 3.778E-06 7.258E+00 9.283E-01  0.0000 0.43998
  1.400E+01 5.616E+01 6.484E+00 4.172E-06 0.000E+00 0.000E+00 4.172E-06 6.484E+00 1.220E+00  0.0000 0.46937
  1.700E+01 6.230E+01 5.651E+00 4.723E-06 0.000E+00 0.000E+00 4.723E-06 5.651E+00 1.717E+00  0.0000 0.50792
  2.000E+01 6.802E+01 5.059E+00 5.237E-06 0.000E+00 0.000E+00 5.237E-06 5.059E+00 2.279E+00  0.0000 0.54129
  2.500E+01 7.686E+01 4.379E+00 6.034E-06 0.000E+00 0.000E+00 6.034E-06 4.379E+00 3.344E+00  0.0000 0.58827
  3.000E+01 8.509E+01 3.921E+00 6.782E-06 0.000E+00 0.000E+00 6.782E-06 3.921E+00 4.552E+00  0.0000 0.62720
  3.500E+01 9.285E+01 3.593E+00 7.497E-06 0.000E+00 0.000E+00 7.497E-06 3.593E+00 5.886E+00  0.0000 0.66011
  4.000E+01 1.003E+02 3.346E+00 8.191E-06 0.000E+00 0.000E+00 8.191E-06 3.346E+00 7.329E+00  0.0000 0.68834
  4.500E+01 1.074E+02 3.155E+00 8.869E-06 0.000E+00 0.000E+00 8.869E-06 3.155E+00 8.868E+00  0.0000 0.71286
  5.000E+01 1.143E+02 3.003E+00 9.539E-06 0.000E+00 0.000E+00 9.539E-06 3.003E+00 1.049E+01  0.0000 0.73434
  5.500E+01 1.210E+02 2.880E+00 1.020E-05 0.000E+00 0.000E+00 1.020E-05 2.880E+00 1.219E+01  0.0000 0.75332
  6.000E+01 1.276E+02 2.779E+00 1.086E-05 0.000E+00 0.000E+00 1.086E-05 2.779E+00 1.396E+01  0.0000 0.77019
  7.000E+01 1.403E+02 2.622E+00 1.219E-05 0.000E+00 0.000E+00 1.219E-05 2.622E+00 1.767E+01  0.0000 0.79887
  8.000E+01 1.527E+02 2.505E+00 1.352E-05 0.000E+00 0.000E+00 1.352E-05 2.505E+00 2.157E+01  0.0262 0.82227
  9.000E+01 1.647E+02 2.415E+00 1.487E-05 0.000E+00 0.000E+00 1.487E-05 2.415E+00 2.564E+01  0.0673 0.84166
  1.000E+02 1.764E+02 2.345E+00 1.623E-05 0.000E+00 0.000E+00 1.623E-05 2.345E+00 2.984E+01  0.1081 0.85794
  1.200E+02 1.994E+02 2.246E+00 1.903E-05 0.000E+00 0.000E+00 1.903E-05 2.246E+00 3.855E+01  0.1879 0.88361
  1.400E+02 2.218E+02 2.182E+00 2.193E-05 0.000E+00 0.000E+00 2.193E-05 2.182E+00 4.759E+01  0.2649 0.90278
  1.700E+02 2.546E+02 2.121E+00 2.647E-05 3.421E-14 0.000E+00 2.647E-05 2.121E+00 6.153E+01  0.3751 0.92363
  2.000E+02 2.868E+02 2.087E+00 3.122E-05 8.257E-12 0.000E+00 3.122E-05 2.087E+00 7.579E+01  0.4791 0.93835
  2.500E+02 3.396E+02 2.058E+00 3.960E-05 6.795E-08 0.000E+00 3.967E-05 2.058E+00 9.992E+01  0.6400 0.95485
  3.000E+02 3.917E+02 2.048E+00 4.852E-05 6.238E-07 0.000E+00 4.914E-05 2.048E+00 1.243E+02  0.7876 0.96548
  3.500E+02 4.432E+02 2.048E+00 5.792E-05 1.717E-06 0.000E+00 5.964E-05 2.048E+00 1.487E+02  0.9240 0.97274
  4.000E+02 4.945E+02 2.052E+00 6.777E-05 3.324E-06 0.000E+00 7.110E-05 2.052E+00 1.731E+02  1.0509 0.97793
  4.500E+02 5.455E+02 2.060E+00 7.804E-05 5.424E-06 0.000E+00 8.346E-05 2.060E+00 1.974E+02  1.1694 0.98176
  5.000E+02 5.964E+02 2.068E+00 8.869E-05 8.002E-06 0.000E+00 9.669E-05 2.068E+00 2.216E+02  1.2808 0.98467
  5.500E+02 6.471E+02 2.077E+00 9.969E-05 1.104E-05 0.000E+00 1.107E-04 2.077E+00 2.457E+02  1.3857 0.98693
  6.000E+02 6.977E+02 2.087E+00 1.110E-04 1.452E-05 0.000E+00 1.256E-04 2.087E+00 2.698E+02  1.4851 0.98873
  7.000E+02 7.987E+02 2.106E+00 1.346E-04 2.276E-05 0.000E+00 1.574E-04 2.106E+00 3.175E+02  1.6693 0.99136
  8.000E+02 8.995E+02 2.124E+00 1.594E-04 3.260E-05 0.000E+00 1.920E-04 2.125E+00 3.647E+02  1.8370 0.99317
  9.000E+02 1.000E+03 2.142E+00 1.851E-04 4.395E-05 0.000E+00 2.291E-04 2.142E+00 4.116E+02  1.9911 0.99447
  1.000E+03 1.101E+03 2.158E+00 2.118E-04 5.671E-05 0.000E+00 2.685E-04 2.158E+00 4.581E+02  2.1336 0.99542
  1.200E+03 1.301E+03 2.187E+00 2.677E-04 8.616E-05 2.257E-05 3.764E-04 2.188E+00 5.502E+02  2.3905 0.99672
  1.400E+03 1.502E+03 2.213E+00 3.265E-04 1.204E-04 6.190E-05 5.088E-04 2.213E+00 6.410E+02  2.6174 0.99753
  1.700E+03 1.803E+03 2.246E+00 4.197E-04 1.796E-04 1.330E-04 7.323E-04 2.247E+00 7.756E+02  2.9148 0.99829
  2.000E+03 2.103E+03 2.274E+00 5.178E-04 2.474E-04 2.173E-04 9.825E-04 2.275E+00 9.083E+02  3.1731 0.99874
  2.500E+03 2.604E+03 2.312E+00 6.910E-04 3.766E-04 3.809E-04 1.448E-03 2.313E+00 1.126E+03  3.5407 0.99918
  3.000E+03 3.104E+03 2.343E+00 8.744E-04 5.233E-04 5.536E-04 1.951E-03 2.345E+00 1.341E+03  3.8510 0.99942
  3.500E+03 3.604E+03 2.369E+00 1.066E-03 6.851E-04 7.374E-04 2.489E-03 2.372E+00 1.553E+03  4.1197 0.99957
  4.000E+03 4.104E+03 2.392E+00 1.266E-03 8.759E-04 9.344E-04 3.076E-03 2.395E+00 1.763E+03  4.3568 0.99967
  4.500E+03 4.604E+03 2.411E+00 1.472E-03 1.086E-03 1.140E-03 3.698E-03 2.415E+00 1.971E+03  4.5690 0.99974
  5.000E+03 5.105E+03 2.428E+00 1.685E-03 1.308E-03 1.338E-03 4.330E-03 2.433E+00 2.177E+03  4.7610 0.99979
  5.500E+03 5.605E+03 2.444E+00 1.903E-03 1.542E-03 1.552E-03 4.996E-03 2.449E+00 2.382E+03  4.9364 0.99982
  6.000E+03 6.105E+03 2.458E+00 2.126E-03 1.786E-03 1.751E-03 5.663E-03 2.463E+00 2.585E+03  5.0979 0.99985
  7.000E+03 7.105E+03 2.482E+00 2.585E-03 2.304E-03 2.175E-03 7.064E-03 2.489E+00 2.989E+03  5.3868 0.99989
  8.000E+03 8.105E+03 2.503E+00 3.061E-03 2.857E-03 2.597E-03 8.514E-03 2.511E+00 3.389E+03  5.6397 0.99992
  9.000E+03 9.105E+03 2.521E+00 3.551E-03 3.439E-03 2.994E-03 9.984E-03 2.531E+00 3.786E+03  5.8646 0.99993
  1.000E+04 1.011E+04 2.537E+00 4.054E-03 4.048E-03 3.406E-03 1.151E-02 2.548E+00 4.180E+03  6.0671 0.99995
  1.200E+04 1.211E+04 2.564E+00 5.094E-03 5.338E-03 4.242E-03 1.467E-02 2.579E+00 4.960E+03  6.4202 0.99996
  1.400E+04 1.411E+04 2.586E+00 6.173E-03 6.708E-03 5.082E-03 1.796E-02 2.604E+00 5.732E+03  6.7209 0.99997
  1.700E+04 1.711E+04 2.614E+00 7.853E-03 8.891E-03 6.331E-03 2.307E-02 2.637E+00 6.877E+03  7.1019 0.99998
  2.000E+04 2.011E+04 2.636E+00 9.596E-03 1.120E-02 7.560E-03 2.836E-02 2.665E+00 8.008E+03  7.4226 0.99999
  2.500E+04 2.511E+04 2.667E+00 1.261E-02 1.528E-02 9.584E-03 3.748E-02 2.704E+00 9.871E+03  7.8646 0.99999
  3.000E+04 3.011E+04 2.691E+00 1.575E-02 1.960E-02 1.158E-02 4.693E-02 2.738E+00 1.171E+04  8.2270 0.99999
  3.500E+04 3.511E+04 2.711E+00 1.899E-02 2.411E-02 1.360E-02 5.669E-02 2.767E+00 1.353E+04  8.5340 1.00000
  4.000E+04 4.011E+04 2.728E+00 2.231E-02 2.878E-02 1.560E-02 6.668E-02 2.794E+00 1.532E+04  8.8002 1.00000
  4.500E+04 4.511E+04 2.742E+00 2.570E-02 3.358E-02 1.757E-02 7.685E-02 2.819E+00 1.710E+04  9.0351 1.00000
  5.000E+04 5.011E+04 2.756E+00 2.915E-02 3.851E-02 1.956E-02 8.721E-02 2.843E+00 1.887E+04  9.2454 1.00000
  5.500E+04 5.511E+04 2.767E+00 3.266E-02 4.354E-02 2.155E-02 9.775E-02 2.865E+00 2.062E+04  9.4356 1.00000
  6.000E+04 6.011E+04 2.778E+00 3.622E-02 4.866E-02 2.353E-02 1.084E-01 2.886E+00 2.236E+04  9.6093 1.00000
  7.000E+04 7.011E+04 2.797E+00 4.348E-02 5.915E-02 2.746E-02 1.301E-01 2.927E+00 2.580E+04  9.9171 1.00000
  8.000E+04 8.011E+04 2.813E+00 5.090E-02 6.991E-02 3.141E-02 1.522E-01 2.965E+00 2.920E+04 10.1838 1.00000
  9.000E+04 9.011E+04 2.827E+00 5.844E-02 8.091E-02 3.537E-02 1.747E-01 3.002E+00 3.255E+04 10.4191 1.00000
  1.000E+05 1.001E+05 2.839E+00 6.612E-02 9.211E-02 3.925E-02 1.975E-01 3.037E+00 3.586E+04 10.6295 1.00000
  1.200E+05 1.201E+05 2.861E+00 8.176E-02 1.150E-01 4.717E-02 2.439E-01 3.105E+00 4.237E+04 10.9938 1.00000
  1.400E+05 1.401E+05 2.879E+00 9.775E-02 1.385E-01 5.509E-02 2.913E-01 3.170E+00 4.875E+04 11.3019 1.00000
  1.700E+05 1.701E+05 2.902E+00 1.222E-01 1.745E-01 6.701E-02 3.637E-01 3.265E+00 5.808E+04 11.6899 1.00000
  2.000E+05 2.001E+05 2.920E+00 1.473E-01 2.112E-01 7.901E-02 4.375E-01 3.358E+00 6.714E+04 12.0148 1.00000
  2.500E+05 2.501E+05 2.946E+00 1.899E-01 2.738E-01 9.908E-02 5.627E-01 3.509E+00 8.171E+04 12.4609 1.00000
  3.000E+05 3.001E+05 2.967E+00 2.334E-01 3.376E-01 1.193E-01 6.903E-01 3.658E+00 9.567E+04 12.8254 1.00000
  3.500E+05 3.501E+05 2.985E+00 2.776E-01 4.023E-01 1.398E-01 8.197E-01 3.805E+00 1.091E+05 13.1336 1.00000
  4.000E+05 4.001E+05 3.001E+00 3.223E-01 4.678E-01 1.605E-01 9.506E-01 3.951E+00 1.220E+05 13.4005 1.00000
  4.500E+05 4.501E+05 3.014E+00 3.676E-01 5.338E-01 1.812E-01 1.083E+00 4.097E+00 1.344E+05 13.6361 1.00000
  5.000E+05 5.001E+05 3.026E+00 4.133E-01 6.004E-01 2.021E-01 1.216E+00 4.242E+00 1.464E+05 13.8467 1.00000
  5.500E+05 5.501E+05 3.037E+00 4.594E-01 6.674E-01 2.229E-01 1.350E+00 4.387E+00 1.580E+05 14.0373 1.00000
  6.000E+05 6.001E+05 3.048E+00 5.058E-01 7.348E-01 2.438E-01 1.484E+00 4.532E+00 1.692E+05 14.2113 1.00000
  7.000E+05 7.001E+05 3.066E+00 5.995E-01 8.704E-01 2.860E-01 1.756E+00 4.822E+00 1.906E+05 14.5196 1.00000
  8.000E+05 8.001E+05 3.081E+00 6.941E-01 1.007E+00 3.287E-01 2.030E+00 5.111E+00 2.108E+05 14.7866 1.00000
  9.000E+05 9.001E+05 3.095E+00 7.895E-01 1.144E+00 3.718E-01 2.306E+00 5.401E+00 2.298E+05 15.0221 1.00000
  1.000E+06 1.000E+06 3.108E+00 8.856E-01 1.283E+00 4.153E-01 2.584E+00 5.691E+00 2.478E+05 15.2328 1.00000
  1.200E+06 1.200E+06 3.129E+00 1.079E+00 1.560E+00 5.033E-01 3.143E+00 6.272E+00 2.814E+05 15.5974 1.00000
  1.400E+06 1.400E+06 3.148E+00 1.275E+00 1.840E+00 5.926E-01 3.708E+00 6.855E+00 3.119E+05 15.9057 1.00000
  1.700E+06 1.700E+06 3.171E+00 1.571E+00 2.262E+00 7.287E-01 4.562E+00 7.732E+00 3.532E+05 16.2940 1.00000
  2.000E+06 2.000E+06 3.191E+00 1.870E+00 2.685E+00 8.670E-01 5.422E+00 8.613E+00 3.900E+05 16.6190 1.00000
  2.500E+06 2.500E+06 3.218E+00 2.372E+00 3.395E+00 1.102E+00 6.868E+00 1.009E+01 4.438E+05 17.0653 1.00000
  3.000E+06 3.000E+06 3.240E+00 2.877E+00 4.107E+00 1.341E+00 8.326E+00 1.157E+01 4.902E+05 17.4299 1.00000
  3.500E+06 3.500E+06 3.259E+00 3.386E+00 4.822E+00 1.584E+00 9.793E+00 1.305E+01 5.310E+05 17.7382 1.00000
  4.000E+06 4.000E+06 3.276E+00 3.898E+00 5.538E+00 1.831E+00 1.127E+01 1.454E+01 5.673E+05 18.0052 1.00000
  4.500E+06 4.500E+06 3.290E+00 4.411E+00 6.256E+00 2.081E+00 1.275E+01 1.604E+01 6.001E+05 18.2408 1.00000
  5.000E+06 5.000E+06 3.304E+00 4.925E+00 6.975E+00 2.334E+00 1.423E+01 1.754E+01 6.299E+05 18.4515 1.00000
  5.500E+06 5.500E+06 3.316E+00 5.441E+00 7.694E+00 2.589E+00 1.572E+01 1.904E+01 6.573E+05 18.6421 1.00000
  6.000E+06 6.000E+06 3.327E+00 5.958E+00 8.414E+00 2.847E+00 1.722E+01 2.055E+01 6.826E+05 18.8162 1.00000
  7.000E+06 7.000E+06 3.346E+00 6.996E+00 9.856E+00 3.368E+00 2.022E+01 2.357E+01 7.282E+05 19.1244 1.00000
  8.000E+06 8.000E+06 3.363E+00 8.036E+00 1.130E+01 3.898E+00 2.323E+01 2.660E+01 7.682E+05 19.3915 1.00000
  9.000E+06 9.000E+06 3.378E+00 9.079E+00 1.275E+01 4.434E+00 2.626E+01 2.964E+01 8.039E+05 19.6271 1.00000
  1.000E+07 1.000E+07 3.392E+00 1.012E+01 1.419E+01 4.977E+00 2.929E+01 3.268E+01 8.360E+05 19.8378 1.00000
  1.200E+07 1.200E+07 3.416E+00 1.222E+01 1.709E+01 6.080E+00 3.539E+01 3.880E+01 8.924E+05 20.2024 1.00000
  1.400E+07 1.400E+07 3.436E+00 1.432E+01 1.999E+01 7.202E+00 4.151E+01 4.494E+01 9.404E+05 20.5107 1.00000
  1.700E+07 1.700E+07 3.462E+00 1.747E+01 2.434E+01 8.918E+00 5.073E+01 5.419E+01 1.001E+06 20.8990 1.00000
  2.000E+07 2.000E+07 3.483E+00 2.064E+01 2.869E+01 1.067E+01 5.999E+01 6.348E+01 1.053E+06 21.2241 1.00000
  2.500E+07 2.500E+07 3.513E+00 2.592E+01 3.595E+01 1.364E+01 7.551E+01 7.903E+01 1.124E+06 21.6704 1.00000
  3.000E+07 3.000E+07 3.538E+00 3.121E+01 4.322E+01 1.668E+01 9.111E+01 9.465E+01 1.182E+06 22.0350 1.00000
  3.500E+07 3.500E+07 3.559E+00 3.651E+01 5.049E+01 1.978E+01 1.068E+02 1.103E+02 1.231E+06 22.3433 1.00000
  4.000E+07 4.000E+07 3.578E+00 4.181E+01 5.776E+01 2.293E+01 1.225E+02 1.261E+02 1.273E+06 22.6104 1.00000
  4.500E+07 4.500E+07 3.594E+00 4.712E+01 6.503E+01 2.612E+01 1.383E+02 1.419E+02 1.311E+06 22.8459 1.00000
  5.000E+07 5.000E+07 3.609E+00 5.242E+01 7.231E+01 2.935E+01 1.541E+02 1.577E+02 1.344E+06 23.0566 1.00000
  5.500E+07 5.500E+07 3.622E+00 5.774E+01 7.958E+01 3.262E+01 1.699E+02 1.736E+02 1.375E+06 23.2473 1.00000
  6.000E+07 6.000E+07 3.634E+00 6.305E+01 8.686E+01 3.592E+01 1.858E+02 1.895E+02 1.402E+06 23.4213 1.00000
  7.000E+07 7.000E+07 3.656E+00 7.368E+01 1.014E+02 4.261E+01 2.177E+02 2.214E+02 1.451E+06 23.7296 1.00000
  8.000E+07 8.000E+07 3.675E+00 8.432E+01 1.160E+02 4.941E+01 2.497E+02 2.534E+02 1.493E+06 23.9967 1.00000
  9.000E+07 9.000E+07 3.692E+00 9.496E+01 1.305E+02 5.631E+01 2.818E+02 2.855E+02 1.531E+06 24.2322 1.00000
  1.000E+08 1.000E+08 3.707E+00 1.056E+02 1.451E+02 6.329E+01 3.140E+02 3.177E+02 1.564E+06 24.4429 1.00000
  1.200E+08 1.200E+08 3.733E+00 1.269E+02 1.742E+02 7.749E+01 3.786E+02 3.823E+02 1.622E+06 24.8076 1.00000
  1.400E+08 1.400E+08 3.756E+00 1.482E+02 2.033E+02 9.196E+01 4.435E+02 4.473E+02 1.670E+06 25.1159 1.00000
  1.700E+08 1.700E+08 3.785E+00 1.802E+02 2.470E+02 1.141E+02 5.413E+02 5.451E+02 1.731E+06 25.5042 1.00000
  2.000E+08 2.000E+08 3.809E+00 2.122E+02 2.907E+02 1.367E+02 6.396E+02 6.434E+02 1.782E+06 25.8292 1.00000
  2.500E+08 2.500E+08 3.842E+00 2.655E+02 3.635E+02 1.752E+02 8.043E+02 8.081E+02 1.852E+06 26.2755 1.00000
  3.000E+08 3.000E+08 3.870E+00 3.188E+02 4.364E+02 2.146E+02 9.698E+02 9.737E+02 1.908E+06 26.6402 1.00000
  3.500E+08 3.500E+08 3.893E+00 3.722E+02 5.092E+02 2.548E+02 1.136E+03 1.140E+03 1.956E+06 26.9485 1.00000
  4.000E+08 4.000E+08 3.914E+00 4.255E+02 5.820E+02 2.957E+02 1.303E+03 1.307E+03 1.997E+06 27.2155 1.00000
  4.500E+08 4.500E+08 3.932E+00 4.789E+02 6.548E+02 3.372E+02 1.471E+03 1.475E+03 2.033E+06 27.4511 1.00000
  5.000E+08 5.000E+08 3.948E+00 5.322E+02 7.277E+02 3.792E+02 1.639E+03 1.643E+03 2.065E+06 27.6618 1.00000
  5.500E+08 5.500E+08 3.963E+00 5.856E+02 8.005E+02 4.217E+02 1.808E+03 1.812E+03 2.094E+06 27.8524 1.00000
  6.000E+08 6.000E+08 3.977E+00 6.389E+02 8.733E+02 4.647E+02 1.977E+03 1.981E+03 2.121E+06 28.0265 1.00000
  7.000E+08 7.000E+08 4.001E+00 7.457E+02 1.019E+03 5.518E+02 2.316E+03 2.320E+03 2.168E+06 28.3348 1.00000
  8.000E+08 8.000E+08 4.023E+00 8.524E+02 1.165E+03 6.405E+02 2.657E+03 2.662E+03 2.208E+06 28.6018 1.00000
  9.000E+08 9.000E+08 4.041E+00 9.591E+02 1.310E+03 7.305E+02 3.000E+03 3.004E+03 2.243E+06 28.8374 1.00000
  1.000E+09 1.000E+09 4.058E+00 1.066E+03 1.456E+03 8.216E+02 3.343E+03 3.347E+03 2.275E+06 29.0481 1.00000
