 Incident particle is a Muon with M = 105.65839 MeV
 Index = 0: Molybdenum
      Absorber with <Z/A> = 0.43772
 Sternheimer coef:  a     k=m_s   x_0    x_1    I[eV]   Cbar  delta0
                 0.1053  3.2549  0.2267  3.2784  424.0  4.8793 0.14

 *** Table generated with PUMAS v1.00 ***

      T         p     Ionization  brems     pair     photonuc  Radloss    dE/dx   CSDA Range  delta   beta
    [MeV]    [MeV/c]  -----------------------[MeV cm^2/g]------------------------  [g/cm^2]
  1.000E+00 1.457E+01 2.738E+01 3.342E-06 0.000E+00 0.000E+00 3.342E-06 2.738E+01 1.826E-02  0.0009 0.13661
  1.200E+00 1.597E+01 2.396E+01 3.841E-06 0.000E+00 0.000E+00 3.841E-06 2.396E+01 2.609E-02  0.0011 0.14944
  1.400E+00 1.726E+01 2.138E+01 4.315E-06 0.000E+00 0.000E+00 4.315E-06 2.138E+01 3.494E-02  0.0013 0.16119
  1.700E+00 1.903E+01 1.849E+01 4.986E-06 0.000E+00 0.000E+00 4.986E-06 1.849E+01 5.007E-02  0.0016 0.17725
  2.000E+00 2.066E+01 1.636E+01 5.617E-06 0.000E+00 0.000E+00 5.617E-06 1.636E+01 6.735E-02  0.0019 0.19186
  2.500E+00 2.312E+01 1.382E+01 6.599E-06 0.000E+00 0.000E+00 6.599E-06 1.382E+01 1.007E-01  0.0024 0.21376
  3.000E+00 2.536E+01 1.203E+01 7.509E-06 0.000E+00 0.000E+00 7.509E-06 1.203E+01 1.396E-01  0.0028 0.23336
  3.500E+00 2.742E+01 1.069E+01 8.361E-06 0.000E+00 0.000E+00 8.361E-06 1.069E+01 1.838E-01  0.0033 0.25120
  4.000E+00 2.935E+01 9.659E+00 9.164E-06 0.000E+00 0.000E+00 9.164E-06 9.659E+00 2.330E-01  0.0038 0.26763
  4.500E+00 3.116E+01 8.832E+00 9.926E-06 0.000E+00 0.000E+00 9.926E-06 8.832E+00 2.872E-01  0.0043 0.28290
  5.000E+00 3.289E+01 8.153E+00 1.065E-05 0.000E+00 0.000E+00 1.065E-05 8.153E+00 3.462E-01  0.0048 0.29720
  5.500E+00 3.453E+01 7.586E+00 1.135E-05 0.000E+00 0.000E+00 1.135E-05 7.586E+00 4.098E-01  0.0053 0.31066
  6.000E+00 3.611E+01 7.104E+00 1.201E-05 0.000E+00 0.000E+00 1.201E-05 7.104E+00 4.780E-01  0.0058 0.32339
  7.000E+00 3.909E+01 6.330E+00 1.327E-05 0.000E+00 0.000E+00 1.327E-05 6.330E+00 6.273E-01  0.0067 0.34700
  8.000E+00 4.189E+01 5.732E+00 1.445E-05 0.000E+00 0.000E+00 1.445E-05 5.732E+00 7.935E-01  0.0077 0.36854
  9.000E+00 4.453E+01 5.257E+00 1.556E-05 0.000E+00 0.000E+00 1.556E-05 5.257E+00 9.759E-01  0.0088 0.38836
  1.000E+01 4.704E+01 4.869E+00 1.662E-05 0.000E+00 0.000E+00 1.662E-05 4.869E+00 1.174E+00  0.0098 0.40675
  1.200E+01 5.177E+01 4.274E+00 1.859E-05 0.000E+00 0.000E+00 1.859E-05 4.274E+00 1.613E+00  0.0118 0.43998
  1.400E+01 5.616E+01 3.838E+00 2.041E-05 0.000E+00 0.000E+00 2.041E-05 3.838E+00 2.107E+00  0.0139 0.46937
  1.700E+01 6.230E+01 3.365E+00 2.294E-05 0.000E+00 0.000E+00 2.294E-05 3.365E+00 2.944E+00  0.0171 0.50792
  2.000E+01 6.802E+01 3.027E+00 2.528E-05 0.000E+00 0.000E+00 2.528E-05 3.027E+00 3.885E+00  0.0204 0.54129
  2.500E+01 7.686E+01 2.636E+00 2.890E-05 0.000E+00 0.000E+00 2.890E-05 2.636E+00 5.660E+00  0.0261 0.58827
  3.000E+01 8.509E+01 2.371E+00 3.230E-05 0.000E+00 0.000E+00 3.230E-05 2.371E+00 7.663E+00  0.0320 0.62720
  3.500E+01 9.285E+01 2.180E+00 3.555E-05 0.000E+00 0.000E+00 3.555E-05 2.180E+00 9.864E+00  0.0381 0.66011
  4.000E+01 1.003E+02 2.037E+00 3.870E-05 0.000E+00 0.000E+00 3.870E-05 2.037E+00 1.224E+01  0.0444 0.68834
  4.500E+01 1.074E+02 1.926E+00 4.180E-05 0.000E+00 0.000E+00 4.180E-05 1.926E+00 1.476E+01  0.0509 0.71286
  5.000E+01 1.143E+02 1.837E+00 4.487E-05 0.000E+00 0.000E+00 4.487E-05 1.837E+00 1.742E+01  0.0577 0.73434
  5.500E+01 1.210E+02 1.765E+00 4.792E-05 0.000E+00 0.000E+00 4.792E-05 1.765E+00 2.020E+01  0.0647 0.75332
  6.000E+01 1.276E+02 1.706E+00 5.097E-05 0.000E+00 0.000E+00 5.097E-05 1.706E+00 2.308E+01  0.0719 0.77019
  7.000E+01 1.403E+02 1.615E+00 5.708E-05 0.000E+00 0.000E+00 5.708E-05 1.615E+00 2.911E+01  0.0869 0.79887
  8.000E+01 1.527E+02 1.548E+00 6.327E-05 0.000E+00 0.000E+00 6.327E-05 1.548E+00 3.543E+01  0.1029 0.82227
  9.000E+01 1.647E+02 1.499E+00 6.956E-05 0.000E+00 0.000E+00 6.956E-05 1.499E+00 4.200E+01  0.1197 0.84166
  1.000E+02 1.764E+02 1.461E+00 7.596E-05 0.000E+00 0.000E+00 7.596E-05 1.461E+00 4.876E+01  0.1374 0.85794
  1.200E+02 1.994E+02 1.409E+00 8.913E-05 0.000E+00 0.000E+00 8.913E-05 1.410E+00 6.270E+01  0.1634 0.88361
  1.400E+02 2.218E+02 1.377E+00 1.028E-04 0.000E+00 0.000E+00 1.028E-04 1.377E+00 7.705E+01  0.1904 0.90278
  1.700E+02 2.546E+02 1.350E+00 1.244E-04 0.000E+00 0.000E+00 1.244E-04 1.350E+00 9.905E+01  0.2351 0.92363
  2.000E+02 2.868E+02 1.336E+00 1.471E-04 0.000E+00 0.000E+00 1.471E-04 1.336E+00 1.214E+02  0.2822 0.93835
  2.500E+02 3.396E+02 1.330E+00 1.873E-04 0.000E+00 0.000E+00 1.873E-04 1.330E+00 1.589E+02  0.3621 0.95485
  3.000E+02 3.917E+02 1.333E+00 2.303E-04 0.000E+00 0.000E+00 2.303E-04 1.333E+00 1.965E+02  0.4412 0.96548
  3.500E+02 4.432E+02 1.341E+00 2.759E-04 0.000E+00 0.000E+00 2.759E-04 1.341E+00 2.339E+02  0.5182 0.97274
  4.000E+02 4.945E+02 1.350E+00 3.238E-04 1.821E-05 0.000E+00 3.420E-04 1.351E+00 2.710E+02  0.5927 0.97793
  4.500E+02 5.455E+02 1.361E+00 3.739E-04 3.105E-05 0.000E+00 4.049E-04 1.361E+00 3.079E+02  0.6644 0.98176
  5.000E+02 5.964E+02 1.372E+00 4.259E-04 4.642E-05 0.000E+00 4.724E-04 1.372E+00 3.445E+02  0.7335 0.98467
  5.500E+02 6.471E+02 1.383E+00 4.799E-04 6.458E-05 0.000E+00 5.445E-04 1.383E+00 3.807E+02  0.8001 0.98693
  6.000E+02 6.977E+02 1.394E+00 5.356E-04 8.545E-05 0.000E+00 6.211E-04 1.394E+00 4.167E+02  0.8642 0.98873
  7.000E+02 7.987E+02 1.414E+00 6.519E-04 1.350E-04 0.000E+00 7.869E-04 1.415E+00 4.879E+02  0.9857 0.99136
  8.000E+02 8.995E+02 1.433E+00 7.741E-04 1.942E-04 0.000E+00 9.684E-04 1.434E+00 5.582E+02  1.0990 0.99317
  9.000E+02 1.000E+03 1.450E+00 9.017E-04 2.627E-04 0.000E+00 1.164E-03 1.451E+00 6.275E+02  1.2053 0.99447
  1.000E+03 1.101E+03 1.466E+00 1.034E-03 3.398E-04 0.000E+00 1.374E-03 1.467E+00 6.960E+02  1.3052 0.99542
  1.200E+03 1.301E+03 1.494E+00 1.312E-03 5.179E-04 2.248E-05 1.853E-03 1.496E+00 8.311E+02  1.4891 0.99672
  1.400E+03 1.502E+03 1.518E+00 1.606E-03 7.251E-04 6.108E-05 2.393E-03 1.521E+00 9.637E+02  1.6550 0.99753
  1.700E+03 1.803E+03 1.549E+00 2.073E-03 1.084E-03 1.297E-04 3.286E-03 1.552E+00 1.159E+03  1.8773 0.99829
  2.000E+03 2.103E+03 1.575E+00 2.565E-03 1.495E-03 2.098E-04 4.269E-03 1.579E+00 1.351E+03  2.0745 0.99874
  2.500E+03 2.604E+03 1.610E+00 3.435E-03 2.278E-03 3.630E-04 6.076E-03 1.616E+00 1.663E+03  2.3610 0.99918
  3.000E+03 3.104E+03 1.639E+00 4.357E-03 3.166E-03 5.221E-04 8.046E-03 1.647E+00 1.970E+03  2.6080 0.99942
  3.500E+03 3.604E+03 1.663E+00 5.324E-03 4.146E-03 6.893E-04 1.016E-02 1.673E+00 2.271E+03  2.8254 0.99957
  4.000E+03 4.104E+03 1.683E+00 6.328E-03 5.216E-03 8.670E-04 1.241E-02 1.695E+00 2.568E+03  3.0198 0.99967
  4.500E+03 4.604E+03 1.700E+00 7.367E-03 6.363E-03 1.051E-03 1.478E-02 1.715E+00 2.861E+03  3.1958 0.99974
  5.000E+03 5.105E+03 1.716E+00 8.435E-03 7.574E-03 1.227E-03 1.724E-02 1.733E+00 3.151E+03  3.3567 0.99979
  5.500E+03 5.605E+03 1.730E+00 9.531E-03 8.845E-03 1.416E-03 1.979E-02 1.749E+00 3.439E+03  3.5049 0.99982
  6.000E+03 6.105E+03 1.742E+00 1.065E-02 1.017E-02 1.592E-03 2.241E-02 1.764E+00 3.723E+03  3.6424 0.99985
  7.000E+03 7.105E+03 1.764E+00 1.296E-02 1.296E-02 1.963E-03 2.788E-02 1.792E+00 4.286E+03  3.8909 0.99989
  8.000E+03 8.105E+03 1.782E+00 1.534E-02 1.592E-02 2.331E-03 3.360E-02 1.816E+00 4.840E+03  4.1109 0.99992
  9.000E+03 9.105E+03 1.798E+00 1.780E-02 1.903E-02 2.675E-03 3.951E-02 1.837E+00 5.388E+03  4.3084 0.99993
  1.000E+04 1.011E+04 1.812E+00 2.032E-02 2.227E-02 3.030E-03 4.562E-02 1.857E+00 5.929E+03  4.4878 0.99995
  1.200E+04 1.211E+04 1.835E+00 2.551E-02 2.910E-02 3.746E-03 5.836E-02 1.894E+00 6.996E+03  4.8039 0.99996
  1.400E+04 1.411E+04 1.854E+00 3.088E-02 3.632E-02 4.462E-03 7.167E-02 1.926E+00 8.043E+03  5.0762 0.99997
  1.700E+04 1.711E+04 1.878E+00 3.923E-02 4.775E-02 5.518E-03 9.250E-02 1.970E+00 9.583E+03  5.4255 0.99998
  2.000E+04 2.011E+04 1.897E+00 4.787E-02 5.978E-02 6.552E-03 1.142E-01 2.011E+00 1.109E+04  5.7227 0.99999
  2.500E+04 2.511E+04 1.922E+00 6.278E-02 8.090E-02 8.243E-03 1.519E-01 2.074E+00 1.354E+04  6.1374 0.99999
  3.000E+04 3.011E+04 1.942E+00 7.822E-02 1.031E-01 9.898E-03 1.912E-01 2.133E+00 1.592E+04  6.4812 0.99999
  3.500E+04 3.511E+04 1.959E+00 9.410E-02 1.261E-01 1.157E-02 2.318E-01 2.190E+00 1.823E+04  6.7750 1.00000
  4.000E+04 4.011E+04 1.972E+00 1.103E-01 1.498E-01 1.321E-02 2.734E-01 2.246E+00 2.048E+04  7.0317 1.00000
  4.500E+04 4.511E+04 1.984E+00 1.269E-01 1.742E-01 1.484E-02 3.159E-01 2.300E+00 2.268E+04  7.2595 1.00000
  5.000E+04 5.011E+04 1.995E+00 1.437E-01 1.990E-01 1.646E-02 3.592E-01 2.354E+00 2.483E+04  7.4643 1.00000
  5.500E+04 5.511E+04 2.004E+00 1.608E-01 2.243E-01 1.809E-02 4.031E-01 2.407E+00 2.693E+04  7.6503 1.00000
  6.000E+04 6.011E+04 2.013E+00 1.781E-01 2.499E-01 1.970E-02 4.477E-01 2.460E+00 2.899E+04  7.8208 1.00000
  7.000E+04 7.011E+04 2.028E+00 2.132E-01 3.022E-01 2.289E-02 5.384E-01 2.566E+00 3.297E+04  8.1240 1.00000
  8.000E+04 8.011E+04 2.040E+00 2.491E-01 3.556E-01 2.609E-02 6.308E-01 2.671E+00 3.679E+04  8.3878 1.00000
  9.000E+04 9.011E+04 2.051E+00 2.855E-01 4.100E-01 2.929E-02 7.247E-01 2.776E+00 4.046E+04  8.6211 1.00000
  1.000E+05 1.001E+05 2.061E+00 3.223E-01 4.651E-01 3.242E-02 8.199E-01 2.881E+00 4.400E+04  8.8304 1.00000
  1.200E+05 1.201E+05 2.078E+00 3.973E-01 5.773E-01 3.880E-02 1.013E+00 3.091E+00 5.070E+04  9.1933 1.00000
  1.400E+05 1.401E+05 2.092E+00 4.738E-01 6.916E-01 4.516E-02 1.211E+00 3.302E+00 5.697E+04  9.5008 1.00000
  1.700E+05 1.701E+05 2.109E+00 5.904E-01 8.660E-01 5.471E-02 1.511E+00 3.621E+00 6.565E+04  9.8886 1.00000
  2.000E+05 2.001E+05 2.124E+00 7.092E-01 1.043E+00 6.430E-02 1.817E+00 3.941E+00 7.360E+04 10.2135 1.00000
  2.500E+05 2.501E+05 2.144E+00 9.106E-01 1.343E+00 8.032E-02 2.334E+00 4.478E+00 8.553E+04 10.6596 1.00000
  3.000E+05 3.001E+05 2.160E+00 1.115E+00 1.647E+00 9.645E-02 2.859E+00 5.019E+00 9.609E+04 11.0241 1.00000
  3.500E+05 3.501E+05 2.174E+00 1.323E+00 1.954E+00 1.127E-01 3.390E+00 5.564E+00 1.056E+05 11.3323 1.00000
  4.000E+05 4.001E+05 2.186E+00 1.533E+00 2.264E+00 1.291E-01 3.925E+00 6.111E+00 1.142E+05 11.5992 1.00000
  4.500E+05 4.501E+05 2.197E+00 1.744E+00 2.575E+00 1.456E-01 4.465E+00 6.662E+00 1.220E+05 11.8348 1.00000
  5.000E+05 5.001E+05 2.206E+00 1.957E+00 2.888E+00 1.622E-01 5.008E+00 7.214E+00 1.292E+05 12.0454 1.00000
  5.500E+05 5.501E+05 2.215E+00 2.171E+00 3.203E+00 1.787E-01 5.553E+00 7.768E+00 1.359E+05 12.2360 1.00000
  6.000E+05 6.001E+05 2.223E+00 2.387E+00 3.518E+00 1.952E-01 6.101E+00 8.323E+00 1.421E+05 12.4100 1.00000
  7.000E+05 7.001E+05 2.237E+00 2.821E+00 4.152E+00 2.286E-01 7.202E+00 9.439E+00 1.534E+05 12.7183 1.00000
  8.000E+05 8.001E+05 2.249E+00 3.258E+00 4.790E+00 2.623E-01 8.310E+00 1.056E+01 1.635E+05 12.9853 1.00000
  9.000E+05 9.001E+05 2.259E+00 3.698E+00 5.429E+00 2.964E-01 9.424E+00 1.168E+01 1.725E+05 13.2208 1.00000
  1.000E+06 1.000E+06 2.269E+00 4.140E+00 6.071E+00 3.307E-01 1.054E+01 1.281E+01 1.807E+05 13.4315 1.00000
  1.200E+06 1.200E+06 2.286E+00 5.030E+00 7.358E+00 4.003E-01 1.279E+01 1.508E+01 1.951E+05 13.7961 1.00000
  1.400E+06 1.400E+06 2.300E+00 5.926E+00 8.651E+00 4.708E-01 1.505E+01 1.735E+01 2.075E+05 14.1044 1.00000
  1.700E+06 1.700E+06 2.318E+00 7.279E+00 1.060E+01 5.782E-01 1.845E+01 2.077E+01 2.234E+05 14.4927 1.00000
  2.000E+06 2.000E+06 2.333E+00 8.639E+00 1.255E+01 6.873E-01 2.187E+01 2.421E+01 2.368E+05 14.8177 1.00000
  2.500E+06 2.500E+06 2.354E+00 1.092E+01 1.581E+01 8.724E-01 2.760E+01 2.996E+01 2.554E+05 15.2640 1.00000
  3.000E+06 3.000E+06 2.372E+00 1.321E+01 1.908E+01 1.061E+00 3.335E+01 3.572E+01 2.708E+05 15.6286 1.00000
  3.500E+06 3.500E+06 2.386E+00 1.551E+01 2.236E+01 1.253E+00 3.912E+01 4.151E+01 2.838E+05 15.9369 1.00000
  4.000E+06 4.000E+06 2.399E+00 1.782E+01 2.564E+01 1.447E+00 4.490E+01 4.730E+01 2.951E+05 16.2039 1.00000
  4.500E+06 4.500E+06 2.411E+00 2.013E+01 2.893E+01 1.644E+00 5.070E+01 5.311E+01 3.051E+05 16.4395 1.00000
  5.000E+06 5.000E+06 2.421E+00 2.244E+01 3.221E+01 1.843E+00 5.650E+01 5.892E+01 3.141E+05 16.6502 1.00000
  5.500E+06 5.500E+06 2.430E+00 2.476E+01 3.550E+01 2.044E+00 6.231E+01 6.474E+01 3.222E+05 16.8408 1.00000
  6.000E+06 6.000E+06 2.439E+00 2.709E+01 3.880E+01 2.247E+00 6.813E+01 7.057E+01 3.296E+05 17.0149 1.00000
  7.000E+06 7.000E+06 2.454E+00 3.174E+01 4.538E+01 2.658E+00 7.978E+01 8.224E+01 3.427E+05 17.3231 1.00000
  8.000E+06 8.000E+06 2.467E+00 3.640E+01 5.198E+01 3.075E+00 9.146E+01 9.392E+01 3.541E+05 17.5902 1.00000
  9.000E+06 9.000E+06 2.479E+00 4.107E+01 5.858E+01 3.498E+00 1.031E+02 1.056E+02 3.642E+05 17.8258 1.00000
  1.000E+07 1.000E+07 2.490E+00 4.574E+01 6.518E+01 3.925E+00 1.148E+02 1.173E+02 3.732E+05 18.0365 1.00000
  1.200E+07 1.200E+07 2.508E+00 5.510E+01 7.839E+01 4.793E+00 1.383E+02 1.408E+02 3.888E+05 18.4011 1.00000
  1.400E+07 1.400E+07 2.524E+00 6.447E+01 9.161E+01 5.677E+00 1.618E+02 1.643E+02 4.020E+05 18.7094 1.00000
  1.700E+07 1.700E+07 2.544E+00 7.855E+01 1.114E+02 7.027E+00 1.970E+02 1.996E+02 4.187E+05 19.0977 1.00000
  2.000E+07 2.000E+07 2.560E+00 9.263E+01 1.313E+02 8.403E+00 2.323E+02 2.349E+02 4.326E+05 19.4228 1.00000
  2.500E+07 2.500E+07 2.584E+00 1.161E+02 1.644E+02 1.075E+01 2.913E+02 2.938E+02 4.517E+05 19.8691 1.00000
  3.000E+07 3.000E+07 2.603E+00 1.397E+02 1.975E+02 1.314E+01 3.503E+02 3.529E+02 4.673E+05 20.2337 1.00000
  3.500E+07 3.500E+07 2.619E+00 1.632E+02 2.306E+02 1.558E+01 4.094E+02 4.120E+02 4.805E+05 20.5420 1.00000
  4.000E+07 4.000E+07 2.633E+00 1.868E+02 2.637E+02 1.806E+01 4.685E+02 4.711E+02 4.918E+05 20.8091 1.00000
  4.500E+07 4.500E+07 2.646E+00 2.103E+02 2.968E+02 2.057E+01 5.277E+02 5.303E+02 5.019E+05 21.0446 1.00000
  5.000E+07 5.000E+07 2.657E+00 2.339E+02 3.299E+02 2.311E+01 5.869E+02 5.896E+02 5.108E+05 21.2553 1.00000
  5.500E+07 5.500E+07 2.668E+00 2.574E+02 3.631E+02 2.568E+01 6.462E+02 6.488E+02 5.189E+05 21.4460 1.00000
  6.000E+07 6.000E+07 2.677E+00 2.810E+02 3.962E+02 2.828E+01 7.055E+02 7.082E+02 5.263E+05 21.6200 1.00000
  7.000E+07 7.000E+07 2.694E+00 3.282E+02 4.624E+02 3.355E+01 8.242E+02 8.269E+02 5.394E+05 21.9283 1.00000
  8.000E+07 8.000E+07 2.709E+00 3.754E+02 5.287E+02 3.890E+01 9.429E+02 9.457E+02 5.507E+05 22.1954 1.00000
  9.000E+07 9.000E+07 2.722E+00 4.225E+02 5.950E+02 4.433E+01 1.062E+03 1.065E+03 5.607E+05 22.4309 1.00000
  1.000E+08 1.000E+08 2.734E+00 4.697E+02 6.612E+02 4.982E+01 1.181E+03 1.184E+03 5.696E+05 22.6416 1.00000
  1.200E+08 1.200E+08 2.754E+00 5.641E+02 7.938E+02 6.100E+01 1.419E+03 1.422E+03 5.851E+05 23.0063 1.00000
  1.400E+08 1.400E+08 2.772E+00 6.585E+02 9.263E+02 7.239E+01 1.657E+03 1.660E+03 5.982E+05 23.3146 1.00000
  1.700E+08 1.700E+08 2.794E+00 8.002E+02 1.125E+03 8.982E+01 2.015E+03 2.018E+03 6.146E+05 23.7029 1.00000
  2.000E+08 2.000E+08 2.813E+00 9.418E+02 1.324E+03 1.076E+02 2.373E+03 2.376E+03 6.284E+05 24.0279 1.00000
  2.500E+08 2.500E+08 2.838E+00 1.178E+03 1.655E+03 1.379E+02 2.971E+03 2.974E+03 6.473E+05 24.4742 1.00000
  3.000E+08 3.000E+08 2.860E+00 1.414E+03 1.987E+03 1.689E+02 3.570E+03 3.573E+03 6.627E+05 24.8389 1.00000
  3.500E+08 3.500E+08 2.878E+00 1.650E+03 2.318E+03 2.006E+02 4.169E+03 4.172E+03 6.757E+05 25.1472 1.00000
  4.000E+08 4.000E+08 2.894E+00 1.886E+03 2.650E+03 2.327E+02 4.769E+03 4.771E+03 6.869E+05 25.4142 1.00000
  4.500E+08 4.500E+08 2.908E+00 2.122E+03 2.981E+03 2.654E+02 5.369E+03 5.372E+03 6.968E+05 25.6498 1.00000
  5.000E+08 5.000E+08 2.921E+00 2.359E+03 3.312E+03 2.984E+02 5.969E+03 5.972E+03 7.057E+05 25.8605 1.00000
  5.500E+08 5.500E+08 2.932E+00 2.595E+03 3.644E+03 3.319E+02 6.570E+03 6.573E+03 7.137E+05 26.0511 1.00000
  6.000E+08 6.000E+08 2.943E+00 2.831E+03 3.975E+03 3.657E+02 7.172E+03 7.175E+03 7.210E+05 26.2252 1.00000
  7.000E+08 7.000E+08 2.962E+00 3.303E+03 4.638E+03 4.343E+02 8.375E+03 8.378E+03 7.339E+05 26.5335 1.00000
  8.000E+08 8.000E+08 2.978E+00 3.776E+03 5.301E+03 5.041E+02 9.580E+03 9.583E+03 7.451E+05 26.8005 1.00000
  9.000E+08 9.000E+08 2.993E+00 4.248E+03 5.963E+03 5.749E+02 1.079E+04 1.079E+04 7.549E+05 27.0361 1.00000
  1.000E+09 1.000E+09 3.006E+00 4.720E+03 6.626E+03 6.467E+02 1.199E+04 1.200E+04 7.637E+05 27.2468 1.00000
