 Incident particle is a Muon with M = 105.65839 MeV
 Index = 0: MuscleEquivalentLiquidWithSucrose
      Absorber with <Z/A> = 0.54821
 Sternheimer coef:  a     k=m_s   x_0    x_1    I[eV]   Cbar  delta0
                 0.0948  3.4699  0.2098  2.7550   74.3  3.3910 0.00

 *** Table generated with PUMAS v1.00 ***

      T         p     Ionization  brems     pair     photonuc  Radloss    dE/dx   CSDA Range  delta   beta
    [MeV]    [MeV/c]  -----------------------[MeV cm^2/g]------------------------  [g/cm^2]
  1.000E+00 1.457E+01 5.000E+01 7.635E-07 0.000E+00 0.000E+00 7.635E-07 5.000E+01 1.000E-02  0.0000 0.13661
  1.200E+00 1.597E+01 4.314E+01 8.747E-07 0.000E+00 0.000E+00 8.747E-07 4.314E+01 1.432E-02  0.0000 0.14944
  1.400E+00 1.726E+01 3.806E+01 9.810E-07 0.000E+00 0.000E+00 9.810E-07 3.806E+01 1.926E-02  0.0000 0.16119
  1.700E+00 1.903E+01 3.249E+01 1.133E-06 0.000E+00 0.000E+00 1.133E-06 3.249E+01 2.782E-02  0.0000 0.17725
  2.000E+00 2.066E+01 2.846E+01 1.276E-06 0.000E+00 0.000E+00 1.276E-06 2.846E+01 3.771E-02  0.0000 0.19186
  2.500E+00 2.312E+01 2.372E+01 1.502E-06 0.000E+00 0.000E+00 1.502E-06 2.372E+01 5.703E-02  0.0000 0.21376
  3.000E+00 2.536E+01 2.045E+01 1.713E-06 0.000E+00 0.000E+00 1.713E-06 2.045E+01 7.979E-02  0.0000 0.23336
  3.500E+00 2.742E+01 1.804E+01 1.912E-06 0.000E+00 0.000E+00 1.912E-06 1.804E+01 1.059E-01  0.0000 0.25120
  4.000E+00 2.935E+01 1.620E+01 2.101E-06 0.000E+00 0.000E+00 2.101E-06 1.620E+01 1.352E-01  0.0000 0.26763
  4.500E+00 3.116E+01 1.473E+01 2.282E-06 0.000E+00 0.000E+00 2.282E-06 1.473E+01 1.676E-01  0.0000 0.28290
  5.000E+00 3.289E+01 1.353E+01 2.455E-06 0.000E+00 0.000E+00 2.455E-06 1.353E+01 2.030E-01  0.0000 0.29720
  5.500E+00 3.453E+01 1.254E+01 2.621E-06 0.000E+00 0.000E+00 2.621E-06 1.254E+01 2.414E-01  0.0000 0.31066
  6.000E+00 3.611E+01 1.171E+01 2.782E-06 0.000E+00 0.000E+00 2.782E-06 1.171E+01 2.827E-01  0.0000 0.32339
  7.000E+00 3.909E+01 1.037E+01 3.088E-06 0.000E+00 0.000E+00 3.088E-06 1.037E+01 3.737E-01  0.0000 0.34700
  8.000E+00 4.189E+01 9.343E+00 3.376E-06 0.000E+00 0.000E+00 3.376E-06 9.343E+00 4.754E-01  0.0000 0.36854
  9.000E+00 4.453E+01 8.533E+00 3.650E-06 0.000E+00 0.000E+00 3.650E-06 8.533E+00 5.875E-01  0.0000 0.38836
  1.000E+01 4.704E+01 7.876E+00 3.911E-06 0.000E+00 0.000E+00 3.911E-06 7.876E+00 7.096E-01  0.0000 0.40675
  1.200E+01 5.177E+01 6.873E+00 4.403E-06 0.000E+00 0.000E+00 4.403E-06 6.873E+00 9.821E-01  0.0000 0.43998
  1.400E+01 5.616E+01 6.143E+00 4.861E-06 0.000E+00 0.000E+00 4.861E-06 6.143E+00 1.290E+00  0.0000 0.46937
  1.700E+01 6.230E+01 5.357E+00 5.500E-06 0.000E+00 0.000E+00 5.500E-06 5.357E+00 1.815E+00  0.0000 0.50792
  2.000E+01 6.802E+01 4.797E+00 6.096E-06 0.000E+00 0.000E+00 6.096E-06 4.797E+00 2.407E+00  0.0000 0.54129
  2.500E+01 7.686E+01 4.155E+00 7.021E-06 0.000E+00 0.000E+00 7.021E-06 4.155E+00 3.530E+00  0.0000 0.58827
  3.000E+01 8.509E+01 3.722E+00 7.888E-06 0.000E+00 0.000E+00 7.888E-06 3.722E+00 4.804E+00  0.0000 0.62720
  3.500E+01 9.285E+01 3.411E+00 8.717E-06 0.000E+00 0.000E+00 8.717E-06 3.411E+00 6.208E+00  0.0000 0.66011
  4.000E+01 1.003E+02 3.178E+00 9.520E-06 0.000E+00 0.000E+00 9.520E-06 3.178E+00 7.728E+00  0.0000 0.68834
  4.500E+01 1.074E+02 2.997E+00 1.031E-05 0.000E+00 0.000E+00 1.031E-05 2.997E+00 9.349E+00  0.0000 0.71286
  5.000E+01 1.143E+02 2.853E+00 1.108E-05 0.000E+00 0.000E+00 1.108E-05 2.853E+00 1.106E+01  0.0000 0.73434
  5.500E+01 1.210E+02 2.737E+00 1.185E-05 0.000E+00 0.000E+00 1.185E-05 2.737E+00 1.285E+01  0.0000 0.75332
  6.000E+01 1.276E+02 2.641E+00 1.262E-05 0.000E+00 0.000E+00 1.262E-05 2.641E+00 1.471E+01  0.0000 0.77019
  7.000E+01 1.403E+02 2.493E+00 1.416E-05 0.000E+00 0.000E+00 1.416E-05 2.493E+00 1.861E+01  0.0000 0.79887
  8.000E+01 1.527E+02 2.386E+00 1.570E-05 0.000E+00 0.000E+00 1.570E-05 2.386E+00 2.271E+01  0.0000 0.82227
  9.000E+01 1.647E+02 2.305E+00 1.727E-05 0.000E+00 0.000E+00 1.727E-05 2.305E+00 2.697E+01  0.0000 0.84166
  1.000E+02 1.764E+02 2.242E+00 1.885E-05 0.000E+00 0.000E+00 1.885E-05 2.242E+00 3.137E+01  0.0167 0.85794
  1.200E+02 1.994E+02 2.148E+00 2.210E-05 0.000E+00 0.000E+00 2.210E-05 2.148E+00 4.049E+01  0.0924 0.88361
  1.400E+02 2.218E+02 2.087E+00 2.547E-05 0.000E+00 0.000E+00 2.547E-05 2.087E+00 4.993E+01  0.1653 0.90278
  1.700E+02 2.546E+02 2.031E+00 3.074E-05 4.509E-14 0.000E+00 3.074E-05 2.031E+00 6.451E+01  0.2694 0.92363
  2.000E+02 2.868E+02 1.998E+00 3.626E-05 1.008E-11 0.000E+00 3.626E-05 1.998E+00 7.940E+01  0.3677 0.93835
  2.500E+02 3.396E+02 1.972E+00 4.601E-05 8.278E-08 0.000E+00 4.609E-05 1.972E+00 1.046E+02  0.5198 0.95485
  3.000E+02 3.917E+02 1.964E+00 5.638E-05 7.364E-07 0.000E+00 5.712E-05 1.964E+00 1.300E+02  0.6594 0.96548
  3.500E+02 4.432E+02 1.965E+00 6.732E-05 2.027E-06 0.000E+00 6.935E-05 1.965E+00 1.554E+02  0.7886 0.97274
  4.000E+02 4.945E+02 1.970E+00 7.878E-05 3.925E-06 0.000E+00 8.271E-05 1.970E+00 1.809E+02  0.9087 0.97793
  4.500E+02 5.455E+02 1.978E+00 9.073E-05 6.409E-06 0.000E+00 9.714E-05 1.978E+00 2.062E+02  1.0212 0.98176
  5.000E+02 5.964E+02 1.987E+00 1.031E-04 9.458E-06 0.000E+00 1.126E-04 1.987E+00 2.314E+02  1.1269 0.98467
  5.500E+02 6.471E+02 1.996E+00 1.159E-04 1.305E-05 0.000E+00 1.290E-04 1.996E+00 2.565E+02  1.2267 0.98693
  6.000E+02 6.977E+02 2.006E+00 1.291E-04 1.717E-05 0.000E+00 1.463E-04 2.006E+00 2.815E+02  1.3212 0.98873
  7.000E+02 7.987E+02 2.025E+00 1.566E-04 2.692E-05 0.000E+00 1.835E-04 2.025E+00 3.311E+02  1.4966 0.99136
  8.000E+02 8.995E+02 2.044E+00 1.854E-04 3.858E-05 0.000E+00 2.240E-04 2.044E+00 3.803E+02  1.6566 0.99317
  9.000E+02 1.000E+03 2.061E+00 2.153E-04 5.201E-05 0.000E+00 2.674E-04 2.062E+00 4.290E+02  1.8038 0.99447
  1.000E+03 1.101E+03 2.078E+00 2.464E-04 6.712E-05 0.000E+00 3.135E-04 2.078E+00 4.773E+02  1.9402 0.99542
  1.200E+03 1.301E+03 2.107E+00 3.114E-04 1.020E-04 2.256E-05 4.360E-04 2.108E+00 5.729E+02  2.1864 0.99672
  1.400E+03 1.502E+03 2.133E+00 3.799E-04 1.425E-04 6.181E-05 5.842E-04 2.133E+00 6.672E+02  2.4042 0.99753
  1.700E+03 1.803E+03 2.166E+00 4.883E-04 2.127E-04 1.327E-04 8.336E-04 2.166E+00 8.067E+02  2.6906 0.99829
  2.000E+03 2.103E+03 2.193E+00 6.025E-04 2.929E-04 2.164E-04 1.112E-03 2.195E+00 9.443E+02  2.9400 0.99874
  2.500E+03 2.604E+03 2.232E+00 8.038E-04 4.458E-04 3.789E-04 1.629E-03 2.233E+00 1.170E+03  3.2957 0.99918
  3.000E+03 3.104E+03 2.263E+00 1.017E-03 6.196E-04 5.501E-04 2.187E-03 2.265E+00 1.393E+03  3.5969 0.99942
  3.500E+03 3.604E+03 2.289E+00 1.240E-03 8.111E-04 7.321E-04 2.783E-03 2.291E+00 1.612E+03  3.8584 0.99957
  4.000E+03 4.104E+03 2.311E+00 1.472E-03 1.034E-03 9.269E-04 3.432E-03 2.314E+00 1.829E+03  4.0895 0.99967
  4.500E+03 4.604E+03 2.330E+00 1.711E-03 1.277E-03 1.130E-03 4.118E-03 2.334E+00 2.044E+03  4.2968 0.99974
  5.000E+03 5.105E+03 2.347E+00 1.957E-03 1.535E-03 1.325E-03 4.818E-03 2.352E+00 2.258E+03  4.4846 0.99979
  5.500E+03 5.605E+03 2.362E+00 2.210E-03 1.806E-03 1.537E-03 5.553E-03 2.368E+00 2.470E+03  4.6565 0.99982
  6.000E+03 6.105E+03 2.376E+00 2.468E-03 2.089E-03 1.733E-03 6.291E-03 2.383E+00 2.680E+03  4.8148 0.99985
  7.000E+03 7.105E+03 2.400E+00 3.001E-03 2.689E-03 2.151E-03 7.841E-03 2.408E+00 3.098E+03  5.0986 0.99989
  8.000E+03 8.105E+03 2.421E+00 3.552E-03 3.328E-03 2.567E-03 9.447E-03 2.430E+00 3.511E+03  5.3476 0.99992
  9.000E+03 9.105E+03 2.439E+00 4.119E-03 4.001E-03 2.959E-03 1.108E-02 2.450E+00 3.921E+03  5.5693 0.99993
  1.000E+04 1.011E+04 2.454E+00 4.701E-03 4.705E-03 3.363E-03 1.277E-02 2.467E+00 4.327E+03  5.7692 0.99995
  1.200E+04 1.211E+04 2.481E+00 5.903E-03 6.194E-03 4.186E-03 1.628E-02 2.497E+00 5.133E+03  6.1183 0.99996
  1.400E+04 1.411E+04 2.503E+00 7.150E-03 7.776E-03 5.012E-03 1.994E-02 2.523E+00 5.930E+03  6.4162 0.99997
  1.700E+04 1.711E+04 2.530E+00 9.089E-03 1.029E-02 6.239E-03 2.562E-02 2.556E+00 7.112E+03  6.7945 0.99998
  2.000E+04 2.011E+04 2.552E+00 1.110E-02 1.296E-02 7.446E-03 3.150E-02 2.583E+00 8.279E+03  7.1133 0.99999
  2.500E+04 2.511E+04 2.581E+00 1.458E-02 1.766E-02 9.433E-03 4.167E-02 2.623E+00 1.020E+04  7.5535 0.99999
  3.000E+04 3.011E+04 2.605E+00 1.819E-02 2.262E-02 1.139E-02 5.220E-02 2.657E+00 1.209E+04  7.9150 0.99999
  3.500E+04 3.511E+04 2.624E+00 2.191E-02 2.781E-02 1.337E-02 6.309E-02 2.687E+00 1.397E+04  8.2214 1.00000
  4.000E+04 4.011E+04 2.641E+00 2.573E-02 3.317E-02 1.533E-02 7.423E-02 2.715E+00 1.582E+04  8.4873 1.00000
  4.500E+04 4.511E+04 2.655E+00 2.962E-02 3.869E-02 1.726E-02 8.558E-02 2.741E+00 1.765E+04  8.7222 1.00000
  5.000E+04 5.011E+04 2.668E+00 3.359E-02 4.434E-02 1.920E-02 9.714E-02 2.765E+00 1.947E+04  8.9324 1.00000
  5.500E+04 5.511E+04 2.679E+00 3.762E-02 5.012E-02 2.116E-02 1.089E-01 2.788E+00 2.127E+04  9.1226 1.00000
  6.000E+04 6.011E+04 2.690E+00 4.171E-02 5.599E-02 2.310E-02 1.208E-01 2.811E+00 2.305E+04  9.2963 1.00000
  7.000E+04 7.011E+04 2.708E+00 5.004E-02 6.802E-02 2.694E-02 1.450E-01 2.853E+00 2.658E+04  9.6041 1.00000
  8.000E+04 8.011E+04 2.724E+00 5.855E-02 8.036E-02 3.081E-02 1.697E-01 2.893E+00 3.006E+04  9.8708 1.00000
  9.000E+04 9.011E+04 2.737E+00 6.720E-02 9.297E-02 3.467E-02 1.948E-01 2.932E+00 3.350E+04 10.1061 1.00000
  1.000E+05 1.001E+05 2.749E+00 7.599E-02 1.058E-01 3.847E-02 2.203E-01 2.970E+00 3.689E+04 10.3165 1.00000
  1.200E+05 1.201E+05 2.770E+00 9.391E-02 1.320E-01 4.621E-02 2.721E-01 3.042E+00 4.354E+04 10.6808 1.00000
  1.400E+05 1.401E+05 2.788E+00 1.122E-01 1.589E-01 5.396E-02 3.250E-01 3.113E+00 5.004E+04 10.9889 1.00000
  1.700E+05 1.701E+05 2.810E+00 1.402E-01 2.000E-01 6.561E-02 4.059E-01 3.216E+00 5.952E+04 11.3769 1.00000
  2.000E+05 2.001E+05 2.828E+00 1.688E-01 2.420E-01 7.733E-02 4.882E-01 3.316E+00 6.871E+04 11.7018 1.00000
  2.500E+05 2.501E+05 2.853E+00 2.175E-01 3.135E-01 9.694E-02 6.279E-01 3.481E+00 8.343E+04 12.1479 1.00000
  3.000E+05 3.001E+05 2.873E+00 2.672E-01 3.863E-01 1.167E-01 7.702E-01 3.644E+00 9.748E+04 12.5124 1.00000
  3.500E+05 3.501E+05 2.891E+00 3.177E-01 4.601E-01 1.367E-01 9.145E-01 3.805E+00 1.109E+05 12.8206 1.00000
  4.000E+05 4.001E+05 2.906E+00 3.687E-01 5.347E-01 1.569E-01 1.060E+00 3.966E+00 1.238E+05 13.0875 1.00000
  4.500E+05 4.501E+05 2.919E+00 4.204E-01 6.100E-01 1.771E-01 1.208E+00 4.127E+00 1.361E+05 13.3231 1.00000
  5.000E+05 5.001E+05 2.931E+00 4.725E-01 6.859E-01 1.976E-01 1.356E+00 4.287E+00 1.480E+05 13.5337 1.00000
  5.500E+05 5.501E+05 2.942E+00 5.251E-01 7.622E-01 2.179E-01 1.505E+00 4.447E+00 1.595E+05 13.7243 1.00000
  6.000E+05 6.001E+05 2.952E+00 5.780E-01 8.389E-01 2.383E-01 1.655E+00 4.607E+00 1.705E+05 13.8983 1.00000
  7.000E+05 7.001E+05 2.969E+00 6.847E-01 9.933E-01 2.795E-01 1.957E+00 4.926E+00 1.915E+05 14.2066 1.00000
  8.000E+05 8.001E+05 2.984E+00 7.925E-01 1.149E+00 3.211E-01 2.262E+00 5.247E+00 2.112E+05 14.4736 1.00000
  9.000E+05 9.001E+05 2.998E+00 9.011E-01 1.305E+00 3.632E-01 2.569E+00 5.567E+00 2.297E+05 14.7091 1.00000
  1.000E+06 1.000E+06 3.010E+00 1.011E+00 1.462E+00 4.056E-01 2.878E+00 5.888E+00 2.472E+05 14.9198 1.00000
  1.200E+06 1.200E+06 3.031E+00 1.231E+00 1.778E+00 4.915E-01 3.501E+00 6.532E+00 2.795E+05 15.2844 1.00000
  1.400E+06 1.400E+06 3.049E+00 1.454E+00 2.096E+00 5.787E-01 4.128E+00 7.177E+00 3.087E+05 15.5927 1.00000
  1.700E+06 1.700E+06 3.071E+00 1.790E+00 2.575E+00 7.115E-01 5.077E+00 8.148E+00 3.480E+05 15.9810 1.00000
  2.000E+06 2.000E+06 3.090E+00 2.130E+00 3.056E+00 8.464E-01 6.033E+00 9.123E+00 3.829E+05 16.3060 1.00000
  2.500E+06 2.500E+06 3.117E+00 2.700E+00 3.862E+00 1.076E+00 7.638E+00 1.075E+01 4.335E+05 16.7523 1.00000
  3.000E+06 3.000E+06 3.138E+00 3.275E+00 4.671E+00 1.309E+00 9.255E+00 1.239E+01 4.770E+05 17.1169 1.00000
  3.500E+06 3.500E+06 3.157E+00 3.853E+00 5.483E+00 1.546E+00 1.088E+01 1.404E+01 5.149E+05 17.4252 1.00000
  4.000E+06 4.000E+06 3.173E+00 4.433E+00 6.296E+00 1.787E+00 1.252E+01 1.569E+01 5.487E+05 17.6922 1.00000
  4.500E+06 4.500E+06 3.187E+00 5.015E+00 7.110E+00 2.031E+00 1.416E+01 1.734E+01 5.790E+05 17.9278 1.00000
  5.000E+06 5.000E+06 3.200E+00 5.600E+00 7.926E+00 2.277E+00 1.580E+01 1.900E+01 6.066E+05 18.1385 1.00000
  5.500E+06 5.500E+06 3.212E+00 6.185E+00 8.742E+00 2.527E+00 1.745E+01 2.067E+01 6.319E+05 18.3291 1.00000
  6.000E+06 6.000E+06 3.222E+00 6.772E+00 9.559E+00 2.778E+00 1.911E+01 2.233E+01 6.552E+05 18.5032 1.00000
  7.000E+06 7.000E+06 3.241E+00 7.948E+00 1.120E+01 3.287E+00 2.243E+01 2.567E+01 6.970E+05 18.8114 1.00000
  8.000E+06 8.000E+06 3.258E+00 9.128E+00 1.283E+01 3.804E+00 2.577E+01 2.902E+01 7.337E+05 19.0785 1.00000
  9.000E+06 9.000E+06 3.273E+00 1.031E+01 1.447E+01 4.327E+00 2.911E+01 3.238E+01 7.664E+05 19.3141 1.00000
  1.000E+07 1.000E+07 3.286E+00 1.150E+01 1.611E+01 4.857E+00 3.247E+01 3.575E+01 7.958E+05 19.5248 1.00000
  1.200E+07 1.200E+07 3.309E+00 1.387E+01 1.940E+01 5.932E+00 3.920E+01 4.251E+01 8.473E+05 19.8894 1.00000
  1.400E+07 1.400E+07 3.329E+00 1.625E+01 2.269E+01 7.027E+00 4.597E+01 4.929E+01 8.911E+05 20.1977 1.00000
  1.700E+07 1.700E+07 3.353E+00 1.983E+01 2.762E+01 8.701E+00 5.615E+01 5.951E+01 9.468E+05 20.5860 1.00000
  2.000E+07 2.000E+07 3.374E+00 2.341E+01 3.256E+01 1.041E+01 6.638E+01 6.976E+01 9.935E+05 20.9111 1.00000
  2.500E+07 2.500E+07 3.404E+00 2.940E+01 4.080E+01 1.331E+01 8.351E+01 8.691E+01 1.058E+06 21.3574 1.00000
  3.000E+07 3.000E+07 3.428E+00 3.539E+01 4.904E+01 1.628E+01 1.007E+02 1.041E+02 1.111E+06 21.7220 1.00000
  3.500E+07 3.500E+07 3.448E+00 4.139E+01 5.728E+01 1.930E+01 1.180E+02 1.214E+02 1.155E+06 22.0303 1.00000
  4.000E+07 4.000E+07 3.466E+00 4.740E+01 6.553E+01 2.237E+01 1.353E+02 1.388E+02 1.194E+06 22.2974 1.00000
  4.500E+07 4.500E+07 3.482E+00 5.341E+01 7.378E+01 2.549E+01 1.527E+02 1.562E+02 1.228E+06 22.5329 1.00000
  5.000E+07 5.000E+07 3.496E+00 5.942E+01 8.203E+01 2.864E+01 1.701E+02 1.736E+02 1.258E+06 22.7436 1.00000
  5.500E+07 5.500E+07 3.509E+00 6.544E+01 9.028E+01 3.183E+01 1.875E+02 1.911E+02 1.286E+06 22.9343 1.00000
  6.000E+07 6.000E+07 3.521E+00 7.146E+01 9.853E+01 3.505E+01 2.050E+02 2.086E+02 1.311E+06 23.1083 1.00000
  7.000E+07 7.000E+07 3.542E+00 8.350E+01 1.150E+02 4.157E+01 2.401E+02 2.436E+02 1.356E+06 23.4166 1.00000
  8.000E+07 8.000E+07 3.561E+00 9.555E+01 1.315E+02 4.821E+01 2.753E+02 2.789E+02 1.394E+06 23.6837 1.00000
  9.000E+07 9.000E+07 3.577E+00 1.076E+02 1.481E+02 5.494E+01 3.106E+02 3.142E+02 1.428E+06 23.9192 1.00000
  1.000E+08 1.000E+08 3.592E+00 1.197E+02 1.646E+02 6.175E+01 3.460E+02 3.496E+02 1.458E+06 24.1299 1.00000
  1.200E+08 1.200E+08 3.617E+00 1.438E+02 1.976E+02 7.560E+01 4.170E+02 4.206E+02 1.510E+06 24.4946 1.00000
  1.400E+08 1.400E+08 3.639E+00 1.679E+02 2.306E+02 8.972E+01 4.882E+02 4.919E+02 1.555E+06 24.8029 1.00000
  1.700E+08 1.700E+08 3.667E+00 2.041E+02 2.802E+02 1.113E+02 5.956E+02 5.993E+02 1.610E+06 25.1912 1.00000
  2.000E+08 2.000E+08 3.690E+00 2.403E+02 3.297E+02 1.334E+02 7.034E+02 7.071E+02 1.656E+06 25.5162 1.00000
  2.500E+08 2.500E+08 3.723E+00 3.007E+02 4.123E+02 1.710E+02 8.839E+02 8.876E+02 1.720E+06 25.9625 1.00000
  3.000E+08 3.000E+08 3.750E+00 3.611E+02 4.949E+02 2.094E+02 1.065E+03 1.069E+03 1.771E+06 26.3272 1.00000
  3.500E+08 3.500E+08 3.772E+00 4.214E+02 5.775E+02 2.486E+02 1.248E+03 1.251E+03 1.815E+06 26.6355 1.00000
  4.000E+08 4.000E+08 3.792E+00 4.818E+02 6.600E+02 2.885E+02 1.430E+03 1.434E+03 1.852E+06 26.9025 1.00000
  4.500E+08 4.500E+08 3.810E+00 5.422E+02 7.426E+02 3.289E+02 1.614E+03 1.618E+03 1.885E+06 27.1381 1.00000
  5.000E+08 5.000E+08 3.826E+00 6.026E+02 8.252E+02 3.699E+02 1.798E+03 1.802E+03 1.914E+06 27.3488 1.00000
  5.500E+08 5.500E+08 3.840E+00 6.631E+02 9.078E+02 4.114E+02 1.982E+03 1.986E+03 1.941E+06 27.5394 1.00000
  6.000E+08 6.000E+08 3.854E+00 7.235E+02 9.904E+02 4.533E+02 2.167E+03 2.171E+03 1.965E+06 27.7135 1.00000
  7.000E+08 7.000E+08 3.877E+00 8.443E+02 1.156E+03 5.384E+02 2.538E+03 2.542E+03 2.008E+06 28.0218 1.00000
  8.000E+08 8.000E+08 3.898E+00 9.651E+02 1.321E+03 6.248E+02 2.911E+03 2.915E+03 2.044E+06 28.2888 1.00000
  9.000E+08 9.000E+08 3.916E+00 1.086E+03 1.486E+03 7.126E+02 3.284E+03 3.288E+03 2.077E+06 28.5244 1.00000
  1.000E+09 1.000E+09 3.933E+00 1.207E+03 1.651E+03 8.016E+02 3.659E+03 3.663E+03 2.106E+06 28.7351 1.00000
