 Incident particle is a Muon with M = 105.65839 MeV
 Index = 0: NHeptane
      Absorber with <Z/A> = 0.57870
 Sternheimer coef:  a     k=m_s   x_0    x_1    I[eV]   Cbar  delta0
                 0.1125  3.4885  0.1928  2.5706   54.4  3.1978 0.00

 *** Table generated with PUMAS v1.00 ***

      T         p     Ionization  brems     pair     photonuc  Radloss    dE/dx   CSDA Range  delta   beta
    [MeV]    [MeV/c]  -----------------------[MeV cm^2/g]------------------------  [g/cm^2]
  1.000E+00 1.457E+01 5.575E+01 6.027E-07 0.000E+00 0.000E+00 6.027E-07 5.575E+01 8.969E-03  0.0000 0.13661
  1.200E+00 1.597E+01 4.802E+01 6.890E-07 0.000E+00 0.000E+00 6.890E-07 4.802E+01 1.284E-02  0.0000 0.14944
  1.400E+00 1.726E+01 4.231E+01 7.715E-07 0.000E+00 0.000E+00 7.715E-07 4.231E+01 1.729E-02  0.0000 0.16119
  1.700E+00 1.903E+01 3.606E+01 8.893E-07 0.000E+00 0.000E+00 8.893E-07 3.606E+01 2.500E-02  0.0000 0.17725
  2.000E+00 2.066E+01 3.155E+01 1.001E-06 0.000E+00 0.000E+00 1.001E-06 3.155E+01 3.391E-02  0.0000 0.19186
  2.500E+00 2.312E+01 2.626E+01 1.177E-06 0.000E+00 0.000E+00 1.177E-06 2.626E+01 5.136E-02  0.0000 0.21376
  3.000E+00 2.536E+01 2.261E+01 1.341E-06 0.000E+00 0.000E+00 1.341E-06 2.261E+01 7.194E-02  0.0000 0.23336
  3.500E+00 2.742E+01 1.993E+01 1.497E-06 0.000E+00 0.000E+00 1.497E-06 1.993E+01 9.554E-02  0.0000 0.25120
  4.000E+00 2.935E+01 1.787E+01 1.645E-06 0.000E+00 0.000E+00 1.645E-06 1.787E+01 1.221E-01  0.0000 0.26763
  4.500E+00 3.116E+01 1.624E+01 1.786E-06 0.000E+00 0.000E+00 1.786E-06 1.624E+01 1.515E-01  0.0000 0.28290
  5.000E+00 3.289E+01 1.491E+01 1.922E-06 0.000E+00 0.000E+00 1.922E-06 1.491E+01 1.836E-01  0.0000 0.29720
  5.500E+00 3.453E+01 1.381E+01 2.052E-06 0.000E+00 0.000E+00 2.052E-06 1.381E+01 2.185E-01  0.0000 0.31066
  6.000E+00 3.611E+01 1.289E+01 2.178E-06 0.000E+00 0.000E+00 2.178E-06 1.289E+01 2.560E-01  0.0000 0.32339
  7.000E+00 3.909E+01 1.140E+01 2.419E-06 0.000E+00 0.000E+00 2.419E-06 1.140E+01 3.386E-01  0.0000 0.34700
  8.000E+00 4.189E+01 1.027E+01 2.645E-06 0.000E+00 0.000E+00 2.645E-06 1.027E+01 4.311E-01  0.0000 0.36854
  9.000E+00 4.453E+01 9.375E+00 2.861E-06 0.000E+00 0.000E+00 2.861E-06 9.375E+00 5.332E-01  0.0000 0.38836
  1.000E+01 4.704E+01 8.649E+00 3.067E-06 0.000E+00 0.000E+00 3.067E-06 8.649E+00 6.443E-01  0.0000 0.40675
  1.200E+01 5.177E+01 7.541E+00 3.455E-06 0.000E+00 0.000E+00 3.455E-06 7.541E+00 8.925E-01  0.0000 0.43998
  1.400E+01 5.616E+01 6.736E+00 3.817E-06 0.000E+00 0.000E+00 3.817E-06 6.736E+00 1.174E+00  0.0000 0.46937
  1.700E+01 6.230E+01 5.869E+00 4.322E-06 0.000E+00 0.000E+00 4.322E-06 5.869E+00 1.652E+00  0.0000 0.50792
  2.000E+01 6.802E+01 5.253E+00 4.794E-06 0.000E+00 0.000E+00 4.794E-06 5.253E+00 2.193E+00  0.0000 0.54129
  2.500E+01 7.686E+01 4.546E+00 5.528E-06 0.000E+00 0.000E+00 5.528E-06 4.546E+00 3.219E+00  0.0000 0.58827
  3.000E+01 8.509E+01 4.069E+00 6.216E-06 0.000E+00 0.000E+00 6.216E-06 4.069E+00 4.383E+00  0.0000 0.62720
  3.500E+01 9.285E+01 3.728E+00 6.873E-06 0.000E+00 0.000E+00 6.873E-06 3.728E+00 5.668E+00  0.0000 0.66011
  4.000E+01 1.003E+02 3.471E+00 7.511E-06 0.000E+00 0.000E+00 7.511E-06 3.471E+00 7.059E+00  0.0000 0.68834
  4.500E+01 1.074E+02 3.273E+00 8.135E-06 0.000E+00 0.000E+00 8.135E-06 3.273E+00 8.543E+00  0.0000 0.71286
  5.000E+01 1.143E+02 3.115E+00 8.750E-06 0.000E+00 0.000E+00 8.750E-06 3.115E+00 1.011E+01  0.0000 0.73434
  5.500E+01 1.210E+02 2.987E+00 9.361E-06 0.000E+00 0.000E+00 9.361E-06 2.987E+00 1.175E+01  0.0000 0.75332
  6.000E+01 1.276E+02 2.881E+00 9.969E-06 0.000E+00 0.000E+00 9.969E-06 2.881E+00 1.345E+01  0.0000 0.77019
  7.000E+01 1.403E+02 2.719E+00 1.118E-05 0.000E+00 0.000E+00 1.118E-05 2.719E+00 1.703E+01  0.0000 0.79887
  8.000E+01 1.527E+02 2.600E+00 1.241E-05 0.000E+00 0.000E+00 1.241E-05 2.600E+00 2.079E+01  0.0000 0.82227
  9.000E+01 1.647E+02 2.512E+00 1.364E-05 0.000E+00 0.000E+00 1.364E-05 2.512E+00 2.470E+01  0.0000 0.84166
  1.000E+02 1.764E+02 2.439E+00 1.490E-05 0.000E+00 0.000E+00 1.490E-05 2.439E+00 2.874E+01  0.0371 0.85794
  1.200E+02 1.994E+02 2.337E+00 1.747E-05 0.000E+00 0.000E+00 1.747E-05 2.337E+00 3.712E+01  0.1122 0.88361
  1.400E+02 2.218E+02 2.269E+00 2.013E-05 0.000E+00 0.000E+00 2.013E-05 2.269E+00 4.581E+01  0.1853 0.90278
  1.700E+02 2.546E+02 2.206E+00 2.428E-05 3.523E-14 0.000E+00 2.428E-05 2.206E+00 5.922E+01  0.2904 0.92363
  2.000E+02 2.868E+02 2.170E+00 2.864E-05 7.866E-12 0.000E+00 2.864E-05 2.170E+00 7.293E+01  0.3902 0.93835
  2.500E+02 3.396E+02 2.140E+00 3.632E-05 6.489E-08 0.000E+00 3.639E-05 2.140E+00 9.613E+01  0.5456 0.95485
  3.000E+02 3.917E+02 2.130E+00 4.449E-05 5.668E-07 0.000E+00 4.506E-05 2.130E+00 1.195E+02  0.6888 0.96548
  3.500E+02 4.432E+02 2.129E+00 5.310E-05 1.553E-06 0.000E+00 5.466E-05 2.130E+00 1.430E+02  0.8215 0.97274
  4.000E+02 4.945E+02 2.134E+00 6.212E-05 3.000E-06 0.000E+00 6.512E-05 2.134E+00 1.665E+02  0.9453 0.97793
  4.500E+02 5.455E+02 2.141E+00 7.152E-05 4.892E-06 0.000E+00 7.641E-05 2.141E+00 1.899E+02  1.0613 0.98176
  5.000E+02 5.964E+02 2.150E+00 8.127E-05 7.211E-06 0.000E+00 8.848E-05 2.150E+00 2.132E+02  1.1704 0.98467
  5.500E+02 6.471E+02 2.160E+00 9.134E-05 9.945E-06 0.000E+00 1.013E-04 2.160E+00 2.364E+02  1.2735 0.98693
  6.000E+02 6.977E+02 2.170E+00 1.017E-04 1.308E-05 0.000E+00 1.148E-04 2.170E+00 2.595E+02  1.3712 0.98873
  7.000E+02 7.987E+02 2.189E+00 1.233E-04 2.049E-05 0.000E+00 1.438E-04 2.189E+00 3.053E+02  1.5525 0.99136
  8.000E+02 8.995E+02 2.208E+00 1.459E-04 2.934E-05 0.000E+00 1.753E-04 2.208E+00 3.508E+02  1.7180 0.99317
  9.000E+02 1.000E+03 2.226E+00 1.695E-04 3.954E-05 0.000E+00 2.090E-04 2.226E+00 3.959E+02  1.8702 0.99447
  1.000E+03 1.101E+03 2.243E+00 1.939E-04 5.102E-05 0.000E+00 2.449E-04 2.243E+00 4.407E+02  2.0113 0.99542
  1.200E+03 1.301E+03 2.273E+00 2.450E-04 7.749E-05 2.258E-05 3.451E-04 2.273E+00 5.292E+02  2.2659 0.99672
  1.400E+03 1.502E+03 2.299E+00 2.988E-04 1.082E-04 6.194E-05 4.690E-04 2.300E+00 6.167E+02  2.4911 0.99753
  1.700E+03 1.803E+03 2.333E+00 3.840E-04 1.615E-04 1.332E-04 6.788E-04 2.334E+00 7.462E+02  2.7869 0.99829
  2.000E+03 2.103E+03 2.362E+00 4.738E-04 2.224E-04 2.177E-04 9.139E-04 2.363E+00 8.740E+02  3.0442 0.99874
  2.500E+03 2.604E+03 2.401E+00 6.323E-04 3.385E-04 3.819E-04 1.353E-03 2.402E+00 1.084E+03  3.4108 0.99918
  3.000E+03 3.104E+03 2.433E+00 8.001E-04 4.704E-04 5.554E-04 1.826E-03 2.435E+00 1.291E+03  3.7208 0.99942
  3.500E+03 3.604E+03 2.460E+00 9.758E-04 6.159E-04 7.401E-04 2.332E-03 2.462E+00 1.495E+03  3.9894 0.99957
  4.000E+03 4.104E+03 2.483E+00 1.159E-03 7.895E-04 9.382E-04 2.886E-03 2.485E+00 1.697E+03  4.2267 0.99967
  4.500E+03 4.604E+03 2.502E+00 1.347E-03 9.809E-04 1.145E-03 3.473E-03 2.506E+00 1.897E+03  4.4391 0.99974
  5.000E+03 5.105E+03 2.520E+00 1.542E-03 1.184E-03 1.344E-03 4.070E-03 2.524E+00 2.096E+03  4.6315 0.99979
  5.500E+03 5.605E+03 2.536E+00 1.742E-03 1.398E-03 1.559E-03 4.699E-03 2.541E+00 2.294E+03  4.8072 0.99982
  6.000E+03 6.105E+03 2.550E+00 1.946E-03 1.621E-03 1.760E-03 5.327E-03 2.556E+00 2.490E+03  4.9691 0.99985
  7.000E+03 7.105E+03 2.575E+00 2.367E-03 2.095E-03 2.187E-03 6.649E-03 2.582E+00 2.879E+03  5.2588 0.99989
  8.000E+03 8.105E+03 2.596E+00 2.803E-03 2.600E-03 2.612E-03 8.016E-03 2.604E+00 3.265E+03  5.5124 0.99992
  9.000E+03 9.105E+03 2.615E+00 3.253E-03 3.134E-03 3.013E-03 9.399E-03 2.624E+00 3.647E+03  5.7380 0.99993
  1.000E+04 1.011E+04 2.631E+00 3.715E-03 3.692E-03 3.427E-03 1.083E-02 2.642E+00 4.027E+03  5.9412 0.99995
  1.200E+04 1.211E+04 2.659E+00 4.669E-03 4.873E-03 4.271E-03 1.381E-02 2.672E+00 4.780E+03  6.2954 0.99996
  1.400E+04 1.411E+04 2.681E+00 5.660E-03 6.130E-03 5.118E-03 1.691E-02 2.698E+00 5.525E+03  6.5971 0.99997
  1.700E+04 1.711E+04 2.710E+00 7.203E-03 8.133E-03 6.378E-03 2.171E-02 2.731E+00 6.630E+03  6.9793 0.99998
  2.000E+04 2.011E+04 2.733E+00 8.805E-03 1.025E-02 7.618E-03 2.668E-02 2.759E+00 7.722E+03  7.3008 0.99999
  2.500E+04 2.511E+04 2.764E+00 1.158E-02 1.400E-02 9.662E-03 3.525E-02 2.799E+00 9.522E+03  7.7438 0.99999
  3.000E+04 3.011E+04 2.788E+00 1.447E-02 1.797E-02 1.168E-02 4.412E-02 2.832E+00 1.130E+04  8.1068 0.99999
  3.500E+04 3.511E+04 2.809E+00 1.745E-02 2.212E-02 1.371E-02 5.328E-02 2.862E+00 1.305E+04  8.4140 1.00000
  4.000E+04 4.011E+04 2.826E+00 2.050E-02 2.641E-02 1.574E-02 6.266E-02 2.889E+00 1.479E+04  8.6803 1.00000
  4.500E+04 4.511E+04 2.841E+00 2.363E-02 3.084E-02 1.773E-02 7.220E-02 2.913E+00 1.652E+04  8.9153 1.00000
  5.000E+04 5.011E+04 2.855E+00 2.681E-02 3.537E-02 1.974E-02 8.192E-02 2.937E+00 1.823E+04  9.1256 1.00000
  5.500E+04 5.511E+04 2.867E+00 3.005E-02 4.000E-02 2.176E-02 9.181E-02 2.959E+00 1.992E+04  9.3158 1.00000
  6.000E+04 6.011E+04 2.878E+00 3.333E-02 4.472E-02 2.376E-02 1.018E-01 2.980E+00 2.161E+04  9.4895 1.00000
  7.000E+04 7.011E+04 2.897E+00 4.003E-02 5.439E-02 2.773E-02 1.222E-01 3.019E+00 2.494E+04  9.7973 1.00000
  8.000E+04 8.011E+04 2.913E+00 4.687E-02 6.432E-02 3.172E-02 1.429E-01 3.056E+00 2.823E+04 10.0640 1.00000
  9.000E+04 9.011E+04 2.928E+00 5.384E-02 7.447E-02 3.572E-02 1.640E-01 3.092E+00 3.149E+04 10.2993 1.00000
  1.000E+05 1.001E+05 2.941E+00 6.093E-02 8.480E-02 3.965E-02 1.854E-01 3.126E+00 3.470E+04 10.5097 1.00000
  1.200E+05 1.201E+05 2.963E+00 7.537E-02 1.060E-01 4.766E-02 2.290E-01 3.192E+00 4.103E+04 10.8740 1.00000
  1.400E+05 1.401E+05 2.981E+00 9.015E-02 1.276E-01 5.568E-02 2.734E-01 3.254E+00 4.724E+04 11.1821 1.00000
  1.700E+05 1.701E+05 3.004E+00 1.128E-01 1.609E-01 6.773E-02 3.414E-01 3.346E+00 5.633E+04 11.5701 1.00000
  2.000E+05 2.001E+05 3.024E+00 1.359E-01 1.949E-01 7.987E-02 4.107E-01 3.434E+00 6.518E+04 11.8950 1.00000
  2.500E+05 2.501E+05 3.050E+00 1.753E-01 2.528E-01 1.002E-01 5.283E-01 3.578E+00 7.945E+04 12.3411 1.00000
  3.000E+05 3.001E+05 3.072E+00 2.156E-01 3.118E-01 1.207E-01 6.481E-01 3.720E+00 9.316E+04 12.7056 1.00000
  3.500E+05 3.501E+05 3.090E+00 2.565E-01 3.717E-01 1.414E-01 7.697E-01 3.860E+00 1.064E+05 13.0138 1.00000
  4.000E+05 4.001E+05 3.106E+00 2.980E-01 4.324E-01 1.623E-01 8.927E-01 3.998E+00 1.191E+05 13.2807 1.00000
  4.500E+05 4.501E+05 3.120E+00 3.399E-01 4.936E-01 1.833E-01 1.017E+00 4.136E+00 1.314E+05 13.5163 1.00000
  5.000E+05 5.001E+05 3.132E+00 3.823E-01 5.553E-01 2.045E-01 1.142E+00 4.274E+00 1.433E+05 13.7269 1.00000
  5.500E+05 5.501E+05 3.144E+00 4.250E-01 6.174E-01 2.255E-01 1.268E+00 4.411E+00 1.548E+05 13.9175 1.00000
  6.000E+05 6.001E+05 3.154E+00 4.681E-01 6.798E-01 2.467E-01 1.395E+00 4.549E+00 1.660E+05 14.0915 1.00000
  7.000E+05 7.001E+05 3.172E+00 5.549E-01 8.056E-01 2.894E-01 1.650E+00 4.822E+00 1.873E+05 14.3998 1.00000
  8.000E+05 8.001E+05 3.188E+00 6.427E-01 9.323E-01 3.326E-01 1.908E+00 5.096E+00 2.075E+05 14.6668 1.00000
  9.000E+05 9.001E+05 3.203E+00 7.312E-01 1.060E+00 3.762E-01 2.167E+00 5.370E+00 2.266E+05 14.9023 1.00000
  1.000E+06 1.000E+06 3.215E+00 8.203E-01 1.188E+00 4.203E-01 2.429E+00 5.644E+00 2.448E+05 15.1130 1.00000
  1.200E+06 1.200E+06 3.238E+00 1.000E+00 1.446E+00 5.094E-01 2.956E+00 6.193E+00 2.787E+05 15.4776 1.00000
  1.400E+06 1.400E+06 3.256E+00 1.182E+00 1.705E+00 5.998E-01 3.487E+00 6.743E+00 3.096E+05 15.7859 1.00000
  1.700E+06 1.700E+06 3.280E+00 1.457E+00 2.097E+00 7.376E-01 4.291E+00 7.572E+00 3.517E+05 16.1742 1.00000
  2.000E+06 2.000E+06 3.300E+00 1.734E+00 2.490E+00 8.776E-01 5.102E+00 8.403E+00 3.893E+05 16.4992 1.00000
  2.500E+06 2.500E+06 3.328E+00 2.200E+00 3.149E+00 1.115E+00 6.465E+00 9.793E+00 4.446E+05 16.9455 1.00000
  3.000E+06 3.000E+06 3.351E+00 2.670E+00 3.811E+00 1.358E+00 7.840E+00 1.119E+01 4.925E+05 17.3101 1.00000
  3.500E+06 3.500E+06 3.371E+00 3.143E+00 4.475E+00 1.604E+00 9.223E+00 1.259E+01 5.347E+05 17.6184 1.00000
  4.000E+06 4.000E+06 3.388E+00 3.619E+00 5.141E+00 1.854E+00 1.061E+01 1.400E+01 5.724E+05 17.8854 1.00000
  4.500E+06 4.500E+06 3.403E+00 4.096E+00 5.808E+00 2.107E+00 1.201E+01 1.541E+01 6.065E+05 18.1210 1.00000
  5.000E+06 5.000E+06 3.416E+00 4.574E+00 6.476E+00 2.363E+00 1.341E+01 1.683E+01 6.375E+05 18.3317 1.00000
  5.500E+06 5.500E+06 3.429E+00 5.054E+00 7.144E+00 2.621E+00 1.482E+01 1.825E+01 6.661E+05 18.5223 1.00000
  6.000E+06 6.000E+06 3.440E+00 5.535E+00 7.814E+00 2.882E+00 1.623E+01 1.967E+01 6.925E+05 18.6964 1.00000
  7.000E+06 7.000E+06 3.460E+00 6.500E+00 9.154E+00 3.410E+00 1.906E+01 2.252E+01 7.401E+05 19.0046 1.00000
  8.000E+06 8.000E+06 3.477E+00 7.468E+00 1.050E+01 3.947E+00 2.191E+01 2.539E+01 7.820E+05 19.2717 1.00000
  9.000E+06 9.000E+06 3.493E+00 8.438E+00 1.184E+01 4.490E+00 2.477E+01 2.826E+01 8.194E+05 19.5073 1.00000
  1.000E+07 1.000E+07 3.507E+00 9.410E+00 1.318E+01 5.040E+00 2.763E+01 3.114E+01 8.532E+05 19.7180 1.00000
  1.200E+07 1.200E+07 3.531E+00 1.136E+01 1.588E+01 6.156E+00 3.339E+01 3.692E+01 9.123E+05 20.0826 1.00000
  1.400E+07 1.400E+07 3.552E+00 1.331E+01 1.857E+01 7.293E+00 3.918E+01 4.273E+01 9.628E+05 20.3909 1.00000
  1.700E+07 1.700E+07 3.578E+00 1.625E+01 2.262E+01 9.030E+00 4.790E+01 5.148E+01 1.027E+06 20.7792 1.00000
  2.000E+07 2.000E+07 3.600E+00 1.920E+01 2.666E+01 1.080E+01 5.666E+01 6.026E+01 1.081E+06 21.1043 1.00000
  2.500E+07 2.500E+07 3.631E+00 2.411E+01 3.342E+01 1.381E+01 7.134E+01 7.497E+01 1.156E+06 21.5506 1.00000
  3.000E+07 3.000E+07 3.657E+00 2.904E+01 4.017E+01 1.689E+01 8.611E+01 8.976E+01 1.217E+06 21.9152 1.00000
  3.500E+07 3.500E+07 3.678E+00 3.397E+01 4.693E+01 2.003E+01 1.009E+02 1.046E+02 1.269E+06 22.2235 1.00000
  4.000E+07 4.000E+07 3.697E+00 3.891E+01 5.369E+01 2.322E+01 1.158E+02 1.195E+02 1.314E+06 22.4906 1.00000
  4.500E+07 4.500E+07 3.714E+00 4.385E+01 6.045E+01 2.645E+01 1.308E+02 1.345E+02 1.353E+06 22.7261 1.00000
  5.000E+07 5.000E+07 3.729E+00 4.879E+01 6.722E+01 2.972E+01 1.457E+02 1.495E+02 1.389E+06 22.9368 1.00000
  5.500E+07 5.500E+07 3.742E+00 5.374E+01 7.398E+01 3.303E+01 1.608E+02 1.645E+02 1.420E+06 23.1275 1.00000
  6.000E+07 6.000E+07 3.755E+00 5.869E+01 8.075E+01 3.637E+01 1.758E+02 1.796E+02 1.450E+06 23.3015 1.00000
  7.000E+07 7.000E+07 3.777E+00 6.859E+01 9.428E+01 4.315E+01 2.060E+02 2.098E+02 1.501E+06 23.6098 1.00000
  8.000E+07 8.000E+07 3.797E+00 7.850E+01 1.078E+02 5.004E+01 2.364E+02 2.401E+02 1.546E+06 23.8769 1.00000
  9.000E+07 9.000E+07 3.814E+00 8.841E+01 1.213E+02 5.702E+01 2.668E+02 2.706E+02 1.585E+06 24.1124 1.00000
  1.000E+08 1.000E+08 3.830E+00 9.833E+01 1.349E+02 6.409E+01 2.973E+02 3.011E+02 1.620E+06 24.3231 1.00000
  1.200E+08 1.200E+08 3.857E+00 1.182E+02 1.620E+02 7.847E+01 3.586E+02 3.625E+02 1.681E+06 24.6878 1.00000
  1.400E+08 1.400E+08 3.880E+00 1.380E+02 1.890E+02 9.313E+01 4.202E+02 4.241E+02 1.732E+06 24.9961 1.00000
  1.700E+08 1.700E+08 3.909E+00 1.678E+02 2.297E+02 1.156E+02 5.130E+02 5.169E+02 1.797E+06 25.3844 1.00000
  2.000E+08 2.000E+08 3.934E+00 1.976E+02 2.703E+02 1.384E+02 6.063E+02 6.103E+02 1.850E+06 25.7094 1.00000
  2.500E+08 2.500E+08 3.968E+00 2.473E+02 3.380E+02 1.774E+02 7.627E+02 7.667E+02 1.924E+06 26.1557 1.00000
  3.000E+08 3.000E+08 3.996E+00 2.969E+02 4.057E+02 2.174E+02 9.200E+02 9.240E+02 1.983E+06 26.5204 1.00000
  3.500E+08 3.500E+08 4.021E+00 3.466E+02 4.734E+02 2.581E+02 1.078E+03 1.082E+03 2.034E+06 26.8287 1.00000
  4.000E+08 4.000E+08 4.042E+00 3.963E+02 5.412E+02 2.994E+02 1.237E+03 1.241E+03 2.077E+06 27.0957 1.00000
  4.500E+08 4.500E+08 4.060E+00 4.460E+02 6.089E+02 3.414E+02 1.396E+03 1.400E+03 2.115E+06 27.3313 1.00000
  5.000E+08 5.000E+08 4.077E+00 4.957E+02 6.766E+02 3.840E+02 1.556E+03 1.560E+03 2.149E+06 27.5420 1.00000
  5.500E+08 5.500E+08 4.092E+00 5.454E+02 7.443E+02 4.270E+02 1.717E+03 1.721E+03 2.179E+06 27.7326 1.00000
  6.000E+08 6.000E+08 4.106E+00 5.951E+02 8.120E+02 4.705E+02 1.878E+03 1.882E+03 2.207E+06 27.9067 1.00000
  7.000E+08 7.000E+08 4.131E+00 6.945E+02 9.475E+02 5.588E+02 2.201E+03 2.205E+03 2.256E+06 28.2150 1.00000
  8.000E+08 8.000E+08 4.153E+00 7.940E+02 1.083E+03 6.486E+02 2.525E+03 2.530E+03 2.299E+06 28.4820 1.00000
  9.000E+08 9.000E+08 4.172E+00 8.934E+02 1.218E+03 7.397E+02 2.851E+03 2.856E+03 2.336E+06 28.7176 1.00000
  1.000E+09 1.000E+09 4.190E+00 9.928E+02 1.354E+03 8.320E+02 3.179E+03 3.183E+03 2.369E+06 28.9283 1.00000
