 Incident particle is a Muon with M = 105.65839 MeV
 Index = 0: NHexane
      Absorber with <Z/A> = 0.58008
 Sternheimer coef:  a     k=m_s   x_0    x_1    I[eV]   Cbar  delta0
                 0.1108  3.5027  0.1984  2.5757   54.0  3.2156 0.00

 *** Table generated with PUMAS v1.00 ***

      T         p     Ionization  brems     pair     photonuc  Radloss    dE/dx   CSDA Range  delta   beta
    [MeV]    [MeV/c]  -----------------------[MeV cm^2/g]------------------------  [g/cm^2]
  1.000E+00 1.457E+01 5.595E+01 6.018E-07 0.000E+00 0.000E+00 6.018E-07 5.595E+01 8.936E-03  0.0000 0.13661
  1.200E+00 1.597E+01 4.819E+01 6.879E-07 0.000E+00 0.000E+00 6.879E-07 4.819E+01 1.280E-02  0.0000 0.14944
  1.400E+00 1.726E+01 4.246E+01 7.703E-07 0.000E+00 0.000E+00 7.703E-07 4.246E+01 1.723E-02  0.0000 0.16119
  1.700E+00 1.903E+01 3.619E+01 8.878E-07 0.000E+00 0.000E+00 8.878E-07 3.619E+01 2.491E-02  0.0000 0.17725
  2.000E+00 2.066E+01 3.166E+01 9.995E-07 0.000E+00 0.000E+00 9.995E-07 3.166E+01 3.379E-02  0.0000 0.19186
  2.500E+00 2.312E+01 2.635E+01 1.175E-06 0.000E+00 0.000E+00 1.175E-06 2.635E+01 5.117E-02  0.0000 0.21376
  3.000E+00 2.536E+01 2.268E+01 1.339E-06 0.000E+00 0.000E+00 1.339E-06 2.268E+01 7.168E-02  0.0000 0.23336
  3.500E+00 2.742E+01 1.999E+01 1.494E-06 0.000E+00 0.000E+00 1.494E-06 1.999E+01 9.521E-02  0.0000 0.25120
  4.000E+00 2.935E+01 1.793E+01 1.642E-06 0.000E+00 0.000E+00 1.642E-06 1.793E+01 1.217E-01  0.0000 0.26763
  4.500E+00 3.116E+01 1.630E+01 1.783E-06 0.000E+00 0.000E+00 1.783E-06 1.630E+01 1.509E-01  0.0000 0.28290
  5.000E+00 3.289E+01 1.497E+01 1.918E-06 0.000E+00 0.000E+00 1.918E-06 1.497E+01 1.830E-01  0.0000 0.29720
  5.500E+00 3.453E+01 1.386E+01 2.049E-06 0.000E+00 0.000E+00 2.049E-06 1.386E+01 2.177E-01  0.0000 0.31066
  6.000E+00 3.611E+01 1.293E+01 2.174E-06 0.000E+00 0.000E+00 2.174E-06 1.293E+01 2.551E-01  0.0000 0.32339
  7.000E+00 3.909E+01 1.144E+01 2.414E-06 0.000E+00 0.000E+00 2.414E-06 1.144E+01 3.375E-01  0.0000 0.34700
  8.000E+00 4.189E+01 1.030E+01 2.641E-06 0.000E+00 0.000E+00 2.641E-06 1.030E+01 4.297E-01  0.0000 0.36854
  9.000E+00 4.453E+01 9.406E+00 2.856E-06 0.000E+00 0.000E+00 2.856E-06 9.406E+00 5.314E-01  0.0000 0.38836
  1.000E+01 4.704E+01 8.677E+00 3.062E-06 0.000E+00 0.000E+00 3.062E-06 8.677E+00 6.422E-01  0.0000 0.40675
  1.200E+01 5.177E+01 7.566E+00 3.449E-06 0.000E+00 0.000E+00 3.449E-06 7.566E+00 8.896E-01  0.0000 0.43998
  1.400E+01 5.616E+01 6.758E+00 3.810E-06 0.000E+00 0.000E+00 3.810E-06 6.758E+00 1.170E+00  0.0000 0.46937
  1.700E+01 6.230E+01 5.888E+00 4.315E-06 0.000E+00 0.000E+00 4.315E-06 5.888E+00 1.646E+00  0.0000 0.50792
  2.000E+01 6.802E+01 5.270E+00 4.786E-06 0.000E+00 0.000E+00 4.786E-06 5.270E+00 2.186E+00  0.0000 0.54129
  2.500E+01 7.686E+01 4.560E+00 5.518E-06 0.000E+00 0.000E+00 5.518E-06 4.560E+00 3.208E+00  0.0000 0.58827
  3.000E+01 8.509E+01 4.082E+00 6.205E-06 0.000E+00 0.000E+00 6.205E-06 4.082E+00 4.369E+00  0.0000 0.62720
  3.500E+01 9.285E+01 3.740E+00 6.862E-06 0.000E+00 0.000E+00 6.862E-06 3.740E+00 5.650E+00  0.0000 0.66011
  4.000E+01 1.003E+02 3.482E+00 7.498E-06 0.000E+00 0.000E+00 7.498E-06 3.482E+00 7.036E+00  0.0000 0.68834
  4.500E+01 1.074E+02 3.283E+00 8.121E-06 0.000E+00 0.000E+00 8.121E-06 3.283E+00 8.515E+00  0.0000 0.71286
  5.000E+01 1.143E+02 3.125E+00 8.736E-06 0.000E+00 0.000E+00 8.736E-06 3.125E+00 1.008E+01  0.0000 0.73434
  5.500E+01 1.210E+02 2.996E+00 9.345E-06 0.000E+00 0.000E+00 9.345E-06 2.996E+00 1.171E+01  0.0000 0.75332
  6.000E+01 1.276E+02 2.890E+00 9.952E-06 0.000E+00 0.000E+00 9.952E-06 2.890E+00 1.341E+01  0.0000 0.77019
  7.000E+01 1.403E+02 2.727E+00 1.117E-05 0.000E+00 0.000E+00 1.117E-05 2.727E+00 1.697E+01  0.0000 0.79887
  8.000E+01 1.527E+02 2.608E+00 1.239E-05 0.000E+00 0.000E+00 1.239E-05 2.608E+00 2.072E+01  0.0000 0.82227
  9.000E+01 1.647E+02 2.520E+00 1.362E-05 0.000E+00 0.000E+00 1.362E-05 2.520E+00 2.463E+01  0.0000 0.84166
  1.000E+02 1.764E+02 2.448E+00 1.487E-05 0.000E+00 0.000E+00 1.487E-05 2.448E+00 2.865E+01  0.0293 0.85794
  1.200E+02 1.994E+02 2.345E+00 1.744E-05 0.000E+00 0.000E+00 1.744E-05 2.345E+00 3.700E+01  0.1033 0.88361
  1.400E+02 2.218E+02 2.277E+00 2.009E-05 0.000E+00 0.000E+00 2.009E-05 2.277E+00 4.566E+01  0.1755 0.90278
  1.700E+02 2.546E+02 2.214E+00 2.424E-05 3.517E-14 0.000E+00 2.424E-05 2.214E+00 5.902E+01  0.2796 0.92363
  2.000E+02 2.868E+02 2.178E+00 2.859E-05 7.852E-12 0.000E+00 2.859E-05 2.178E+00 7.268E+01  0.3786 0.93835
  2.500E+02 3.396E+02 2.148E+00 3.626E-05 6.477E-08 0.000E+00 3.633E-05 2.148E+00 9.580E+01  0.5330 0.95485
  3.000E+02 3.917E+02 2.138E+00 4.442E-05 5.657E-07 0.000E+00 4.498E-05 2.138E+00 1.191E+02  0.6755 0.96548
  3.500E+02 4.432E+02 2.137E+00 5.301E-05 1.550E-06 0.000E+00 5.456E-05 2.137E+00 1.425E+02  0.8077 0.97274
  4.000E+02 4.945E+02 2.142E+00 6.202E-05 2.994E-06 0.000E+00 6.501E-05 2.142E+00 1.659E+02  0.9310 0.97793
  4.500E+02 5.455E+02 2.149E+00 7.140E-05 4.882E-06 0.000E+00 7.628E-05 2.149E+00 1.892E+02  1.0466 0.98176
  5.000E+02 5.964E+02 2.158E+00 8.113E-05 7.197E-06 0.000E+00 8.833E-05 2.158E+00 2.124E+02  1.1554 0.98467
  5.500E+02 6.471E+02 2.168E+00 9.118E-05 9.924E-06 0.000E+00 1.011E-04 2.168E+00 2.355E+02  1.2582 0.98693
  6.000E+02 6.977E+02 2.178E+00 1.015E-04 1.305E-05 0.000E+00 1.146E-04 2.178E+00 2.585E+02  1.3557 0.98873
  7.000E+02 7.987E+02 2.197E+00 1.231E-04 2.044E-05 0.000E+00 1.435E-04 2.197E+00 3.043E+02  1.5367 0.99136
  8.000E+02 8.995E+02 2.216E+00 1.457E-04 2.928E-05 0.000E+00 1.750E-04 2.216E+00 3.496E+02  1.7019 0.99317
  9.000E+02 1.000E+03 2.234E+00 1.692E-04 3.946E-05 0.000E+00 2.087E-04 2.234E+00 3.945E+02  1.8539 0.99447
  1.000E+03 1.101E+03 2.251E+00 1.936E-04 5.091E-05 0.000E+00 2.445E-04 2.251E+00 4.391E+02  1.9948 0.99542
  1.200E+03 1.301E+03 2.281E+00 2.446E-04 7.732E-05 2.258E-05 3.445E-04 2.282E+00 5.273E+02  2.2492 0.99672
  1.400E+03 1.502E+03 2.308E+00 2.983E-04 1.080E-04 6.195E-05 4.683E-04 2.308E+00 6.145E+02  2.4742 0.99753
  1.700E+03 1.803E+03 2.342E+00 3.834E-04 1.612E-04 1.332E-04 6.778E-04 2.342E+00 7.435E+02  2.7698 0.99829
  2.000E+03 2.103E+03 2.370E+00 4.730E-04 2.219E-04 2.177E-04 9.127E-04 2.371E+00 8.708E+02  3.0270 0.99874
  2.500E+03 2.604E+03 2.410E+00 6.312E-04 3.378E-04 3.819E-04 1.351E-03 2.411E+00 1.080E+03  3.3934 0.99918
  3.000E+03 3.104E+03 2.442E+00 7.987E-04 4.694E-04 5.555E-04 1.824E-03 2.443E+00 1.286E+03  3.7033 0.99942
  3.500E+03 3.604E+03 2.468E+00 9.742E-04 6.146E-04 7.403E-04 2.329E-03 2.471E+00 1.489E+03  3.9720 0.99957
  4.000E+03 4.104E+03 2.491E+00 1.157E-03 7.879E-04 9.384E-04 2.883E-03 2.494E+00 1.691E+03  4.2092 0.99967
  4.500E+03 4.604E+03 2.511E+00 1.345E-03 9.791E-04 1.145E-03 3.470E-03 2.515E+00 1.891E+03  4.4216 0.99974
  5.000E+03 5.105E+03 2.529E+00 1.539E-03 1.182E-03 1.345E-03 4.066E-03 2.533E+00 2.089E+03  4.6139 0.99979
  5.500E+03 5.605E+03 2.545E+00 1.739E-03 1.395E-03 1.560E-03 4.694E-03 2.550E+00 2.285E+03  4.7897 0.99982
  6.000E+03 6.105E+03 2.559E+00 1.943E-03 1.618E-03 1.761E-03 5.322E-03 2.564E+00 2.481E+03  4.9515 0.99985
  7.000E+03 7.105E+03 2.584E+00 2.363E-03 2.091E-03 2.188E-03 6.642E-03 2.591E+00 2.869E+03  5.2411 0.99989
  8.000E+03 8.105E+03 2.605E+00 2.799E-03 2.596E-03 2.613E-03 8.008E-03 2.613E+00 3.253E+03  5.4948 0.99992
  9.000E+03 9.105E+03 2.624E+00 3.248E-03 3.128E-03 3.014E-03 9.390E-03 2.633E+00 3.634E+03  5.7204 0.99993
  1.000E+04 1.011E+04 2.640E+00 3.709E-03 3.686E-03 3.429E-03 1.082E-02 2.651E+00 4.013E+03  5.9236 0.99995
  1.200E+04 1.211E+04 2.668E+00 4.662E-03 4.866E-03 4.272E-03 1.380E-02 2.682E+00 4.763E+03  6.2777 0.99996
  1.400E+04 1.411E+04 2.691E+00 5.651E-03 6.121E-03 5.120E-03 1.689E-02 2.708E+00 5.505E+03  6.5794 0.99997
  1.700E+04 1.711E+04 2.719E+00 7.192E-03 8.121E-03 6.381E-03 2.169E-02 2.741E+00 6.607E+03  6.9616 0.99998
  2.000E+04 2.011E+04 2.742E+00 8.792E-03 1.024E-02 7.622E-03 2.665E-02 2.769E+00 7.696E+03  7.2830 0.99999
  2.500E+04 2.511E+04 2.773E+00 1.157E-02 1.398E-02 9.667E-03 3.522E-02 2.808E+00 9.489E+03  7.7261 0.99999
  3.000E+04 3.011E+04 2.798E+00 1.445E-02 1.795E-02 1.168E-02 4.408E-02 2.842E+00 1.126E+04  8.0890 0.99999
  3.500E+04 3.511E+04 2.818E+00 1.742E-02 2.209E-02 1.372E-02 5.323E-02 2.871E+00 1.301E+04  8.3962 1.00000
  4.000E+04 4.011E+04 2.836E+00 2.048E-02 2.638E-02 1.575E-02 6.260E-02 2.898E+00 1.474E+04  8.6625 1.00000
  4.500E+04 4.511E+04 2.851E+00 2.359E-02 3.080E-02 1.774E-02 7.214E-02 2.923E+00 1.646E+04  8.8975 1.00000
  5.000E+04 5.011E+04 2.864E+00 2.677E-02 3.532E-02 1.975E-02 8.185E-02 2.946E+00 1.816E+04  9.1078 1.00000
  5.500E+04 5.511E+04 2.876E+00 3.001E-02 3.995E-02 2.177E-02 9.172E-02 2.968E+00 1.985E+04  9.2980 1.00000
  6.000E+04 6.011E+04 2.887E+00 3.329E-02 4.466E-02 2.377E-02 1.017E-01 2.989E+00 2.153E+04  9.4717 1.00000
  7.000E+04 7.011E+04 2.907E+00 3.997E-02 5.432E-02 2.775E-02 1.220E-01 3.029E+00 2.486E+04  9.7795 1.00000
  8.000E+04 8.011E+04 2.923E+00 4.681E-02 6.424E-02 3.174E-02 1.428E-01 3.066E+00 2.814E+04 10.0462 1.00000
  9.000E+04 9.011E+04 2.938E+00 5.377E-02 7.437E-02 3.574E-02 1.639E-01 3.102E+00 3.138E+04 10.2815 1.00000
  1.000E+05 1.001E+05 2.950E+00 6.084E-02 8.469E-02 3.968E-02 1.852E-01 3.136E+00 3.459E+04 10.4919 1.00000
  1.200E+05 1.201E+05 2.973E+00 7.527E-02 1.058E-01 4.769E-02 2.288E-01 3.201E+00 4.090E+04 10.8562 1.00000
  1.400E+05 1.401E+05 2.991E+00 9.003E-02 1.275E-01 5.571E-02 2.732E-01 3.264E+00 4.709E+04 11.1643 1.00000
  1.700E+05 1.701E+05 3.014E+00 1.127E-01 1.607E-01 6.778E-02 3.411E-01 3.355E+00 5.615E+04 11.5523 1.00000
  2.000E+05 2.001E+05 3.034E+00 1.357E-01 1.946E-01 7.992E-02 4.103E-01 3.444E+00 6.498E+04 11.8772 1.00000
  2.500E+05 2.501E+05 3.060E+00 1.751E-01 2.524E-01 1.003E-01 5.278E-01 3.588E+00 7.921E+04 12.3233 1.00000
  3.000E+05 3.001E+05 3.082E+00 2.153E-01 3.114E-01 1.208E-01 6.475E-01 3.729E+00 9.288E+04 12.6878 1.00000
  3.500E+05 3.501E+05 3.100E+00 2.562E-01 3.713E-01 1.415E-01 7.690E-01 3.869E+00 1.060E+05 12.9960 1.00000
  4.000E+05 4.001E+05 3.116E+00 2.976E-01 4.319E-01 1.624E-01 8.919E-01 4.008E+00 1.187E+05 13.2629 1.00000
  4.500E+05 4.501E+05 3.130E+00 3.395E-01 4.930E-01 1.834E-01 1.016E+00 4.146E+00 1.310E+05 13.4985 1.00000
  5.000E+05 5.001E+05 3.143E+00 3.818E-01 5.546E-01 2.046E-01 1.141E+00 4.284E+00 1.429E+05 13.7091 1.00000
  5.500E+05 5.501E+05 3.154E+00 4.245E-01 6.166E-01 2.257E-01 1.267E+00 4.421E+00 1.544E+05 13.8997 1.00000
  6.000E+05 6.001E+05 3.164E+00 4.675E-01 6.790E-01 2.469E-01 1.393E+00 4.558E+00 1.655E+05 14.0737 1.00000
  7.000E+05 7.001E+05 3.183E+00 5.543E-01 8.047E-01 2.896E-01 1.649E+00 4.831E+00 1.868E+05 14.3820 1.00000
  8.000E+05 8.001E+05 3.199E+00 6.419E-01 9.313E-01 3.329E-01 1.906E+00 5.105E+00 2.070E+05 14.6490 1.00000
  9.000E+05 9.001E+05 3.213E+00 7.303E-01 1.059E+00 3.765E-01 2.166E+00 5.379E+00 2.261E+05 14.8845 1.00000
  1.000E+06 1.000E+06 3.226E+00 8.194E-01 1.187E+00 4.206E-01 2.427E+00 5.653E+00 2.442E+05 15.0952 1.00000
  1.200E+06 1.200E+06 3.248E+00 9.991E-01 1.444E+00 5.098E-01 2.953E+00 6.201E+00 2.780E+05 15.4598 1.00000
  1.400E+06 1.400E+06 3.267E+00 1.181E+00 1.704E+00 6.003E-01 3.484E+00 6.751E+00 3.090E+05 15.7681 1.00000
  1.700E+06 1.700E+06 3.291E+00 1.455E+00 2.095E+00 7.381E-01 4.288E+00 7.579E+00 3.510E+05 16.1564 1.00000
  2.000E+06 2.000E+06 3.311E+00 1.732E+00 2.488E+00 8.783E-01 5.098E+00 8.409E+00 3.886E+05 16.4814 1.00000
  2.500E+06 2.500E+06 3.339E+00 2.198E+00 3.146E+00 1.116E+00 6.460E+00 9.799E+00 4.438E+05 16.9277 1.00000
  3.000E+06 3.000E+06 3.362E+00 2.668E+00 3.807E+00 1.359E+00 7.834E+00 1.120E+01 4.917E+05 17.2923 1.00000
  3.500E+06 3.500E+06 3.382E+00 3.140E+00 4.471E+00 1.605E+00 9.216E+00 1.260E+01 5.339E+05 17.6006 1.00000
  4.000E+06 4.000E+06 3.399E+00 3.615E+00 5.136E+00 1.855E+00 1.061E+01 1.400E+01 5.716E+05 17.8676 1.00000
  4.500E+06 4.500E+06 3.414E+00 4.091E+00 5.802E+00 2.108E+00 1.200E+01 1.542E+01 6.056E+05 18.1032 1.00000
  5.000E+06 5.000E+06 3.427E+00 4.569E+00 6.469E+00 2.364E+00 1.340E+01 1.683E+01 6.367E+05 18.3139 1.00000
  5.500E+06 5.500E+06 3.440E+00 5.049E+00 7.137E+00 2.623E+00 1.481E+01 1.825E+01 6.652E+05 18.5045 1.00000
  6.000E+06 6.000E+06 3.451E+00 5.529E+00 7.805E+00 2.884E+00 1.622E+01 1.967E+01 6.917E+05 18.6786 1.00000
  7.000E+06 7.000E+06 3.471E+00 6.493E+00 9.144E+00 3.413E+00 1.905E+01 2.252E+01 7.393E+05 18.9868 1.00000
  8.000E+06 8.000E+06 3.489E+00 7.460E+00 1.049E+01 3.950E+00 2.189E+01 2.538E+01 7.812E+05 19.2539 1.00000
  9.000E+06 9.000E+06 3.504E+00 8.429E+00 1.183E+01 4.493E+00 2.475E+01 2.825E+01 8.186E+05 19.4895 1.00000
  1.000E+07 1.000E+07 3.518E+00 9.400E+00 1.317E+01 5.043E+00 2.761E+01 3.113E+01 8.523E+05 19.7002 1.00000
  1.200E+07 1.200E+07 3.543E+00 1.135E+01 1.586E+01 6.161E+00 3.337E+01 3.691E+01 9.115E+05 20.0648 1.00000
  1.400E+07 1.400E+07 3.563E+00 1.330E+01 1.855E+01 7.298E+00 3.915E+01 4.271E+01 9.620E+05 20.3731 1.00000
  1.700E+07 1.700E+07 3.590E+00 1.624E+01 2.259E+01 9.036E+00 4.786E+01 5.145E+01 1.026E+06 20.7614 1.00000
  2.000E+07 2.000E+07 3.612E+00 1.918E+01 2.664E+01 1.081E+01 5.662E+01 6.023E+01 1.080E+06 21.0865 1.00000
  2.500E+07 2.500E+07 3.643E+00 2.409E+01 3.338E+01 1.382E+01 7.129E+01 7.494E+01 1.155E+06 21.5328 1.00000
  3.000E+07 3.000E+07 3.668E+00 2.901E+01 4.013E+01 1.691E+01 8.605E+01 8.972E+01 1.216E+06 21.8974 1.00000
  3.500E+07 3.500E+07 3.690E+00 3.394E+01 4.688E+01 2.005E+01 1.009E+02 1.046E+02 1.268E+06 22.2057 1.00000
  4.000E+07 4.000E+07 3.709E+00 3.887E+01 5.364E+01 2.324E+01 1.157E+02 1.195E+02 1.313E+06 22.4728 1.00000
  4.500E+07 4.500E+07 3.726E+00 4.381E+01 6.039E+01 2.647E+01 1.307E+02 1.344E+02 1.353E+06 22.7083 1.00000
  5.000E+07 5.000E+07 3.741E+00 4.875E+01 6.715E+01 2.975E+01 1.456E+02 1.494E+02 1.388E+06 22.9190 1.00000
  5.500E+07 5.500E+07 3.754E+00 5.369E+01 7.390E+01 3.306E+01 1.606E+02 1.644E+02 1.420E+06 23.1097 1.00000
  6.000E+07 6.000E+07 3.767E+00 5.863E+01 8.066E+01 3.640E+01 1.757E+02 1.795E+02 1.449E+06 23.2837 1.00000
  7.000E+07 7.000E+07 3.789E+00 6.852E+01 9.418E+01 4.318E+01 2.059E+02 2.097E+02 1.501E+06 23.5920 1.00000
  8.000E+07 8.000E+07 3.809E+00 7.842E+01 1.077E+02 5.007E+01 2.362E+02 2.400E+02 1.545E+06 23.8591 1.00000
  9.000E+07 9.000E+07 3.826E+00 8.833E+01 1.212E+02 5.706E+01 2.666E+02 2.704E+02 1.585E+06 24.0946 1.00000
  1.000E+08 1.000E+08 3.842E+00 9.823E+01 1.347E+02 6.414E+01 2.971E+02 3.010E+02 1.620E+06 24.3053 1.00000
  1.200E+08 1.200E+08 3.869E+00 1.181E+02 1.618E+02 7.853E+01 3.584E+02 3.622E+02 1.681E+06 24.6700 1.00000
  1.400E+08 1.400E+08 3.892E+00 1.379E+02 1.889E+02 9.320E+01 4.199E+02 4.238E+02 1.732E+06 24.9783 1.00000
  1.700E+08 1.700E+08 3.921E+00 1.676E+02 2.294E+02 1.156E+02 5.127E+02 5.166E+02 1.796E+06 25.3666 1.00000
  2.000E+08 2.000E+08 3.946E+00 1.974E+02 2.700E+02 1.385E+02 6.060E+02 6.099E+02 1.850E+06 25.6916 1.00000
  2.500E+08 2.500E+08 3.981E+00 2.470E+02 3.377E+02 1.776E+02 7.622E+02 7.662E+02 1.924E+06 26.1379 1.00000
  3.000E+08 3.000E+08 4.009E+00 2.966E+02 4.053E+02 2.175E+02 9.195E+02 9.235E+02 1.983E+06 26.5026 1.00000
  3.500E+08 3.500E+08 4.033E+00 3.463E+02 4.730E+02 2.583E+02 1.077E+03 1.082E+03 2.033E+06 26.8109 1.00000
  4.000E+08 4.000E+08 4.054E+00 3.959E+02 5.406E+02 2.997E+02 1.236E+03 1.240E+03 2.077E+06 27.0779 1.00000
  4.500E+08 4.500E+08 4.073E+00 4.456E+02 6.083E+02 3.417E+02 1.396E+03 1.400E+03 2.115E+06 27.3135 1.00000
  5.000E+08 5.000E+08 4.090E+00 4.952E+02 6.759E+02 3.843E+02 1.555E+03 1.559E+03 2.149E+06 27.5242 1.00000
  5.500E+08 5.500E+08 4.105E+00 5.449E+02 7.436E+02 4.273E+02 1.716E+03 1.720E+03 2.179E+06 27.7148 1.00000
  6.000E+08 6.000E+08 4.119E+00 5.945E+02 8.112E+02 4.709E+02 1.877E+03 1.881E+03 2.207E+06 27.8889 1.00000
  7.000E+08 7.000E+08 4.144E+00 6.939E+02 9.465E+02 5.592E+02 2.200E+03 2.204E+03 2.256E+06 28.1972 1.00000
  8.000E+08 8.000E+08 4.166E+00 7.932E+02 1.082E+03 6.491E+02 2.524E+03 2.528E+03 2.299E+06 28.4642 1.00000
  9.000E+08 9.000E+08 4.185E+00 8.925E+02 1.217E+03 7.402E+02 2.850E+03 2.854E+03 2.336E+06 28.6998 1.00000
  1.000E+09 1.000E+09 4.203E+00 9.918E+02 1.352E+03 8.326E+02 3.177E+03 3.181E+03 2.369E+06 28.9105 1.00000
