 Incident particle is a Muon with M = 105.65839 MeV
 Index = 0: Naphtalene
      Absorber with <Z/A> = 0.53049
 Sternheimer coef:  a     k=m_s   x_0    x_1    I[eV]   Cbar  delta0
                 0.1477  3.2654  0.1374  2.5429   68.4  3.2274 0.00

 *** Table generated with PUMAS v1.00 ***

      T         p     Ionization  brems     pair     photonuc  Radloss    dE/dx   CSDA Range  delta   beta
    [MeV]    [MeV/c]  -----------------------[MeV cm^2/g]------------------------  [g/cm^2]
  1.000E+00 1.457E+01 4.911E+01 6.360E-07 0.000E+00 0.000E+00 6.360E-07 4.911E+01 1.018E-02  0.0000 0.13661
  1.200E+00 1.597E+01 4.235E+01 7.280E-07 0.000E+00 0.000E+00 7.280E-07 4.235E+01 1.458E-02  0.0000 0.14944
  1.400E+00 1.726E+01 3.735E+01 8.159E-07 0.000E+00 0.000E+00 8.159E-07 3.735E+01 1.962E-02  0.0000 0.16119
  1.700E+00 1.903E+01 3.187E+01 9.414E-07 0.000E+00 0.000E+00 9.414E-07 3.187E+01 2.834E-02  0.0000 0.17725
  2.000E+00 2.066E+01 2.791E+01 1.060E-06 0.000E+00 0.000E+00 1.060E-06 2.791E+01 3.842E-02  0.0000 0.19186
  2.500E+00 2.312E+01 2.325E+01 1.247E-06 0.000E+00 0.000E+00 1.247E-06 2.325E+01 5.813E-02  0.0000 0.21376
  3.000E+00 2.536E+01 2.004E+01 1.422E-06 0.000E+00 0.000E+00 1.422E-06 2.004E+01 8.136E-02  0.0000 0.23336
  3.500E+00 2.742E+01 1.767E+01 1.588E-06 0.000E+00 0.000E+00 1.588E-06 1.767E+01 1.080E-01  0.0000 0.25120
  4.000E+00 2.935E+01 1.586E+01 1.745E-06 0.000E+00 0.000E+00 1.745E-06 1.586E+01 1.379E-01  0.0000 0.26763
  4.500E+00 3.116E+01 1.442E+01 1.895E-06 0.000E+00 0.000E+00 1.895E-06 1.442E+01 1.710E-01  0.0000 0.28290
  5.000E+00 3.289E+01 1.325E+01 2.039E-06 0.000E+00 0.000E+00 2.039E-06 1.325E+01 2.072E-01  0.0000 0.29720
  5.500E+00 3.453E+01 1.228E+01 2.178E-06 0.000E+00 0.000E+00 2.178E-06 1.228E+01 2.464E-01  0.0000 0.31066
  6.000E+00 3.611E+01 1.146E+01 2.312E-06 0.000E+00 0.000E+00 2.312E-06 1.146E+01 2.886E-01  0.0000 0.32339
  7.000E+00 3.909E+01 1.014E+01 2.567E-06 0.000E+00 0.000E+00 2.567E-06 1.014E+01 3.815E-01  0.0000 0.34700
  8.000E+00 4.189E+01 9.140E+00 2.808E-06 0.000E+00 0.000E+00 2.808E-06 9.140E+00 4.855E-01  0.0000 0.36854
  9.000E+00 4.453E+01 8.346E+00 3.037E-06 0.000E+00 0.000E+00 3.037E-06 8.346E+00 6.002E-01  0.0000 0.38836
  1.000E+01 4.704E+01 7.703E+00 3.255E-06 0.000E+00 0.000E+00 3.255E-06 7.703E+00 7.250E-01  0.0000 0.40675
  1.200E+01 5.177E+01 6.720E+00 3.666E-06 0.000E+00 0.000E+00 3.666E-06 6.720E+00 1.004E+00  0.0000 0.43998
  1.400E+01 5.616E+01 6.006E+00 4.049E-06 0.000E+00 0.000E+00 4.049E-06 6.006E+00 1.319E+00  0.0000 0.46937
  1.700E+01 6.230E+01 5.236E+00 4.585E-06 0.000E+00 0.000E+00 4.585E-06 5.236E+00 1.855E+00  0.0000 0.50792
  2.000E+01 6.802E+01 4.688E+00 5.084E-06 0.000E+00 0.000E+00 5.084E-06 4.688E+00 2.462E+00  0.0000 0.54129
  2.500E+01 7.686E+01 4.059E+00 5.860E-06 0.000E+00 0.000E+00 5.860E-06 4.059E+00 3.611E+00  0.0000 0.58827
  3.000E+01 8.509E+01 3.636E+00 6.588E-06 0.000E+00 0.000E+00 6.588E-06 3.636E+00 4.914E+00  0.0000 0.62720
  3.500E+01 9.285E+01 3.332E+00 7.283E-06 0.000E+00 0.000E+00 7.283E-06 3.332E+00 6.352E+00  0.0000 0.66011
  4.000E+01 1.003E+02 3.103E+00 7.957E-06 0.000E+00 0.000E+00 7.957E-06 3.103E+00 7.908E+00  0.0000 0.68834
  4.500E+01 1.074E+02 2.927E+00 8.617E-06 0.000E+00 0.000E+00 8.617E-06 2.927E+00 9.568E+00  0.0000 0.71286
  5.000E+01 1.143E+02 2.786E+00 9.268E-06 0.000E+00 0.000E+00 9.268E-06 2.786E+00 1.132E+01  0.0000 0.73434
  5.500E+01 1.210E+02 2.672E+00 9.914E-06 0.000E+00 0.000E+00 9.914E-06 2.672E+00 1.315E+01  0.0000 0.75332
  6.000E+01 1.276E+02 2.578E+00 1.056E-05 0.000E+00 0.000E+00 1.056E-05 2.578E+00 1.506E+01  0.0000 0.77019
  7.000E+01 1.403E+02 2.434E+00 1.184E-05 0.000E+00 0.000E+00 1.184E-05 2.434E+00 1.905E+01  0.0000 0.79887
  8.000E+01 1.527E+02 2.325E+00 1.314E-05 0.000E+00 0.000E+00 1.314E-05 2.325E+00 2.326E+01  0.0256 0.82227
  9.000E+01 1.647E+02 2.242E+00 1.445E-05 0.000E+00 0.000E+00 1.445E-05 2.242E+00 2.764E+01  0.0654 0.84166
  1.000E+02 1.764E+02 2.178E+00 1.577E-05 0.000E+00 0.000E+00 1.577E-05 2.178E+00 3.216E+01  0.1047 0.85794
  1.200E+02 1.994E+02 2.087E+00 1.849E-05 0.000E+00 0.000E+00 1.849E-05 2.087E+00 4.154E+01  0.1813 0.88361
  1.400E+02 2.218E+02 2.027E+00 2.131E-05 0.000E+00 0.000E+00 2.131E-05 2.027E+00 5.127E+01  0.2550 0.90278
  1.700E+02 2.546E+02 1.972E+00 2.571E-05 3.756E-14 0.000E+00 2.571E-05 1.972E+00 6.627E+01  0.3602 0.92363
  2.000E+02 2.868E+02 1.941E+00 3.032E-05 8.388E-12 0.000E+00 3.032E-05 1.941E+00 8.161E+01  0.4593 0.93835
  2.500E+02 3.396E+02 1.915E+00 3.846E-05 6.927E-08 0.000E+00 3.853E-05 1.915E+00 1.075E+02  0.6128 0.95485
  3.000E+02 3.917E+02 1.907E+00 4.712E-05 6.068E-07 0.000E+00 4.772E-05 1.907E+00 1.337E+02  0.7536 0.96548
  3.500E+02 4.432E+02 1.907E+00 5.624E-05 1.664E-06 0.000E+00 5.791E-05 1.907E+00 1.599E+02  0.8838 0.97274
  4.000E+02 4.945E+02 1.912E+00 6.580E-05 3.216E-06 0.000E+00 6.902E-05 1.912E+00 1.861E+02  1.0049 0.97793
  4.500E+02 5.455E+02 1.919E+00 7.576E-05 5.245E-06 0.000E+00 8.100E-05 1.920E+00 2.122E+02  1.1183 0.98176
  5.000E+02 5.964E+02 1.928E+00 8.609E-05 7.733E-06 0.000E+00 9.382E-05 1.928E+00 2.382E+02  1.2249 0.98467
  5.500E+02 6.471E+02 1.937E+00 9.676E-05 1.067E-05 0.000E+00 1.074E-04 1.937E+00 2.641E+02  1.3255 0.98693
  6.000E+02 6.977E+02 1.947E+00 1.078E-04 1.403E-05 0.000E+00 1.218E-04 1.947E+00 2.898E+02  1.4208 0.98873
  7.000E+02 7.987E+02 1.965E+00 1.306E-04 2.198E-05 0.000E+00 1.526E-04 1.965E+00 3.409E+02  1.5978 0.99136
  8.000E+02 8.995E+02 1.983E+00 1.546E-04 3.147E-05 0.000E+00 1.861E-04 1.983E+00 3.916E+02  1.7592 0.99317
  9.000E+02 1.000E+03 2.000E+00 1.796E-04 4.242E-05 0.000E+00 2.220E-04 2.000E+00 4.418E+02  1.9078 0.99447
  1.000E+03 1.101E+03 2.015E+00 2.054E-04 5.474E-05 0.000E+00 2.602E-04 2.016E+00 4.916E+02  2.0455 0.99542
  1.200E+03 1.301E+03 2.044E+00 2.596E-04 8.314E-05 2.257E-05 3.653E-04 2.044E+00 5.901E+02  2.2942 0.99672
  1.400E+03 1.502E+03 2.068E+00 3.166E-04 1.161E-04 6.185E-05 4.946E-04 2.069E+00 6.874E+02  2.5143 0.99753
  1.700E+03 1.803E+03 2.100E+00 4.068E-04 1.733E-04 1.329E-04 7.130E-04 2.101E+00 8.313E+02  2.8036 0.99829
  2.000E+03 2.103E+03 2.127E+00 5.019E-04 2.387E-04 2.168E-04 9.573E-04 2.128E+00 9.732E+02  3.0557 0.99874
  2.500E+03 2.604E+03 2.163E+00 6.695E-04 3.633E-04 3.798E-04 1.413E-03 2.165E+00 1.206E+03  3.4154 0.99918
  3.000E+03 3.104E+03 2.193E+00 8.469E-04 5.048E-04 5.517E-04 1.903E-03 2.195E+00 1.436E+03  3.7200 0.99942
  3.500E+03 3.604E+03 2.218E+00 1.033E-03 6.609E-04 7.345E-04 2.428E-03 2.220E+00 1.662E+03  3.9844 0.99957
  4.000E+03 4.104E+03 2.239E+00 1.226E-03 8.446E-04 9.303E-04 3.001E-03 2.242E+00 1.886E+03  4.2182 0.99967
  4.500E+03 4.604E+03 2.258E+00 1.425E-03 1.046E-03 1.134E-03 3.606E-03 2.261E+00 2.108E+03  4.4278 0.99974
  5.000E+03 5.105E+03 2.274E+00 1.631E-03 1.260E-03 1.331E-03 4.222E-03 2.278E+00 2.329E+03  4.6178 0.99979
  5.500E+03 5.605E+03 2.289E+00 1.841E-03 1.485E-03 1.543E-03 4.870E-03 2.293E+00 2.547E+03  4.7916 0.99982
  6.000E+03 6.105E+03 2.302E+00 2.057E-03 1.720E-03 1.741E-03 5.518E-03 2.307E+00 2.765E+03  4.9518 0.99985
  7.000E+03 7.105E+03 2.325E+00 2.501E-03 2.218E-03 2.162E-03 6.881E-03 2.332E+00 3.196E+03  5.2387 0.99989
  8.000E+03 8.105E+03 2.345E+00 2.960E-03 2.749E-03 2.580E-03 8.290E-03 2.353E+00 3.623E+03  5.4903 0.99992
  9.000E+03 9.105E+03 2.362E+00 3.434E-03 3.309E-03 2.974E-03 9.718E-03 2.371E+00 4.046E+03  5.7144 0.99993
  1.000E+04 1.011E+04 2.377E+00 3.920E-03 3.895E-03 3.382E-03 1.120E-02 2.388E+00 4.466E+03  5.9163 0.99995
  1.200E+04 1.211E+04 2.402E+00 4.924E-03 5.135E-03 4.211E-03 1.427E-02 2.416E+00 5.299E+03  6.2688 0.99996
  1.400E+04 1.411E+04 2.423E+00 5.965E-03 6.453E-03 5.043E-03 1.746E-02 2.441E+00 6.123E+03  6.5693 0.99997
  1.700E+04 1.711E+04 2.449E+00 7.587E-03 8.552E-03 6.279E-03 2.242E-02 2.471E+00 7.344E+03  6.9506 0.99998
  2.000E+04 2.011E+04 2.470E+00 9.269E-03 1.077E-02 7.496E-03 2.754E-02 2.498E+00 8.552E+03  7.2716 0.99999
  2.500E+04 2.511E+04 2.498E+00 1.218E-02 1.470E-02 9.498E-03 3.638E-02 2.535E+00 1.054E+04  7.7143 0.99999
  3.000E+04 3.011E+04 2.521E+00 1.521E-02 1.885E-02 1.147E-02 4.553E-02 2.566E+00 1.250E+04  8.0772 0.99999
  3.500E+04 3.511E+04 2.540E+00 1.833E-02 2.319E-02 1.347E-02 5.498E-02 2.595E+00 1.444E+04  8.3844 1.00000
  4.000E+04 4.011E+04 2.556E+00 2.153E-02 2.767E-02 1.544E-02 6.465E-02 2.620E+00 1.635E+04  8.6507 1.00000
  4.500E+04 4.511E+04 2.570E+00 2.480E-02 3.230E-02 1.740E-02 7.449E-02 2.644E+00 1.825E+04  8.8857 1.00000
  5.000E+04 5.011E+04 2.582E+00 2.813E-02 3.703E-02 1.936E-02 8.451E-02 2.666E+00 2.014E+04  9.0960 1.00000
  5.500E+04 5.511E+04 2.593E+00 3.151E-02 4.187E-02 2.133E-02 9.471E-02 2.688E+00 2.200E+04  9.2862 1.00000
  6.000E+04 6.011E+04 2.603E+00 3.494E-02 4.680E-02 2.328E-02 1.050E-01 2.708E+00 2.386E+04  9.4599 1.00000
  7.000E+04 7.011E+04 2.621E+00 4.194E-02 5.689E-02 2.717E-02 1.260E-01 2.747E+00 2.752E+04  9.7677 1.00000
  8.000E+04 8.011E+04 2.636E+00 4.909E-02 6.724E-02 3.107E-02 1.474E-01 2.783E+00 3.114E+04 10.0344 1.00000
  9.000E+04 9.011E+04 2.649E+00 5.637E-02 7.783E-02 3.497E-02 1.692E-01 2.818E+00 3.471E+04 10.2697 1.00000
  1.000E+05 1.001E+05 2.661E+00 6.376E-02 8.860E-02 3.881E-02 1.912E-01 2.852E+00 3.824E+04 10.4801 1.00000
  1.200E+05 1.201E+05 2.681E+00 7.883E-02 1.106E-01 4.662E-02 2.361E-01 2.917E+00 4.517E+04 10.8444 1.00000
  1.400E+05 1.401E+05 2.698E+00 9.424E-02 1.332E-01 5.445E-02 2.819E-01 2.980E+00 5.196E+04 11.1525 1.00000
  1.700E+05 1.701E+05 2.719E+00 1.179E-01 1.678E-01 6.621E-02 3.519E-01 3.071E+00 6.188E+04 11.5405 1.00000
  2.000E+05 2.001E+05 2.737E+00 1.419E-01 2.032E-01 7.805E-02 4.232E-01 3.160E+00 7.151E+04 11.8654 1.00000
  2.500E+05 2.501E+05 2.761E+00 1.830E-01 2.634E-01 9.786E-02 5.443E-01 3.305E+00 8.698E+04 12.3115 1.00000
  3.000E+05 3.001E+05 2.781E+00 2.249E-01 3.248E-01 1.178E-01 6.676E-01 3.448E+00 1.018E+05 12.6760 1.00000
  3.500E+05 3.501E+05 2.798E+00 2.675E-01 3.871E-01 1.381E-01 7.927E-01 3.590E+00 1.160E+05 12.9842 1.00000
  4.000E+05 4.001E+05 2.812E+00 3.106E-01 4.501E-01 1.584E-01 9.192E-01 3.731E+00 1.297E+05 13.2511 1.00000
  4.500E+05 4.501E+05 2.825E+00 3.542E-01 5.137E-01 1.789E-01 1.047E+00 3.872E+00 1.428E+05 13.4867 1.00000
  5.000E+05 5.001E+05 2.836E+00 3.983E-01 5.778E-01 1.995E-01 1.176E+00 4.012E+00 1.555E+05 13.6973 1.00000
  5.500E+05 5.501E+05 2.847E+00 4.427E-01 6.423E-01 2.200E-01 1.305E+00 4.152E+00 1.678E+05 13.8879 1.00000
  6.000E+05 6.001E+05 2.856E+00 4.874E-01 7.071E-01 2.406E-01 1.435E+00 4.291E+00 1.796E+05 14.0619 1.00000
  7.000E+05 7.001E+05 2.873E+00 5.777E-01 8.377E-01 2.823E-01 1.698E+00 4.571E+00 2.022E+05 14.3702 1.00000
  8.000E+05 8.001E+05 2.888E+00 6.688E-01 9.692E-01 3.243E-01 1.962E+00 4.850E+00 2.235E+05 14.6372 1.00000
  9.000E+05 9.001E+05 2.901E+00 7.608E-01 1.102E+00 3.668E-01 2.229E+00 5.130E+00 2.435E+05 14.8727 1.00000
  1.000E+06 1.000E+06 2.913E+00 8.534E-01 1.235E+00 4.097E-01 2.498E+00 5.410E+00 2.625E+05 15.0834 1.00000
  1.200E+06 1.200E+06 2.933E+00 1.040E+00 1.502E+00 4.965E-01 3.039E+00 5.972E+00 2.977E+05 15.4480 1.00000
  1.400E+06 1.400E+06 2.950E+00 1.229E+00 1.771E+00 5.846E-01 3.584E+00 6.535E+00 3.298E+05 15.7563 1.00000
  1.700E+06 1.700E+06 2.972E+00 1.514E+00 2.177E+00 7.188E-01 4.410E+00 7.382E+00 3.731E+05 16.1446 1.00000
  2.000E+06 2.000E+06 2.991E+00 1.802E+00 2.585E+00 8.552E-01 5.242E+00 8.232E+00 4.116E+05 16.4696 1.00000
  2.500E+06 2.500E+06 3.016E+00 2.285E+00 3.268E+00 1.087E+00 6.640E+00 9.656E+00 4.679E+05 16.9159 1.00000
  3.000E+06 3.000E+06 3.037E+00 2.773E+00 3.954E+00 1.323E+00 8.050E+00 1.109E+01 5.163E+05 17.2805 1.00000
  3.500E+06 3.500E+06 3.055E+00 3.263E+00 4.642E+00 1.563E+00 9.468E+00 1.252E+01 5.588E+05 17.5888 1.00000
  4.000E+06 4.000E+06 3.070E+00 3.756E+00 5.332E+00 1.806E+00 1.089E+01 1.396E+01 5.967E+05 17.8558 1.00000
  4.500E+06 4.500E+06 3.084E+00 4.250E+00 6.023E+00 2.052E+00 1.233E+01 1.541E+01 6.308E+05 18.0914 1.00000
  5.000E+06 5.000E+06 3.097E+00 4.746E+00 6.715E+00 2.301E+00 1.376E+01 1.686E+01 6.619E+05 18.3021 1.00000
  5.500E+06 5.500E+06 3.108E+00 5.243E+00 7.408E+00 2.553E+00 1.520E+01 1.831E+01 6.903E+05 18.4927 1.00000
  6.000E+06 6.000E+06 3.118E+00 5.741E+00 8.101E+00 2.807E+00 1.665E+01 1.977E+01 7.166E+05 18.6668 1.00000
  7.000E+06 7.000E+06 3.137E+00 6.741E+00 9.490E+00 3.321E+00 1.955E+01 2.269E+01 7.640E+05 18.9750 1.00000
  8.000E+06 8.000E+06 3.153E+00 7.743E+00 1.088E+01 3.844E+00 2.247E+01 2.562E+01 8.055E+05 19.2421 1.00000
  9.000E+06 9.000E+06 3.167E+00 8.748E+00 1.227E+01 4.373E+00 2.539E+01 2.856E+01 8.425E+05 19.4777 1.00000
  1.000E+07 1.000E+07 3.180E+00 9.755E+00 1.366E+01 4.908E+00 2.833E+01 3.151E+01 8.759E+05 19.6884 1.00000
  1.200E+07 1.200E+07 3.202E+00 1.177E+01 1.645E+01 5.995E+00 3.422E+01 3.742E+01 9.344E+05 20.0530 1.00000
  1.400E+07 1.400E+07 3.221E+00 1.380E+01 1.924E+01 7.101E+00 4.014E+01 4.336E+01 9.842E+05 20.3613 1.00000
  1.700E+07 1.700E+07 3.245E+00 1.684E+01 2.343E+01 8.793E+00 4.907E+01 5.231E+01 1.047E+06 20.7496 1.00000
  2.000E+07 2.000E+07 3.266E+00 1.989E+01 2.763E+01 1.052E+01 5.803E+01 6.130E+01 1.101E+06 21.0747 1.00000
  2.500E+07 2.500E+07 3.294E+00 2.498E+01 3.462E+01 1.345E+01 7.305E+01 7.634E+01 1.174E+06 21.5210 1.00000
  3.000E+07 3.000E+07 3.317E+00 3.008E+01 4.161E+01 1.645E+01 8.814E+01 9.146E+01 1.234E+06 21.8856 1.00000
  3.500E+07 3.500E+07 3.337E+00 3.518E+01 4.861E+01 1.951E+01 1.033E+02 1.066E+02 1.285E+06 22.1939 1.00000
  4.000E+07 4.000E+07 3.354E+00 4.029E+01 5.561E+01 2.261E+01 1.185E+02 1.219E+02 1.329E+06 22.4610 1.00000
  4.500E+07 4.500E+07 3.369E+00 4.540E+01 6.262E+01 2.576E+01 1.338E+02 1.371E+02 1.368E+06 22.6965 1.00000
  5.000E+07 5.000E+07 3.383E+00 5.052E+01 6.962E+01 2.894E+01 1.491E+02 1.525E+02 1.402E+06 22.9072 1.00000
  5.500E+07 5.500E+07 3.396E+00 5.564E+01 7.663E+01 3.216E+01 1.644E+02 1.678E+02 1.434E+06 23.0979 1.00000
  6.000E+07 6.000E+07 3.407E+00 6.076E+01 8.363E+01 3.542E+01 1.798E+02 1.832E+02 1.462E+06 23.2719 1.00000
  7.000E+07 7.000E+07 3.428E+00 7.101E+01 9.765E+01 4.201E+01 2.107E+02 2.141E+02 1.513E+06 23.5802 1.00000
  8.000E+07 8.000E+07 3.446E+00 8.126E+01 1.117E+02 4.872E+01 2.416E+02 2.451E+02 1.557E+06 23.8473 1.00000
  9.000E+07 9.000E+07 3.461E+00 9.152E+01 1.257E+02 5.552E+01 2.727E+02 2.762E+02 1.595E+06 24.0828 1.00000
  1.000E+08 1.000E+08 3.476E+00 1.018E+02 1.397E+02 6.240E+01 3.039E+02 3.074E+02 1.629E+06 24.2935 1.00000
  1.200E+08 1.200E+08 3.501E+00 1.223E+02 1.677E+02 7.640E+01 3.664E+02 3.699E+02 1.689E+06 24.6582 1.00000
  1.400E+08 1.400E+08 3.522E+00 1.428E+02 1.958E+02 9.067E+01 4.293E+02 4.328E+02 1.739E+06 24.9665 1.00000
  1.700E+08 1.700E+08 3.549E+00 1.737E+02 2.378E+02 1.125E+02 5.240E+02 5.276E+02 1.802E+06 25.3548 1.00000
  2.000E+08 2.000E+08 3.571E+00 2.045E+02 2.799E+02 1.348E+02 6.192E+02 6.228E+02 1.855E+06 25.6798 1.00000
  2.500E+08 2.500E+08 3.603E+00 2.559E+02 3.500E+02 1.728E+02 7.787E+02 7.823E+02 1.927E+06 26.1261 1.00000
  3.000E+08 3.000E+08 3.629E+00 3.073E+02 4.201E+02 2.116E+02 9.390E+02 9.427E+02 1.985E+06 26.4908 1.00000
  3.500E+08 3.500E+08 3.651E+00 3.587E+02 4.903E+02 2.513E+02 1.100E+03 1.104E+03 2.034E+06 26.7991 1.00000
  4.000E+08 4.000E+08 3.670E+00 4.101E+02 5.604E+02 2.916E+02 1.262E+03 1.266E+03 2.077E+06 27.0661 1.00000
  4.500E+08 4.500E+08 3.687E+00 4.615E+02 6.305E+02 3.324E+02 1.424E+03 1.428E+03 2.114E+06 27.3017 1.00000
  5.000E+08 5.000E+08 3.703E+00 5.129E+02 7.006E+02 3.739E+02 1.587E+03 1.591E+03 2.147E+06 27.5124 1.00000
  5.500E+08 5.500E+08 3.717E+00 5.643E+02 7.708E+02 4.158E+02 1.751E+03 1.755E+03 2.177E+06 27.7030 1.00000
  6.000E+08 6.000E+08 3.729E+00 6.158E+02 8.409E+02 4.581E+02 1.915E+03 1.919E+03 2.205E+06 27.8771 1.00000
  7.000E+08 7.000E+08 3.752E+00 7.186E+02 9.811E+02 5.441E+02 2.244E+03 2.248E+03 2.253E+06 28.1854 1.00000
  8.000E+08 8.000E+08 3.772E+00 8.215E+02 1.121E+03 6.315E+02 2.574E+03 2.578E+03 2.295E+06 28.4524 1.00000
  9.000E+08 9.000E+08 3.790E+00 9.244E+02 1.262E+03 7.202E+02 2.906E+03 2.910E+03 2.331E+06 28.6880 1.00000
  1.000E+09 1.000E+09 3.806E+00 1.027E+03 1.402E+03 8.101E+02 3.239E+03 3.243E+03 2.364E+06 28.8987 1.00000
