 Incident particle is a Muon with M = 105.65839 MeV
 Index = 0: Neodymium
      Absorber with <Z/A> = 0.41597
 Sternheimer coef:  a     k=m_s   x_0    x_1    I[eV]   Cbar  delta0
                 0.2353  2.7050  0.1950  3.3029  546.0  5.8135 0.14

 *** Table generated with PUMAS v1.00 ***

      T         p     Ionization  brems     pair     photonuc  Radloss    dE/dx   CSDA Range  delta   beta
    [MeV]    [MeV/c]  -----------------------[MeV cm^2/g]------------------------  [g/cm^2]
  1.000E+00 1.457E+01 2.428E+01 4.398E-06 0.000E+00 0.000E+00 4.398E-06 2.428E+01 2.059E-02  0.0011 0.13661
  1.200E+00 1.597E+01 2.132E+01 5.053E-06 0.000E+00 0.000E+00 5.053E-06 2.132E+01 2.940E-02  0.0013 0.14944
  1.400E+00 1.726E+01 1.907E+01 5.673E-06 0.000E+00 0.000E+00 5.673E-06 1.907E+01 3.933E-02  0.0015 0.16119
  1.700E+00 1.903E+01 1.654E+01 6.550E-06 0.000E+00 0.000E+00 6.550E-06 1.654E+01 5.626E-02  0.0019 0.17725
  2.000E+00 2.066E+01 1.467E+01 7.375E-06 0.000E+00 0.000E+00 7.375E-06 1.467E+01 7.556E-02  0.0022 0.19186
  2.500E+00 2.312E+01 1.242E+01 8.654E-06 0.000E+00 0.000E+00 8.654E-06 1.242E+01 1.127E-01  0.0027 0.21376
  3.000E+00 2.536E+01 1.084E+01 9.836E-06 0.000E+00 0.000E+00 9.836E-06 1.084E+01 1.559E-01  0.0033 0.23336
  3.500E+00 2.742E+01 9.650E+00 1.094E-05 0.000E+00 0.000E+00 1.094E-05 9.650E+00 2.049E-01  0.0038 0.25120
  4.000E+00 2.935E+01 8.728E+00 1.198E-05 0.000E+00 0.000E+00 1.198E-05 8.728E+00 2.595E-01  0.0044 0.26763
  4.500E+00 3.116E+01 7.989E+00 1.297E-05 0.000E+00 0.000E+00 1.297E-05 7.989E+00 3.194E-01  0.0050 0.28290
  5.000E+00 3.289E+01 7.382E+00 1.390E-05 0.000E+00 0.000E+00 1.390E-05 7.382E+00 3.846E-01  0.0055 0.29720
  5.500E+00 3.453E+01 6.874E+00 1.480E-05 0.000E+00 0.000E+00 1.480E-05 6.874E+00 4.548E-01  0.0061 0.31066
  6.000E+00 3.611E+01 6.442E+00 1.566E-05 0.000E+00 0.000E+00 1.566E-05 6.442E+00 5.300E-01  0.0067 0.32339
  7.000E+00 3.909E+01 5.746E+00 1.728E-05 0.000E+00 0.000E+00 1.728E-05 5.746E+00 6.946E-01  0.0078 0.34700
  8.000E+00 4.189E+01 5.209E+00 1.879E-05 0.000E+00 0.000E+00 1.879E-05 5.209E+00 8.776E-01  0.0090 0.36854
  9.000E+00 4.453E+01 4.781E+00 2.022E-05 0.000E+00 0.000E+00 2.022E-05 4.781E+00 1.078E+00  0.0101 0.38836
  1.000E+01 4.704E+01 4.432E+00 2.157E-05 0.000E+00 0.000E+00 2.157E-05 4.432E+00 1.296E+00  0.0113 0.40675
  1.200E+01 5.177E+01 3.894E+00 2.408E-05 0.000E+00 0.000E+00 2.408E-05 3.894E+00 1.778E+00  0.0137 0.43998
  1.400E+01 5.616E+01 3.500E+00 2.641E-05 0.000E+00 0.000E+00 2.641E-05 3.500E+00 2.320E+00  0.0161 0.46937
  1.700E+01 6.230E+01 3.072E+00 2.963E-05 0.000E+00 0.000E+00 2.963E-05 3.072E+00 3.237E+00  0.0198 0.50792
  2.000E+01 6.802E+01 2.765E+00 3.261E-05 0.000E+00 0.000E+00 3.261E-05 2.765E+00 4.268E+00  0.0236 0.54129
  2.500E+01 7.686E+01 2.411E+00 3.723E-05 0.000E+00 0.000E+00 3.723E-05 2.411E+00 6.209E+00  0.0302 0.58827
  3.000E+01 8.509E+01 2.170E+00 4.156E-05 0.000E+00 0.000E+00 4.156E-05 2.170E+00 8.398E+00  0.0370 0.62720
  3.500E+01 9.285E+01 1.997E+00 4.570E-05 0.000E+00 0.000E+00 4.570E-05 1.997E+00 1.080E+01  0.0440 0.66011
  4.000E+01 1.003E+02 1.867E+00 4.972E-05 0.000E+00 0.000E+00 4.972E-05 1.867E+00 1.339E+01  0.0514 0.68834
  4.500E+01 1.074E+02 1.765E+00 5.368E-05 0.000E+00 0.000E+00 5.368E-05 1.765E+00 1.615E+01  0.0589 0.71286
  5.000E+01 1.143E+02 1.685E+00 5.760E-05 0.000E+00 0.000E+00 5.760E-05 1.685E+00 1.905E+01  0.0668 0.73434
  5.500E+01 1.210E+02 1.619E+00 6.150E-05 0.000E+00 0.000E+00 6.150E-05 1.619E+00 2.208E+01  0.0748 0.75332
  6.000E+01 1.276E+02 1.565E+00 6.539E-05 0.000E+00 0.000E+00 6.539E-05 1.566E+00 2.522E+01  0.0832 0.77019
  7.000E+01 1.403E+02 1.482E+00 7.323E-05 0.000E+00 0.000E+00 7.323E-05 1.482E+00 3.178E+01  0.1006 0.79887
  8.000E+01 1.527E+02 1.422E+00 8.116E-05 0.000E+00 0.000E+00 8.116E-05 1.422E+00 3.867E+01  0.1191 0.82227
  9.000E+01 1.647E+02 1.377E+00 8.922E-05 0.000E+00 0.000E+00 8.922E-05 1.377E+00 4.582E+01  0.1385 0.84166
  1.000E+02 1.764E+02 1.344E+00 9.743E-05 0.000E+00 0.000E+00 9.743E-05 1.344E+00 5.317E+01  0.1464 0.85794
  1.200E+02 1.994E+02 1.298E+00 1.144E-04 0.000E+00 0.000E+00 1.144E-04 1.298E+00 6.832E+01  0.1642 0.88361
  1.400E+02 2.218E+02 1.270E+00 1.320E-04 0.000E+00 0.000E+00 1.320E-04 1.270E+00 8.389E+01  0.1851 0.90278
  1.700E+02 2.546E+02 1.246E+00 1.597E-04 0.000E+00 0.000E+00 1.597E-04 1.246E+00 1.077E+02  0.2198 0.92363
  2.000E+02 2.868E+02 1.235E+00 1.890E-04 0.000E+00 0.000E+00 1.890E-04 1.235E+00 1.319E+02  0.2563 0.93835
  2.500E+02 3.396E+02 1.231E+00 2.409E-04 0.000E+00 0.000E+00 2.409E-04 1.231E+00 1.725E+02  0.3186 0.95485
  3.000E+02 3.917E+02 1.236E+00 2.964E-04 0.000E+00 0.000E+00 2.964E-04 1.236E+00 2.130E+02  0.3806 0.96548
  3.500E+02 4.432E+02 1.245E+00 3.554E-04 0.000E+00 0.000E+00 3.554E-04 1.245E+00 2.533E+02  0.4412 0.97274
  4.000E+02 4.945E+02 1.256E+00 4.174E-04 0.000E+00 0.000E+00 4.174E-04 1.256E+00 2.933E+02  0.5000 0.97793
  4.500E+02 5.455E+02 1.267E+00 4.822E-04 3.912E-05 0.000E+00 5.214E-04 1.268E+00 3.329E+02  0.5570 0.98176
  5.000E+02 5.964E+02 1.279E+00 5.498E-04 6.157E-05 0.000E+00 6.113E-04 1.279E+00 3.722E+02  0.6120 0.98467
  5.500E+02 6.471E+02 1.290E+00 6.197E-04 8.626E-05 0.000E+00 7.060E-04 1.291E+00 4.111E+02  0.6651 0.98693
  6.000E+02 6.977E+02 1.301E+00 6.920E-04 1.144E-04 0.000E+00 8.064E-04 1.302E+00 4.497E+02  0.7165 0.98873
  7.000E+02 7.987E+02 1.322E+00 8.431E-04 1.811E-04 0.000E+00 1.024E-03 1.323E+00 5.259E+02  0.8142 0.99136
  8.000E+02 8.995E+02 1.341E+00 1.002E-03 2.611E-04 0.000E+00 1.263E-03 1.342E+00 6.009E+02  0.9059 0.99317
  9.000E+02 1.000E+03 1.359E+00 1.168E-03 3.535E-04 0.000E+00 1.521E-03 1.360E+00 6.749E+02  0.9922 0.99447
  1.000E+03 1.101E+03 1.375E+00 1.340E-03 4.575E-04 0.000E+00 1.798E-03 1.377E+00 7.480E+02  1.0737 0.99542
  1.200E+03 1.301E+03 1.404E+00 1.703E-03 6.980E-04 2.246E-05 2.423E-03 1.407E+00 8.917E+02  1.2244 0.99672
  1.400E+03 1.502E+03 1.429E+00 2.086E-03 9.777E-04 6.095E-05 3.125E-03 1.432E+00 1.033E+03  1.3613 0.99753
  1.700E+03 1.803E+03 1.461E+00 2.695E-03 1.463E-03 1.292E-04 4.287E-03 1.465E+00 1.240E+03  1.5459 0.99829
  2.000E+03 2.103E+03 1.488E+00 3.338E-03 2.017E-03 2.085E-04 5.564E-03 1.493E+00 1.443E+03  1.7109 0.99874
  2.500E+03 2.604E+03 1.524E+00 4.476E-03 3.075E-03 3.601E-04 7.911E-03 1.532E+00 1.773E+03  1.9523 0.99918
  3.000E+03 3.104E+03 1.554E+00 5.684E-03 4.275E-03 5.171E-04 1.048E-02 1.564E+00 2.096E+03  2.1622 0.99942
  3.500E+03 3.604E+03 1.578E+00 6.950E-03 5.598E-03 6.818E-04 1.323E-02 1.591E+00 2.413E+03  2.3483 0.99957
  4.000E+03 4.104E+03 1.599E+00 8.267E-03 7.039E-03 8.565E-04 1.616E-02 1.615E+00 2.725E+03  2.5157 0.99967
  4.500E+03 4.604E+03 1.617E+00 9.629E-03 8.580E-03 1.037E-03 1.925E-02 1.636E+00 3.033E+03  2.6680 0.99974
  5.000E+03 5.105E+03 1.633E+00 1.103E-02 1.021E-02 1.210E-03 2.245E-02 1.656E+00 3.336E+03  2.8079 0.99979
  5.500E+03 5.605E+03 1.648E+00 1.247E-02 1.191E-02 1.395E-03 2.578E-02 1.673E+00 3.637E+03  2.9373 0.99982
  6.000E+03 6.105E+03 1.660E+00 1.394E-02 1.369E-02 1.567E-03 2.920E-02 1.690E+00 3.934E+03  3.0578 0.99985
  7.000E+03 7.105E+03 1.683E+00 1.697E-02 1.744E-02 1.931E-03 3.634E-02 1.719E+00 4.521E+03  3.2767 0.99989
  8.000E+03 8.105E+03 1.702E+00 2.011E-02 2.141E-02 2.290E-03 4.381E-02 1.746E+00 5.098E+03  3.4718 0.99992
  9.000E+03 9.105E+03 1.718E+00 2.333E-02 2.558E-02 2.626E-03 5.154E-02 1.770E+00 5.667E+03  3.6479 0.99993
  1.000E+04 1.011E+04 1.733E+00 2.664E-02 2.993E-02 2.972E-03 5.954E-02 1.792E+00 6.228E+03  3.8086 0.99995
  1.200E+04 1.211E+04 1.757E+00 3.347E-02 3.907E-02 3.671E-03 7.621E-02 1.833E+00 7.332E+03  4.0934 0.99996
  1.400E+04 1.411E+04 1.777E+00 4.054E-02 4.873E-02 4.368E-03 9.364E-02 1.871E+00 8.412E+03  4.3407 0.99997
  1.700E+04 1.711E+04 1.801E+00 5.152E-02 6.402E-02 5.395E-03 1.209E-01 1.922E+00 9.994E+03  4.6602 0.99998
  2.000E+04 2.011E+04 1.821E+00 6.289E-02 8.010E-02 6.399E-03 1.494E-01 1.970E+00 1.154E+04  4.9341 0.99999
  2.500E+04 2.511E+04 1.847E+00 8.252E-02 1.083E-01 8.041E-03 1.988E-01 2.045E+00 1.403E+04  5.3195 0.99999
  3.000E+04 3.011E+04 1.867E+00 1.028E-01 1.379E-01 9.645E-03 2.504E-01 2.117E+00 1.643E+04  5.6417 0.99999
  3.500E+04 3.511E+04 1.884E+00 1.237E-01 1.686E-01 1.126E-02 3.036E-01 2.187E+00 1.875E+04  5.9191 1.00000
  4.000E+04 4.011E+04 1.898E+00 1.451E-01 2.002E-01 1.286E-02 3.581E-01 2.256E+00 2.101E+04  6.1627 1.00000
  4.500E+04 4.511E+04 1.910E+00 1.669E-01 2.325E-01 1.442E-02 4.138E-01 2.323E+00 2.319E+04  6.3801 1.00000
  5.000E+04 5.011E+04 1.920E+00 1.891E-01 2.655E-01 1.599E-02 4.706E-01 2.391E+00 2.531E+04  6.5764 1.00000
  5.500E+04 5.511E+04 1.930E+00 2.115E-01 2.991E-01 1.757E-02 5.282E-01 2.458E+00 2.737E+04  6.7554 1.00000
  6.000E+04 6.011E+04 1.938E+00 2.343E-01 3.332E-01 1.912E-02 5.866E-01 2.525E+00 2.938E+04  6.9200 1.00000
  7.000E+04 7.011E+04 1.953E+00 2.806E-01 4.026E-01 2.221E-02 7.054E-01 2.658E+00 3.324E+04  7.2141 1.00000
  8.000E+04 8.011E+04 1.965E+00 3.277E-01 4.735E-01 2.529E-02 8.265E-01 2.792E+00 3.692E+04  7.4713 1.00000
  9.000E+04 9.011E+04 1.976E+00 3.756E-01 5.455E-01 2.838E-02 9.495E-01 2.925E+00 4.042E+04  7.6998 1.00000
  1.000E+05 1.001E+05 1.985E+00 4.241E-01 6.186E-01 3.140E-02 1.074E+00 3.059E+00 4.376E+04  7.9054 1.00000
  1.200E+05 1.201E+05 2.002E+00 5.227E-01 7.672E-01 3.755E-02 1.327E+00 3.329E+00 5.003E+04  8.2637 1.00000
  1.400E+05 1.401E+05 2.015E+00 6.232E-01 9.183E-01 4.368E-02 1.585E+00 3.600E+00 5.581E+04  8.5687 1.00000
  1.700E+05 1.701E+05 2.032E+00 7.766E-01 1.149E+00 5.288E-02 1.978E+00 4.010E+00 6.372E+04  8.9548 1.00000
  2.000E+05 2.001E+05 2.046E+00 9.326E-01 1.383E+00 6.211E-02 2.378E+00 4.423E+00 7.085E+04  9.2793 1.00000
  2.500E+05 2.501E+05 2.065E+00 1.197E+00 1.779E+00 7.753E-02 3.053E+00 5.118E+00 8.139E+04  9.7254 1.00000
  3.000E+05 3.001E+05 2.080E+00 1.466E+00 2.180E+00 9.304E-02 3.739E+00 5.819E+00 9.057E+04 10.0899 1.00000
  3.500E+05 3.501E+05 2.093E+00 1.739E+00 2.584E+00 1.087E-01 4.432E+00 6.525E+00 9.870E+04 10.3981 1.00000
  4.000E+05 4.001E+05 2.105E+00 2.014E+00 2.992E+00 1.245E-01 5.131E+00 7.235E+00 1.060E+05 10.6650 1.00000
  4.500E+05 4.501E+05 2.115E+00 2.291E+00 3.403E+00 1.403E-01 5.834E+00 7.949E+00 1.126E+05 10.9006 1.00000
  5.000E+05 5.001E+05 2.124E+00 2.571E+00 3.815E+00 1.563E-01 6.542E+00 8.666E+00 1.186E+05 11.1112 1.00000
  5.500E+05 5.501E+05 2.132E+00 2.852E+00 4.229E+00 1.721E-01 7.253E+00 9.385E+00 1.242E+05 11.3018 1.00000
  6.000E+05 6.001E+05 2.139E+00 3.135E+00 4.644E+00 1.880E-01 7.967E+00 1.011E+01 1.293E+05 11.4758 1.00000
  7.000E+05 7.001E+05 2.153E+00 3.703E+00 5.479E+00 2.201E-01 9.402E+00 1.155E+01 1.386E+05 11.7841 1.00000
  8.000E+05 8.001E+05 2.164E+00 4.277E+00 6.317E+00 2.525E-01 1.085E+01 1.301E+01 1.467E+05 12.0511 1.00000
  9.000E+05 9.001E+05 2.175E+00 4.853E+00 7.158E+00 2.852E-01 1.230E+01 1.447E+01 1.540E+05 12.2866 1.00000
  1.000E+06 1.000E+06 2.184E+00 5.433E+00 8.002E+00 3.182E-01 1.375E+01 1.594E+01 1.606E+05 12.4973 1.00000
  1.200E+06 1.200E+06 2.200E+00 6.598E+00 9.695E+00 3.850E-01 1.668E+01 1.888E+01 1.722E+05 12.8619 1.00000
  1.400E+06 1.400E+06 2.213E+00 7.771E+00 1.139E+01 4.527E-01 1.962E+01 2.183E+01 1.821E+05 13.1702 1.00000
  1.700E+06 1.700E+06 2.230E+00 9.541E+00 1.395E+01 5.559E-01 2.405E+01 2.628E+01 1.947E+05 13.5585 1.00000
  2.000E+06 2.000E+06 2.245E+00 1.132E+01 1.651E+01 6.607E-01 2.850E+01 3.074E+01 2.053E+05 13.8835 1.00000
  2.500E+06 2.500E+06 2.265E+00 1.430E+01 2.080E+01 8.385E-01 3.594E+01 3.821E+01 2.199E+05 14.3298 1.00000
  3.000E+06 3.000E+06 2.281E+00 1.730E+01 2.510E+01 1.020E+00 4.342E+01 4.570E+01 2.319E+05 14.6944 1.00000
  3.500E+06 3.500E+06 2.295E+00 2.031E+01 2.940E+01 1.204E+00 5.091E+01 5.320E+01 2.421E+05 15.0027 1.00000
  4.000E+06 4.000E+06 2.307E+00 2.332E+01 3.371E+01 1.390E+00 5.842E+01 6.073E+01 2.509E+05 15.2697 1.00000
  4.500E+06 4.500E+06 2.318E+00 2.634E+01 3.802E+01 1.580E+00 6.594E+01 6.826E+01 2.587E+05 15.5053 1.00000
  5.000E+06 5.000E+06 2.328E+00 2.937E+01 4.234E+01 1.771E+00 7.348E+01 7.581E+01 2.657E+05 15.7160 1.00000
  5.500E+06 5.500E+06 2.337E+00 3.240E+01 4.666E+01 1.964E+00 8.102E+01 8.336E+01 2.720E+05 15.9066 1.00000
  6.000E+06 6.000E+06 2.345E+00 3.544E+01 5.098E+01 2.159E+00 8.857E+01 9.092E+01 2.777E+05 16.0807 1.00000
  7.000E+06 7.000E+06 2.359E+00 4.152E+01 5.963E+01 2.553E+00 1.037E+02 1.061E+02 2.879E+05 16.3889 1.00000
  8.000E+06 8.000E+06 2.372E+00 4.761E+01 6.828E+01 2.954E+00 1.188E+02 1.212E+02 2.968E+05 16.6560 1.00000
  9.000E+06 9.000E+06 2.383E+00 5.370E+01 7.694E+01 3.359E+00 1.340E+02 1.364E+02 3.046E+05 16.8916 1.00000
  1.000E+07 1.000E+07 2.393E+00 5.981E+01 8.561E+01 3.770E+00 1.492E+02 1.516E+02 3.115E+05 17.1023 1.00000
  1.200E+07 1.200E+07 2.411E+00 7.203E+01 1.029E+02 4.603E+00 1.796E+02 1.820E+02 3.236E+05 17.4669 1.00000
  1.400E+07 1.400E+07 2.426E+00 8.427E+01 1.203E+02 5.451E+00 2.100E+02 2.124E+02 3.338E+05 17.7752 1.00000
  1.700E+07 1.700E+07 2.444E+00 1.026E+02 1.463E+02 6.748E+00 2.557E+02 2.582E+02 3.467E+05 18.1635 1.00000
  2.000E+07 2.000E+07 2.460E+00 1.210E+02 1.724E+02 8.069E+00 3.015E+02 3.039E+02 3.574E+05 18.4886 1.00000
  2.500E+07 2.500E+07 2.483E+00 1.517E+02 2.158E+02 1.032E+01 3.778E+02 3.803E+02 3.722E+05 18.9349 1.00000
  3.000E+07 3.000E+07 2.501E+00 1.824E+02 2.592E+02 1.262E+01 4.543E+02 4.568E+02 3.843E+05 19.2995 1.00000
  3.500E+07 3.500E+07 2.516E+00 2.132E+02 3.027E+02 1.496E+01 5.308E+02 5.333E+02 3.944E+05 19.6078 1.00000
  4.000E+07 4.000E+07 2.530E+00 2.439E+02 3.461E+02 1.734E+01 6.073E+02 6.099E+02 4.032E+05 19.8749 1.00000
  4.500E+07 4.500E+07 2.542E+00 2.747E+02 3.896E+02 1.975E+01 6.840E+02 6.865E+02 4.110E+05 20.1104 1.00000
  5.000E+07 5.000E+07 2.553E+00 3.054E+02 4.330E+02 2.219E+01 7.606E+02 7.632E+02 4.179E+05 20.3211 1.00000
  5.500E+07 5.500E+07 2.563E+00 3.362E+02 4.765E+02 2.466E+01 8.373E+02 8.399E+02 4.241E+05 20.5118 1.00000
  6.000E+07 6.000E+07 2.572E+00 3.669E+02 5.199E+02 2.715E+01 9.140E+02 9.166E+02 4.298E+05 20.6858 1.00000
  7.000E+07 7.000E+07 2.588E+00 4.285E+02 6.069E+02 3.221E+01 1.068E+03 1.070E+03 4.400E+05 20.9941 1.00000
  8.000E+07 8.000E+07 2.602E+00 4.901E+02 6.938E+02 3.735E+01 1.221E+03 1.224E+03 4.487E+05 21.2612 1.00000
  9.000E+07 9.000E+07 2.614E+00 5.516E+02 7.808E+02 4.256E+01 1.375E+03 1.378E+03 4.564E+05 21.4967 1.00000
  1.000E+08 1.000E+08 2.625E+00 6.132E+02 8.677E+02 4.784E+01 1.529E+03 1.531E+03 4.633E+05 21.7074 1.00000
  1.200E+08 1.200E+08 2.645E+00 7.364E+02 1.042E+03 5.856E+01 1.837E+03 1.839E+03 4.753E+05 22.0721 1.00000
  1.400E+08 1.400E+08 2.661E+00 8.596E+02 1.216E+03 6.950E+01 2.145E+03 2.147E+03 4.854E+05 22.3804 1.00000
  1.700E+08 1.700E+08 2.682E+00 1.044E+03 1.476E+03 8.623E+01 2.607E+03 2.610E+03 4.981E+05 22.7687 1.00000
  2.000E+08 2.000E+08 2.700E+00 1.229E+03 1.737E+03 1.033E+02 3.070E+03 3.073E+03 5.088E+05 23.0937 1.00000
  2.500E+08 2.500E+08 2.725E+00 1.537E+03 2.172E+03 1.324E+02 3.842E+03 3.845E+03 5.234E+05 23.5400 1.00000
  3.000E+08 3.000E+08 2.745E+00 1.846E+03 2.607E+03 1.622E+02 4.615E+03 4.617E+03 5.353E+05 23.9047 1.00000
  3.500E+08 3.500E+08 2.762E+00 2.154E+03 3.042E+03 1.926E+02 5.388E+03 5.391E+03 5.454E+05 24.2130 1.00000
  4.000E+08 4.000E+08 2.778E+00 2.462E+03 3.476E+03 2.234E+02 6.162E+03 6.165E+03 5.541E+05 24.4800 1.00000
  4.500E+08 4.500E+08 2.791E+00 2.770E+03 3.911E+03 2.548E+02 6.936E+03 6.939E+03 5.617E+05 24.7156 1.00000
  5.000E+08 5.000E+08 2.803E+00 3.078E+03 4.346E+03 2.865E+02 7.711E+03 7.714E+03 5.686E+05 24.9263 1.00000
  5.500E+08 5.500E+08 2.814E+00 3.386E+03 4.781E+03 3.186E+02 8.486E+03 8.489E+03 5.747E+05 25.1169 1.00000
  6.000E+08 6.000E+08 2.824E+00 3.695E+03 5.216E+03 3.511E+02 9.261E+03 9.264E+03 5.804E+05 25.2910 1.00000
  7.000E+08 7.000E+08 2.842E+00 4.311E+03 6.085E+03 4.170E+02 1.081E+04 1.082E+04 5.904E+05 25.5993 1.00000
  8.000E+08 8.000E+08 2.858E+00 4.927E+03 6.955E+03 4.840E+02 1.237E+04 1.237E+04 5.991E+05 25.8663 1.00000
  9.000E+08 9.000E+08 2.872E+00 5.544E+03 7.824E+03 5.519E+02 1.392E+04 1.392E+04 6.067E+05 26.1019 1.00000
  1.000E+09 1.000E+09 2.884E+00 6.160E+03 8.694E+03 6.208E+02 1.547E+04 1.548E+04 6.135E+05 26.3126 1.00000
