 Incident particle is a Muon with M = 105.65839 MeV
 Index = 0: Neptunium
      Absorber with <Z/A> = 0.39233
 Sternheimer coef:  a     k=m_s   x_0    x_1    I[eV]   Cbar  delta0
                 0.1974  2.8082  0.1869  3.3690  902.0  5.8149 0.14

 *** Table generated with PUMAS v1.00 ***

      T         p     Ionization  brems     pair     photonuc  Radloss    dE/dx   CSDA Range  delta   beta
    [MeV]    [MeV/c]  -----------------------[MeV cm^2/g]------------------------  [g/cm^2]
  1.000E+00 1.457E+01 1.966E+01 6.190E-06 0.000E+00 0.000E+00 6.190E-06 1.966E+01 2.543E-02  0.0011 0.13661
  1.200E+00 1.597E+01 1.740E+01 7.106E-06 0.000E+00 0.000E+00 7.106E-06 1.740E+01 3.626E-02  0.0014 0.14944
  1.400E+00 1.726E+01 1.566E+01 7.973E-06 0.000E+00 0.000E+00 7.973E-06 1.566E+01 4.839E-02  0.0016 0.16119
  1.700E+00 1.903E+01 1.368E+01 9.196E-06 0.000E+00 0.000E+00 9.196E-06 1.368E+01 6.894E-02  0.0019 0.17725
  2.000E+00 2.066E+01 1.219E+01 1.034E-05 0.000E+00 0.000E+00 1.034E-05 1.219E+01 9.221E-02  0.0023 0.19186
  2.500E+00 2.312E+01 1.039E+01 1.212E-05 0.000E+00 0.000E+00 1.212E-05 1.039E+01 1.368E-01  0.0028 0.21376
  3.000E+00 2.536E+01 9.109E+00 1.375E-05 0.000E+00 0.000E+00 1.375E-05 9.109E+00 1.883E-01  0.0034 0.23336
  3.500E+00 2.742E+01 8.143E+00 1.528E-05 0.000E+00 0.000E+00 1.528E-05 8.143E+00 2.464E-01  0.0040 0.25120
  4.000E+00 2.935E+01 7.387E+00 1.671E-05 0.000E+00 0.000E+00 1.671E-05 7.387E+00 3.110E-01  0.0046 0.26763
  4.500E+00 3.116E+01 6.779E+00 1.806E-05 0.000E+00 0.000E+00 1.806E-05 6.779E+00 3.817E-01  0.0052 0.28290
  5.000E+00 3.289E+01 6.277E+00 1.935E-05 0.000E+00 0.000E+00 1.935E-05 6.277E+00 4.584E-01  0.0057 0.29720
  5.500E+00 3.453E+01 5.856E+00 2.057E-05 0.000E+00 0.000E+00 2.057E-05 5.856E+00 5.409E-01  0.0063 0.31066
  6.000E+00 3.611E+01 5.497E+00 2.175E-05 0.000E+00 0.000E+00 2.175E-05 5.497E+00 6.291E-01  0.0069 0.32339
  7.000E+00 3.909E+01 4.917E+00 2.396E-05 0.000E+00 0.000E+00 2.396E-05 4.917E+00 8.217E-01  0.0081 0.34700
  8.000E+00 4.189E+01 4.468E+00 2.602E-05 0.000E+00 0.000E+00 2.602E-05 4.468E+00 1.035E+00  0.0093 0.36854
  9.000E+00 4.453E+01 4.108E+00 2.796E-05 0.000E+00 0.000E+00 2.796E-05 4.108E+00 1.269E+00  0.0105 0.38836
  1.000E+01 4.704E+01 3.814E+00 2.979E-05 0.000E+00 0.000E+00 2.979E-05 3.814E+00 1.522E+00  0.0117 0.40675
  1.200E+01 5.177E+01 3.360E+00 3.321E-05 0.000E+00 0.000E+00 3.321E-05 3.361E+00 2.082E+00  0.0142 0.43998
  1.400E+01 5.616E+01 3.027E+00 3.635E-05 0.000E+00 0.000E+00 3.635E-05 3.027E+00 2.709E+00  0.0167 0.46937
  1.700E+01 6.230E+01 2.663E+00 4.071E-05 0.000E+00 0.000E+00 4.071E-05 2.663E+00 3.768E+00  0.0206 0.50792
  2.000E+01 6.802E+01 2.402E+00 4.474E-05 0.000E+00 0.000E+00 4.474E-05 2.402E+00 4.956E+00  0.0245 0.54129
  2.500E+01 7.686E+01 2.099E+00 5.097E-05 0.000E+00 0.000E+00 5.097E-05 2.099E+00 7.188E+00  0.0313 0.58827
  3.000E+01 8.509E+01 1.893E+00 5.682E-05 0.000E+00 0.000E+00 5.682E-05 1.893E+00 9.700E+00  0.0384 0.62720
  3.500E+01 9.285E+01 1.744E+00 6.241E-05 0.000E+00 0.000E+00 6.241E-05 1.744E+00 1.245E+01  0.0457 0.66011
  4.000E+01 1.003E+02 1.633E+00 6.786E-05 0.000E+00 0.000E+00 6.786E-05 1.633E+00 1.542E+01  0.0533 0.68834
  4.500E+01 1.074E+02 1.546E+00 7.322E-05 0.000E+00 0.000E+00 7.322E-05 1.546E+00 1.857E+01  0.0612 0.71286
  5.000E+01 1.143E+02 1.477E+00 7.853E-05 0.000E+00 0.000E+00 7.853E-05 1.477E+00 2.188E+01  0.0693 0.73434
  5.500E+01 1.210E+02 1.420E+00 8.382E-05 0.000E+00 0.000E+00 8.382E-05 1.421E+00 2.533E+01  0.0777 0.75332
  6.000E+01 1.276E+02 1.374E+00 8.911E-05 0.000E+00 0.000E+00 8.911E-05 1.374E+00 2.891E+01  0.0863 0.77019
  7.000E+01 1.403E+02 1.303E+00 9.976E-05 0.000E+00 0.000E+00 9.976E-05 1.303E+00 3.638E+01  0.1044 0.79887
  8.000E+01 1.527E+02 1.251E+00 1.105E-04 0.000E+00 0.000E+00 1.105E-04 1.252E+00 4.422E+01  0.1236 0.82227
  9.000E+01 1.647E+02 1.213E+00 1.215E-04 0.000E+00 0.000E+00 1.215E-04 1.213E+00 5.233E+01  0.1406 0.84166
  1.000E+02 1.764E+02 1.185E+00 1.327E-04 0.000E+00 0.000E+00 1.327E-04 1.185E+00 6.067E+01  0.1455 0.85794
  1.200E+02 1.994E+02 1.147E+00 1.558E-04 0.000E+00 0.000E+00 1.558E-04 1.147E+00 7.782E+01  0.1597 0.88361
  1.400E+02 2.218E+02 1.124E+00 1.799E-04 0.000E+00 0.000E+00 1.799E-04 1.124E+00 9.544E+01  0.1778 0.90278
  1.700E+02 2.546E+02 1.105E+00 2.179E-04 0.000E+00 0.000E+00 2.179E-04 1.105E+00 1.224E+02  0.2091 0.92363
  2.000E+02 2.868E+02 1.097E+00 2.580E-04 0.000E+00 0.000E+00 2.580E-04 1.097E+00 1.496E+02  0.2431 0.93835
  2.500E+02 3.396E+02 1.096E+00 3.292E-04 0.000E+00 0.000E+00 3.292E-04 1.096E+00 1.952E+02  0.3024 0.95485
  3.000E+02 3.917E+02 1.102E+00 4.056E-04 0.000E+00 0.000E+00 4.056E-04 1.103E+00 2.407E+02  0.3622 0.96548
  3.500E+02 4.432E+02 1.112E+00 4.867E-04 0.000E+00 0.000E+00 4.867E-04 1.112E+00 2.858E+02  0.4213 0.97274
  4.000E+02 4.945E+02 1.122E+00 5.721E-04 0.000E+00 0.000E+00 5.721E-04 1.123E+00 3.306E+02  0.4790 0.97793
  4.500E+02 5.455E+02 1.134E+00 6.616E-04 0.000E+00 0.000E+00 6.616E-04 1.134E+00 3.749E+02  0.5351 0.98176
  5.000E+02 5.964E+02 1.145E+00 7.547E-04 5.032E-05 0.000E+00 8.050E-04 1.146E+00 4.187E+02  0.5895 0.98467
  5.500E+02 6.471E+02 1.156E+00 8.514E-04 1.198E-04 0.000E+00 9.712E-04 1.157E+00 4.622E+02  0.6422 0.98693
  6.000E+02 6.977E+02 1.167E+00 9.513E-04 1.632E-04 0.000E+00 1.115E-03 1.168E+00 5.052E+02  0.6932 0.98873
  7.000E+02 7.987E+02 1.187E+00 1.160E-03 2.603E-04 0.000E+00 1.421E-03 1.188E+00 5.901E+02  0.7905 0.99136
  8.000E+02 8.995E+02 1.205E+00 1.380E-03 3.762E-04 0.000E+00 1.757E-03 1.207E+00 6.736E+02  0.8819 0.99317
  9.000E+02 1.000E+03 1.222E+00 1.610E-03 5.101E-04 0.000E+00 2.121E-03 1.224E+00 7.559E+02  0.9682 0.99447
  1.000E+03 1.101E+03 1.237E+00 1.850E-03 6.610E-04 0.000E+00 2.511E-03 1.240E+00 8.370E+02  1.0498 0.99542
  1.200E+03 1.301E+03 1.265E+00 2.353E-03 1.010E-03 2.244E-05 3.386E-03 1.268E+00 9.965E+02  1.2009 0.99672
  1.400E+03 1.502E+03 1.289E+00 2.887E-03 1.416E-03 6.078E-05 4.363E-03 1.293E+00 1.153E+03  1.3384 0.99753
  1.700E+03 1.803E+03 1.319E+00 3.734E-03 2.119E-03 1.285E-04 5.982E-03 1.325E+00 1.382E+03  1.5240 0.99829
  2.000E+03 2.103E+03 1.344E+00 4.631E-03 2.924E-03 2.071E-04 7.763E-03 1.352E+00 1.606E+03  1.6899 0.99874
  2.500E+03 2.604E+03 1.378E+00 6.220E-03 4.459E-03 3.567E-04 1.104E-02 1.389E+00 1.971E+03  1.9330 0.99918
  3.000E+03 3.104E+03 1.406E+00 7.909E-03 6.202E-03 5.112E-04 1.462E-02 1.420E+00 2.327E+03  2.1444 0.99942
  3.500E+03 3.604E+03 1.429E+00 9.680E-03 8.121E-03 6.728E-04 1.847E-02 1.447E+00 2.676E+03  2.3318 0.99957
  4.000E+03 4.104E+03 1.449E+00 1.152E-02 1.021E-02 8.440E-04 2.257E-02 1.471E+00 3.019E+03  2.5005 0.99967
  4.500E+03 4.604E+03 1.466E+00 1.343E-02 1.243E-02 1.021E-03 2.689E-02 1.493E+00 3.356E+03  2.6539 0.99974
  5.000E+03 5.105E+03 1.481E+00 1.540E-02 1.478E-02 1.189E-03 3.137E-02 1.512E+00 3.689E+03  2.7948 0.99979
  5.500E+03 5.605E+03 1.494E+00 1.742E-02 1.725E-02 1.370E-03 3.603E-02 1.530E+00 4.018E+03  2.9252 0.99982
  6.000E+03 6.105E+03 1.506E+00 1.948E-02 1.981E-02 1.538E-03 4.083E-02 1.547E+00 4.343E+03  3.0466 0.99985
  7.000E+03 7.105E+03 1.527E+00 2.374E-02 2.522E-02 1.892E-03 5.085E-02 1.578E+00 4.983E+03  3.2670 0.99989
  8.000E+03 8.105E+03 1.545E+00 2.814E-02 3.095E-02 2.242E-03 6.133E-02 1.607E+00 5.611E+03  3.4634 0.99992
  9.000E+03 9.105E+03 1.561E+00 3.268E-02 3.696E-02 2.569E-03 7.221E-02 1.633E+00 6.228E+03  3.6407 0.99993
  1.000E+04 1.011E+04 1.574E+00 3.733E-02 4.322E-02 2.905E-03 8.345E-02 1.658E+00 6.836E+03  3.8023 0.99995
  1.200E+04 1.211E+04 1.597E+00 4.693E-02 5.639E-02 3.582E-03 1.069E-01 1.704E+00 8.026E+03  4.0888 0.99996
  1.400E+04 1.411E+04 1.616E+00 5.688E-02 7.028E-02 4.257E-03 1.314E-01 1.747E+00 9.185E+03  4.3373 0.99997
  1.700E+04 1.711E+04 1.638E+00 7.235E-02 9.225E-02 5.251E-03 1.698E-01 1.808E+00 1.087E+04  4.6583 0.99998
  2.000E+04 2.011E+04 1.657E+00 8.835E-02 1.153E-01 6.220E-03 2.099E-01 1.867E+00 1.251E+04  4.9333 0.99999
  2.500E+04 2.511E+04 1.681E+00 1.160E-01 1.557E-01 7.803E-03 2.795E-01 1.961E+00 1.512E+04  5.3200 0.99999
  3.000E+04 3.011E+04 1.700E+00 1.446E-01 1.981E-01 9.348E-03 3.521E-01 2.052E+00 1.761E+04  5.6431 0.99999
  3.500E+04 3.511E+04 1.716E+00 1.741E-01 2.420E-01 1.090E-02 4.270E-01 2.143E+00 2.000E+04  5.9210 1.00000
  4.000E+04 4.011E+04 1.729E+00 2.042E-01 2.871E-01 1.244E-02 5.038E-01 2.233E+00 2.228E+04  6.1649 1.00000
  4.500E+04 4.511E+04 1.740E+00 2.349E-01 3.333E-01 1.394E-02 5.822E-01 2.323E+00 2.448E+04  6.3825 1.00000
  5.000E+04 5.011E+04 1.750E+00 2.661E-01 3.804E-01 1.545E-02 6.620E-01 2.412E+00 2.659E+04  6.5789 1.00000
  5.500E+04 5.511E+04 1.759E+00 2.978E-01 4.283E-01 1.696E-02 7.430E-01 2.502E+00 2.863E+04  6.7580 1.00000
  6.000E+04 6.011E+04 1.767E+00 3.299E-01 4.769E-01 1.845E-02 8.252E-01 2.592E+00 3.059E+04  6.9226 1.00000
  7.000E+04 7.011E+04 1.781E+00 3.950E-01 5.757E-01 2.141E-02 9.922E-01 2.773E+00 3.432E+04  7.2165 1.00000
  8.000E+04 8.011E+04 1.793E+00 4.614E-01 6.765E-01 2.436E-02 1.162E+00 2.955E+00 3.782E+04  7.4734 1.00000
  9.000E+04 9.011E+04 1.803E+00 5.289E-01 7.789E-01 2.732E-02 1.335E+00 3.138E+00 4.110E+04  7.7016 1.00000
  1.000E+05 1.001E+05 1.812E+00 5.972E-01 8.827E-01 3.021E-02 1.510E+00 3.322E+00 4.420E+04  7.9069 1.00000
  1.200E+05 1.201E+05 1.827E+00 7.361E-01 1.093E+00 3.609E-02 1.866E+00 3.693E+00 4.992E+04  8.2645 1.00000
  1.400E+05 1.401E+05 1.840E+00 8.775E-01 1.308E+00 4.195E-02 2.227E+00 4.067E+00 5.509E+04  8.5688 1.00000
  1.700E+05 1.701E+05 1.856E+00 1.093E+00 1.634E+00 5.074E-02 2.779E+00 4.634E+00 6.201E+04  8.9542 1.00000
  2.000E+05 2.001E+05 1.869E+00 1.313E+00 1.966E+00 5.956E-02 3.338E+00 5.207E+00 6.813E+04  9.2781 1.00000
  2.500E+05 2.501E+05 1.887E+00 1.685E+00 2.525E+00 7.427E-02 4.284E+00 6.171E+00 7.698E+04  9.7240 1.00000
  3.000E+05 3.001E+05 1.902E+00 2.063E+00 3.092E+00 8.907E-02 5.244E+00 7.146E+00 8.453E+04 10.0885 1.00000
  3.500E+05 3.501E+05 1.914E+00 2.446E+00 3.663E+00 1.040E-01 6.213E+00 8.127E+00 9.111E+04 10.3967 1.00000
  4.000E+05 4.001E+05 1.925E+00 2.832E+00 4.239E+00 1.191E-01 7.191E+00 9.115E+00 9.692E+04 10.6636 1.00000
  4.500E+05 4.501E+05 1.934E+00 3.222E+00 4.818E+00 1.341E-01 8.174E+00 1.011E+01 1.021E+05 10.8992 1.00000
  5.000E+05 5.001E+05 1.943E+00 3.615E+00 5.400E+00 1.494E-01 9.164E+00 1.111E+01 1.069E+05 11.1098 1.00000
  5.500E+05 5.501E+05 1.950E+00 4.009E+00 5.983E+00 1.644E-01 1.016E+01 1.211E+01 1.112E+05 11.3004 1.00000
  6.000E+05 6.001E+05 1.958E+00 4.406E+00 6.569E+00 1.796E-01 1.115E+01 1.311E+01 1.152E+05 11.4744 1.00000
  7.000E+05 7.001E+05 1.970E+00 5.204E+00 7.745E+00 2.102E-01 1.316E+01 1.513E+01 1.223E+05 11.7827 1.00000
  8.000E+05 8.001E+05 1.981E+00 6.008E+00 8.926E+00 2.410E-01 1.517E+01 1.716E+01 1.285E+05 12.0497 1.00000
  9.000E+05 9.001E+05 1.991E+00 6.816E+00 1.011E+01 2.722E-01 1.720E+01 1.919E+01 1.340E+05 12.2852 1.00000
  1.000E+06 1.000E+06 1.999E+00 7.629E+00 1.130E+01 3.036E-01 1.923E+01 2.123E+01 1.390E+05 12.4959 1.00000
  1.200E+06 1.200E+06 2.014E+00 9.262E+00 1.368E+01 3.672E-01 2.331E+01 2.533E+01 1.476E+05 12.8605 1.00000
  1.400E+06 1.400E+06 2.027E+00 1.091E+01 1.607E+01 4.317E-01 2.741E+01 2.944E+01 1.550E+05 13.1688 1.00000
  1.700E+06 1.700E+06 2.043E+00 1.339E+01 1.967E+01 5.299E-01 3.359E+01 3.563E+01 1.643E+05 13.5571 1.00000
  2.000E+06 2.000E+06 2.057E+00 1.588E+01 2.328E+01 6.297E-01 3.979E+01 4.184E+01 1.721E+05 13.8821 1.00000
  2.500E+06 2.500E+06 2.076E+00 2.005E+01 2.931E+01 7.989E-01 5.016E+01 5.223E+01 1.828E+05 14.3284 1.00000
  3.000E+06 3.000E+06 2.091E+00 2.424E+01 3.535E+01 9.714E-01 6.056E+01 6.265E+01 1.916E+05 14.6930 1.00000
  3.500E+06 3.500E+06 2.104E+00 2.845E+01 4.140E+01 1.147E+00 7.099E+01 7.310E+01 1.990E+05 15.0013 1.00000
  4.000E+06 4.000E+06 2.116E+00 3.267E+01 4.745E+01 1.324E+00 8.145E+01 8.356E+01 2.054E+05 15.2683 1.00000
  4.500E+06 4.500E+06 2.126E+00 3.689E+01 5.352E+01 1.504E+00 9.191E+01 9.404E+01 2.111E+05 15.5039 1.00000
  5.000E+06 5.000E+06 2.135E+00 4.112E+01 5.959E+01 1.686E+00 1.024E+02 1.045E+02 2.161E+05 15.7146 1.00000
  5.500E+06 5.500E+06 2.144E+00 4.536E+01 6.566E+01 1.870E+00 1.129E+02 1.150E+02 2.207E+05 15.9052 1.00000
  6.000E+06 6.000E+06 2.151E+00 4.961E+01 7.173E+01 2.055E+00 1.234E+02 1.255E+02 2.249E+05 16.0793 1.00000
  7.000E+06 7.000E+06 2.165E+00 5.810E+01 8.389E+01 2.431E+00 1.444E+02 1.466E+02 2.323E+05 16.3875 1.00000
  8.000E+06 8.000E+06 2.177E+00 6.661E+01 9.605E+01 2.812E+00 1.655E+02 1.677E+02 2.387E+05 16.6546 1.00000
  9.000E+06 9.000E+06 2.187E+00 7.513E+01 1.082E+02 3.198E+00 1.866E+02 1.887E+02 2.443E+05 16.8902 1.00000
  1.000E+07 1.000E+07 2.197E+00 8.366E+01 1.204E+02 3.589E+00 2.076E+02 2.098E+02 2.493E+05 17.1009 1.00000
  1.200E+07 1.200E+07 2.213E+00 1.007E+02 1.448E+02 4.382E+00 2.499E+02 2.521E+02 2.580E+05 17.4655 1.00000
  1.400E+07 1.400E+07 2.227E+00 1.178E+02 1.691E+02 5.189E+00 2.922E+02 2.944E+02 2.654E+05 17.7738 1.00000
  1.700E+07 1.700E+07 2.245E+00 1.435E+02 2.057E+02 6.423E+00 3.556E+02 3.579E+02 2.747E+05 18.1621 1.00000
  2.000E+07 2.000E+07 2.260E+00 1.692E+02 2.423E+02 7.680E+00 4.192E+02 4.214E+02 2.824E+05 18.4872 1.00000
  2.500E+07 2.500E+07 2.281E+00 2.120E+02 3.033E+02 9.820E+00 5.252E+02 5.274E+02 2.931E+05 18.9335 1.00000
  3.000E+07 3.000E+07 2.298E+00 2.549E+02 3.643E+02 1.201E+01 6.313E+02 6.336E+02 3.018E+05 19.2981 1.00000
  3.500E+07 3.500E+07 2.313E+00 2.978E+02 4.253E+02 1.424E+01 7.374E+02 7.397E+02 3.091E+05 19.6064 1.00000
  4.000E+07 4.000E+07 2.326E+00 3.408E+02 4.864E+02 1.650E+01 8.436E+02 8.460E+02 3.155E+05 19.8735 1.00000
  4.500E+07 4.500E+07 2.337E+00 3.837E+02 5.474E+02 1.879E+01 9.499E+02 9.523E+02 3.210E+05 20.1090 1.00000
  5.000E+07 5.000E+07 2.347E+00 4.266E+02 6.085E+02 2.112E+01 1.056E+03 1.059E+03 3.260E+05 20.3197 1.00000
  5.500E+07 5.500E+07 2.357E+00 4.696E+02 6.695E+02 2.347E+01 1.163E+03 1.165E+03 3.305E+05 20.5104 1.00000
  6.000E+07 6.000E+07 2.365E+00 5.126E+02 7.306E+02 2.584E+01 1.269E+03 1.271E+03 3.347E+05 20.6844 1.00000
  7.000E+07 7.000E+07 2.380E+00 5.985E+02 8.527E+02 3.065E+01 1.482E+03 1.484E+03 3.420E+05 20.9927 1.00000
  8.000E+07 8.000E+07 2.393E+00 6.845E+02 9.748E+02 3.554E+01 1.695E+03 1.697E+03 3.483E+05 21.2598 1.00000
  9.000E+07 9.000E+07 2.405E+00 7.704E+02 1.097E+03 4.050E+01 1.908E+03 1.910E+03 3.538E+05 21.4953 1.00000
  1.000E+08 1.000E+08 2.416E+00 8.564E+02 1.219E+03 4.552E+01 2.121E+03 2.123E+03 3.588E+05 21.7060 1.00000
  1.200E+08 1.200E+08 2.434E+00 1.028E+03 1.463E+03 5.573E+01 2.547E+03 2.550E+03 3.674E+05 22.0707 1.00000
  1.400E+08 1.400E+08 2.450E+00 1.200E+03 1.708E+03 6.613E+01 2.974E+03 2.977E+03 3.747E+05 22.3790 1.00000
  1.700E+08 1.700E+08 2.469E+00 1.458E+03 2.074E+03 8.206E+01 3.615E+03 3.617E+03 3.839E+05 22.7673 1.00000
  2.000E+08 2.000E+08 2.486E+00 1.716E+03 2.441E+03 9.830E+01 4.255E+03 4.258E+03 3.916E+05 23.0923 1.00000
  2.500E+08 2.500E+08 2.510E+00 2.147E+03 3.051E+03 1.260E+02 5.324E+03 5.326E+03 4.021E+05 23.5386 1.00000
  3.000E+08 3.000E+08 2.529E+00 2.577E+03 3.662E+03 1.543E+02 6.393E+03 6.396E+03 4.107E+05 23.9033 1.00000
  3.500E+08 3.500E+08 2.545E+00 3.007E+03 4.273E+03 1.832E+02 7.463E+03 7.465E+03 4.180E+05 24.2116 1.00000
  4.000E+08 4.000E+08 2.559E+00 3.437E+03 4.884E+03 2.126E+02 8.533E+03 8.536E+03 4.243E+05 24.4786 1.00000
  4.500E+08 4.500E+08 2.572E+00 3.867E+03 5.494E+03 2.424E+02 9.604E+03 9.607E+03 4.298E+05 24.7142 1.00000
  5.000E+08 5.000E+08 2.583E+00 4.297E+03 6.105E+03 2.726E+02 1.068E+04 1.068E+04 4.348E+05 24.9249 1.00000
  5.500E+08 5.500E+08 2.594E+00 4.728E+03 6.716E+03 3.032E+02 1.175E+04 1.175E+04 4.392E+05 25.1155 1.00000
  6.000E+08 6.000E+08 2.603E+00 5.158E+03 7.327E+03 3.341E+02 1.282E+04 1.282E+04 4.433E+05 25.2896 1.00000
  7.000E+08 7.000E+08 2.620E+00 6.018E+03 8.548E+03 3.968E+02 1.496E+04 1.497E+04 4.505E+05 25.5979 1.00000
  8.000E+08 8.000E+08 2.635E+00 6.879E+03 9.769E+03 4.605E+02 1.711E+04 1.711E+04 4.568E+05 25.8649 1.00000
  9.000E+08 9.000E+08 2.648E+00 7.739E+03 1.099E+04 5.252E+02 1.925E+04 1.926E+04 4.623E+05 26.1005 1.00000
  1.000E+09 1.000E+09 2.660E+00 8.599E+03 1.221E+04 5.907E+02 2.140E+04 2.140E+04 4.673E+05 26.3112 1.00000
