 Incident particle is a Muon with M = 105.65839 MeV
 Index = 0: Nickel
      Absorber with <Z/A> = 0.47706
 Sternheimer coef:  a     k=m_s   x_0    x_1    I[eV]   Cbar  delta0
                 0.1650  2.8430  0.0566  3.1851  311.0  4.3115 0.10

 *** Table generated with PUMAS v1.00 ***

      T         p     Ionization  brems     pair     photonuc  Radloss    dE/dx   CSDA Range  delta   beta
    [MeV]    [MeV/c]  -----------------------[MeV cm^2/g]------------------------  [g/cm^2]
  1.000E+00 1.457E+01 3.227E+01 2.521E-06 0.000E+00 0.000E+00 2.521E-06 3.227E+01 1.550E-02  0.0015 0.13661
  1.200E+00 1.597E+01 2.814E+01 2.899E-06 0.000E+00 0.000E+00 2.899E-06 2.814E+01 2.215E-02  0.0018 0.14944
  1.400E+00 1.726E+01 2.504E+01 3.257E-06 0.000E+00 0.000E+00 3.257E-06 2.504E+01 2.969E-02  0.0021 0.16119
  1.700E+00 1.903E+01 2.159E+01 3.767E-06 0.000E+00 0.000E+00 3.767E-06 2.159E+01 4.263E-02  0.0025 0.17725
  2.000E+00 2.066E+01 1.906E+01 4.247E-06 0.000E+00 0.000E+00 4.247E-06 1.906E+01 5.745E-02  0.0029 0.19186
  2.500E+00 2.312E+01 1.605E+01 4.996E-06 0.000E+00 0.000E+00 4.996E-06 1.605E+01 8.614E-02  0.0037 0.21376
  3.000E+00 2.536E+01 1.394E+01 5.692E-06 0.000E+00 0.000E+00 5.692E-06 1.394E+01 1.197E-01  0.0044 0.23336
  3.500E+00 2.742E+01 1.237E+01 6.344E-06 0.000E+00 0.000E+00 6.344E-06 1.237E+01 1.578E-01  0.0052 0.25120
  4.000E+00 2.935E+01 1.116E+01 6.961E-06 0.000E+00 0.000E+00 6.961E-06 1.116E+01 2.004E-01  0.0059 0.26763
  4.500E+00 3.116E+01 1.019E+01 7.547E-06 0.000E+00 0.000E+00 7.547E-06 1.019E+01 2.473E-01  0.0067 0.28290
  5.000E+00 3.289E+01 9.397E+00 8.106E-06 0.000E+00 0.000E+00 8.106E-06 9.397E+00 2.985E-01  0.0075 0.29720
  5.500E+00 3.453E+01 8.736E+00 8.641E-06 0.000E+00 0.000E+00 8.641E-06 8.736E+00 3.537E-01  0.0082 0.31066
  6.000E+00 3.611E+01 8.175E+00 9.156E-06 0.000E+00 0.000E+00 9.156E-06 8.175E+00 4.129E-01  0.0090 0.32339
  7.000E+00 3.909E+01 7.273E+00 1.013E-05 0.000E+00 0.000E+00 1.013E-05 7.273E+00 5.428E-01  0.0105 0.34700
  8.000E+00 4.189E+01 6.579E+00 1.105E-05 0.000E+00 0.000E+00 1.105E-05 6.579E+00 6.875E-01  0.0121 0.36854
  9.000E+00 4.453E+01 6.028E+00 1.191E-05 0.000E+00 0.000E+00 1.191E-05 6.028E+00 8.465E-01  0.0137 0.38836
  1.000E+01 4.704E+01 5.579E+00 1.273E-05 0.000E+00 0.000E+00 1.273E-05 5.579E+00 1.019E+00  0.0153 0.40675
  1.200E+01 5.177E+01 4.890E+00 1.427E-05 0.000E+00 0.000E+00 1.427E-05 4.890E+00 1.403E+00  0.0185 0.43998
  1.400E+01 5.616E+01 4.387E+00 1.569E-05 0.000E+00 0.000E+00 1.569E-05 4.387E+00 1.835E+00  0.0218 0.46937
  1.700E+01 6.230E+01 3.841E+00 1.766E-05 0.000E+00 0.000E+00 1.766E-05 3.841E+00 2.568E+00  0.0268 0.50792
  2.000E+01 6.802E+01 3.451E+00 1.950E-05 0.000E+00 0.000E+00 1.950E-05 3.451E+00 3.393E+00  0.0319 0.54129
  2.500E+01 7.686E+01 3.001E+00 2.234E-05 0.000E+00 0.000E+00 2.234E-05 3.001E+00 4.951E+00  0.0408 0.58827
  3.000E+01 8.509E+01 2.696E+00 2.500E-05 0.000E+00 0.000E+00 2.500E-05 2.696E+00 6.711E+00  0.0500 0.62720
  3.500E+01 9.285E+01 2.477E+00 2.754E-05 0.000E+00 0.000E+00 2.754E-05 2.477E+00 8.648E+00  0.0595 0.66011
  4.000E+01 1.003E+02 2.312E+00 3.001E-05 0.000E+00 0.000E+00 3.001E-05 2.312E+00 1.074E+01  0.0694 0.68834
  4.500E+01 1.074E+02 2.184E+00 3.243E-05 0.000E+00 0.000E+00 3.243E-05 2.184E+00 1.296E+01  0.0796 0.71286
  5.000E+01 1.143E+02 2.082E+00 3.482E-05 0.000E+00 0.000E+00 3.482E-05 2.082E+00 1.531E+01  0.0902 0.73434
  5.500E+01 1.210E+02 1.990E+00 3.720E-05 0.000E+00 0.000E+00 3.720E-05 1.990E+00 1.777E+01  0.1750 0.75332
  6.000E+01 1.276E+02 1.921E+00 3.958E-05 0.000E+00 0.000E+00 3.958E-05 1.921E+00 2.033E+01  0.1933 0.77019
  7.000E+01 1.403E+02 1.815E+00 4.435E-05 0.000E+00 0.000E+00 4.435E-05 1.815E+00 2.568E+01  0.2292 0.79887
  8.000E+01 1.527E+02 1.737E+00 4.916E-05 0.000E+00 0.000E+00 4.916E-05 1.737E+00 3.132E+01  0.2642 0.82227
  9.000E+01 1.647E+02 1.679E+00 5.404E-05 0.000E+00 0.000E+00 5.404E-05 1.679E+00 3.717E+01  0.2982 0.84166
  1.000E+02 1.764E+02 1.635E+00 5.901E-05 0.000E+00 0.000E+00 5.901E-05 1.635E+00 4.321E+01  0.3312 0.85794
  1.200E+02 1.994E+02 1.573E+00 6.923E-05 0.000E+00 0.000E+00 6.923E-05 1.573E+00 5.569E+01  0.3945 0.88361
  1.400E+02 2.218E+02 1.533E+00 7.984E-05 0.000E+00 0.000E+00 7.984E-05 1.533E+00 6.857E+01  0.4544 0.90278
  1.700E+02 2.546E+02 1.498E+00 9.650E-05 0.000E+00 0.000E+00 9.650E-05 1.498E+00 8.836E+01  0.5388 0.92363
  2.000E+02 2.868E+02 1.480E+00 1.140E-04 0.000E+00 0.000E+00 1.140E-04 1.480E+00 1.085E+02  0.6176 0.93835
  2.500E+02 3.396E+02 1.469E+00 1.451E-04 0.000E+00 0.000E+00 1.451E-04 1.469E+00 1.424E+02  0.7386 0.95485
  3.000E+02 3.917E+02 1.469E+00 1.782E-04 7.523E-07 0.000E+00 1.790E-04 1.469E+00 1.765E+02  0.8491 0.96548
  3.500E+02 4.432E+02 1.475E+00 2.133E-04 6.981E-06 0.000E+00 2.203E-04 1.476E+00 2.104E+02  0.9510 0.97274
  4.000E+02 4.945E+02 1.484E+00 2.501E-04 1.396E-05 0.000E+00 2.641E-04 1.485E+00 2.442E+02  1.0457 0.97793
  4.500E+02 5.455E+02 1.495E+00 2.886E-04 2.309E-05 0.000E+00 3.117E-04 1.495E+00 2.777E+02  1.1344 0.98176
  5.000E+02 5.964E+02 1.506E+00 3.285E-04 3.435E-05 0.000E+00 3.629E-04 1.506E+00 3.111E+02  1.2177 0.98467
  5.500E+02 6.471E+02 1.516E+00 3.699E-04 4.765E-05 0.000E+00 4.176E-04 1.517E+00 3.442E+02  1.2965 0.98693
  6.000E+02 6.977E+02 1.527E+00 4.126E-04 6.293E-05 0.000E+00 4.755E-04 1.528E+00 3.770E+02  1.3711 0.98873
  7.000E+02 7.987E+02 1.548E+00 5.016E-04 9.916E-05 0.000E+00 6.008E-04 1.549E+00 4.420E+02  1.5100 0.99136
  8.000E+02 8.995E+02 1.567E+00 5.951E-04 1.425E-04 0.000E+00 7.377E-04 1.568E+00 5.062E+02  1.6370 0.99317
  9.000E+02 1.000E+03 1.585E+00 6.926E-04 1.926E-04 0.000E+00 8.852E-04 1.586E+00 5.696E+02  1.7542 0.99447
  1.000E+03 1.101E+03 1.602E+00 7.938E-04 2.489E-04 0.000E+00 1.043E-03 1.603E+00 6.323E+02  1.8631 0.99542
  1.200E+03 1.301E+03 1.632E+00 1.006E-03 3.791E-04 2.250E-05 1.408E-03 1.633E+00 7.559E+02  2.0606 0.99672
  1.400E+03 1.502E+03 1.658E+00 1.230E-03 5.304E-04 6.125E-05 1.822E-03 1.659E+00 8.774E+02  2.2363 0.99753
  1.700E+03 1.803E+03 1.690E+00 1.585E-03 7.926E-04 1.304E-04 2.508E-03 1.693E+00 1.056E+03  2.4687 0.99829
  2.000E+03 2.103E+03 1.718E+00 1.959E-03 1.092E-03 2.113E-04 3.263E-03 1.721E+00 1.232E+03  2.6725 0.99874
  2.500E+03 2.604E+03 1.756E+00 2.620E-03 1.664E-03 3.665E-04 4.651E-03 1.761E+00 1.519E+03  2.9657 0.99918
  3.000E+03 3.104E+03 1.787E+00 3.320E-03 2.313E-03 5.283E-04 6.161E-03 1.793E+00 1.801E+03  3.2163 0.99942
  3.500E+03 3.604E+03 1.813E+00 4.052E-03 3.029E-03 6.987E-04 7.780E-03 1.820E+00 2.078E+03  3.4355 0.99957
  4.000E+03 4.104E+03 1.835E+00 4.814E-03 3.815E-03 8.801E-04 9.509E-03 1.844E+00 2.350E+03  3.6307 0.99967
  4.500E+03 4.604E+03 1.854E+00 5.600E-03 4.659E-03 1.068E-03 1.133E-02 1.865E+00 2.620E+03  3.8068 0.99974
  5.000E+03 5.105E+03 1.871E+00 6.408E-03 5.551E-03 1.248E-03 1.321E-02 1.884E+00 2.887E+03  3.9674 0.99979
  5.500E+03 5.605E+03 1.886E+00 7.237E-03 6.487E-03 1.442E-03 1.517E-02 1.901E+00 3.151E+03  4.1151 0.99982
  6.000E+03 6.105E+03 1.899E+00 8.085E-03 7.462E-03 1.622E-03 1.717E-02 1.916E+00 3.413E+03  4.2519 0.99985
  7.000E+03 7.105E+03 1.923E+00 9.830E-03 9.521E-03 2.004E-03 2.135E-02 1.944E+00 3.931E+03  4.4985 0.99989
  8.000E+03 8.105E+03 1.943E+00 1.163E-02 1.171E-02 2.382E-03 2.572E-02 1.969E+00 4.442E+03  4.7166 0.99992
  9.000E+03 9.105E+03 1.961E+00 1.349E-02 1.400E-02 2.736E-03 3.023E-02 1.991E+00 4.947E+03  4.9122 0.99993
  1.000E+04 1.011E+04 1.976E+00 1.539E-02 1.640E-02 3.101E-03 3.489E-02 2.011E+00 5.447E+03  5.0897 0.99995
  1.200E+04 1.211E+04 2.002E+00 1.931E-02 2.144E-02 3.841E-03 4.460E-02 2.046E+00 6.433E+03  5.4021 0.99996
  1.400E+04 1.411E+04 2.023E+00 2.337E-02 2.678E-02 4.580E-03 5.473E-02 2.078E+00 7.403E+03  5.6712 0.99997
  1.700E+04 1.711E+04 2.049E+00 2.967E-02 3.525E-02 5.672E-03 7.059E-02 2.119E+00 8.833E+03  6.0163 0.99998
  2.000E+04 2.011E+04 2.070E+00 3.619E-02 4.417E-02 6.743E-03 8.710E-02 2.157E+00 1.024E+04  6.3101 0.99999
  2.500E+04 2.511E+04 2.098E+00 4.745E-02 5.983E-02 8.497E-03 1.158E-01 2.213E+00 1.252E+04  6.7202 0.99999
  3.000E+04 3.011E+04 2.120E+00 5.910E-02 7.631E-02 1.022E-02 1.456E-01 2.265E+00 1.476E+04  7.0605 0.99999
  3.500E+04 3.511E+04 2.138E+00 7.108E-02 9.344E-02 1.195E-02 1.765E-01 2.314E+00 1.694E+04  7.3517 1.00000
  4.000E+04 4.011E+04 2.153E+00 8.334E-02 1.111E-01 1.366E-02 2.081E-01 2.361E+00 1.908E+04  7.6063 1.00000
  4.500E+04 4.511E+04 2.166E+00 9.584E-02 1.292E-01 1.535E-02 2.404E-01 2.406E+00 2.118E+04  7.8325 1.00000
  5.000E+04 5.011E+04 2.178E+00 1.085E-01 1.477E-01 1.704E-02 2.733E-01 2.451E+00 2.324E+04  8.0361 1.00000
  5.500E+04 5.511E+04 2.188E+00 1.214E-01 1.666E-01 1.874E-02 3.067E-01 2.495E+00 2.526E+04  8.2211 1.00000
  6.000E+04 6.011E+04 2.197E+00 1.345E-01 1.857E-01 2.042E-02 3.406E-01 2.538E+00 2.725E+04  8.3908 1.00000
  7.000E+04 7.011E+04 2.214E+00 1.610E-01 2.248E-01 2.375E-02 4.096E-01 2.623E+00 3.112E+04  8.6929 1.00000
  8.000E+04 8.011E+04 2.227E+00 1.881E-01 2.647E-01 2.709E-02 4.799E-01 2.707E+00 3.488E+04  8.9559 1.00000
  9.000E+04 9.011E+04 2.239E+00 2.156E-01 3.054E-01 3.043E-02 5.514E-01 2.791E+00 3.851E+04  9.1889 1.00000
  1.000E+05 1.001E+05 2.250E+00 2.435E-01 3.467E-01 3.370E-02 6.238E-01 2.874E+00 4.205E+04  9.3980 1.00000
  1.200E+05 1.201E+05 2.268E+00 3.001E-01 4.308E-01 4.037E-02 7.713E-01 3.040E+00 4.881E+04  9.7608 1.00000
  1.400E+05 1.401E+05 2.284E+00 3.579E-01 5.165E-01 4.703E-02 9.214E-01 3.205E+00 5.522E+04 10.0684 1.00000
  1.700E+05 1.701E+05 2.303E+00 4.461E-01 6.474E-01 5.702E-02 1.151E+00 3.453E+00 6.425E+04 10.4564 1.00000
  2.000E+05 2.001E+05 2.319E+00 5.360E-01 7.805E-01 6.706E-02 1.384E+00 3.702E+00 7.264E+04 10.7813 1.00000
  2.500E+05 2.501E+05 2.340E+00 6.884E-01 1.006E+00 8.383E-02 1.778E+00 4.119E+00 8.547E+04 11.2274 1.00000
  3.000E+05 3.001E+05 2.358E+00 8.435E-01 1.235E+00 1.007E-01 2.179E+00 4.537E+00 9.705E+04 11.5919 1.00000
  3.500E+05 3.501E+05 2.373E+00 1.001E+00 1.466E+00 1.178E-01 2.585E+00 4.958E+00 1.076E+05 11.9001 1.00000
  4.000E+05 4.001E+05 2.386E+00 1.160E+00 1.700E+00 1.350E-01 2.994E+00 5.380E+00 1.173E+05 12.1670 1.00000
  4.500E+05 4.501E+05 2.398E+00 1.320E+00 1.934E+00 1.523E-01 3.406E+00 5.804E+00 1.262E+05 12.4026 1.00000
  5.000E+05 5.001E+05 2.408E+00 1.481E+00 2.171E+00 1.697E-01 3.822E+00 6.230E+00 1.346E+05 12.6132 1.00000
  5.500E+05 5.501E+05 2.418E+00 1.644E+00 2.408E+00 1.869E-01 4.239E+00 6.656E+00 1.423E+05 12.8038 1.00000
  6.000E+05 6.001E+05 2.426E+00 1.807E+00 2.646E+00 2.043E-01 4.658E+00 7.084E+00 1.496E+05 12.9778 1.00000
  7.000E+05 7.001E+05 2.441E+00 2.137E+00 3.125E+00 2.393E-01 5.501E+00 7.942E+00 1.630E+05 13.2861 1.00000
  8.000E+05 8.001E+05 2.455E+00 2.469E+00 3.606E+00 2.747E-01 6.349E+00 8.804E+00 1.749E+05 13.5531 1.00000
  9.000E+05 9.001E+05 2.466E+00 2.803E+00 4.089E+00 3.105E-01 7.202E+00 9.668E+00 1.858E+05 13.7886 1.00000
  1.000E+06 1.000E+06 2.477E+00 3.139E+00 4.574E+00 3.465E-01 8.059E+00 1.054E+01 1.957E+05 13.9993 1.00000
  1.200E+06 1.200E+06 2.495E+00 3.815E+00 5.547E+00 4.195E-01 9.781E+00 1.228E+01 2.134E+05 14.3639 1.00000
  1.400E+06 1.400E+06 2.511E+00 4.496E+00 6.524E+00 4.935E-01 1.151E+01 1.402E+01 2.286E+05 14.6722 1.00000
  1.700E+06 1.700E+06 2.530E+00 5.524E+00 7.996E+00 6.062E-01 1.413E+01 1.666E+01 2.483E+05 15.0605 1.00000
  2.000E+06 2.000E+06 2.547E+00 6.558E+00 9.472E+00 7.208E-01 1.675E+01 1.930E+01 2.651E+05 15.3855 1.00000
  2.500E+06 2.500E+06 2.570E+00 8.292E+00 1.194E+01 9.151E-01 2.115E+01 2.372E+01 2.886E+05 15.8318 1.00000
  3.000E+06 3.000E+06 2.589E+00 1.004E+01 1.442E+01 1.113E+00 2.557E+01 2.815E+01 3.080E+05 16.1964 1.00000
  3.500E+06 3.500E+06 2.605E+00 1.179E+01 1.690E+01 1.315E+00 3.000E+01 3.260E+01 3.246E+05 16.5047 1.00000
  4.000E+06 4.000E+06 2.619E+00 1.354E+01 1.938E+01 1.519E+00 3.444E+01 3.706E+01 3.390E+05 16.7717 1.00000
  4.500E+06 4.500E+06 2.631E+00 1.530E+01 2.187E+01 1.725E+00 3.890E+01 4.153E+01 3.517E+05 17.0073 1.00000
  5.000E+06 5.000E+06 2.642E+00 1.707E+01 2.436E+01 1.935E+00 4.336E+01 4.600E+01 3.632E+05 17.2180 1.00000
  5.500E+06 5.500E+06 2.652E+00 1.884E+01 2.685E+01 2.146E+00 4.783E+01 5.048E+01 3.736E+05 17.4086 1.00000
  6.000E+06 6.000E+06 2.662E+00 2.061E+01 2.934E+01 2.359E+00 5.230E+01 5.497E+01 3.831E+05 17.5827 1.00000
  7.000E+06 7.000E+06 2.678E+00 2.415E+01 3.433E+01 2.790E+00 6.127E+01 6.395E+01 4.000E+05 17.8909 1.00000
  8.000E+06 8.000E+06 2.693E+00 2.770E+01 3.932E+01 3.228E+00 7.026E+01 7.295E+01 4.147E+05 18.1580 1.00000
  9.000E+06 9.000E+06 2.706E+00 3.126E+01 4.432E+01 3.672E+00 7.926E+01 8.196E+01 4.276E+05 18.3936 1.00000
  1.000E+07 1.000E+07 2.717E+00 3.483E+01 4.932E+01 4.121E+00 8.827E+01 9.098E+01 4.392E+05 18.6043 1.00000
  1.200E+07 1.200E+07 2.737E+00 4.196E+01 5.933E+01 5.033E+00 1.063E+02 1.091E+02 4.594E+05 18.9689 1.00000
  1.400E+07 1.400E+07 2.754E+00 4.911E+01 6.934E+01 5.961E+00 1.244E+02 1.272E+02 4.764E+05 19.2772 1.00000
  1.700E+07 1.700E+07 2.776E+00 5.984E+01 8.436E+01 7.379E+00 1.516E+02 1.544E+02 4.979E+05 19.6655 1.00000
  2.000E+07 2.000E+07 2.794E+00 7.059E+01 9.940E+01 8.825E+00 1.788E+02 1.816E+02 5.159E+05 19.9906 1.00000
  2.500E+07 2.500E+07 2.820E+00 8.852E+01 1.245E+02 1.129E+01 2.243E+02 2.271E+02 5.407E+05 20.4369 1.00000
  3.000E+07 3.000E+07 2.840E+00 1.065E+02 1.495E+02 1.380E+01 2.698E+02 2.726E+02 5.609E+05 20.8015 1.00000
  3.500E+07 3.500E+07 2.858E+00 1.244E+02 1.746E+02 1.636E+01 3.154E+02 3.183E+02 5.779E+05 21.1098 1.00000
  4.000E+07 4.000E+07 2.874E+00 1.424E+02 1.997E+02 1.896E+01 3.611E+02 3.639E+02 5.926E+05 21.3769 1.00000
  4.500E+07 4.500E+07 2.888E+00 1.604E+02 2.248E+02 2.160E+01 4.068E+02 4.097E+02 6.056E+05 21.6124 1.00000
  5.000E+07 5.000E+07 2.900E+00 1.783E+02 2.499E+02 2.427E+01 4.525E+02 4.554E+02 6.172E+05 21.8231 1.00000
  5.500E+07 5.500E+07 2.911E+00 1.963E+02 2.750E+02 2.697E+01 4.983E+02 5.012E+02 6.277E+05 22.0138 1.00000
  6.000E+07 6.000E+07 2.922E+00 2.143E+02 3.001E+02 2.970E+01 5.441E+02 5.470E+02 6.372E+05 22.1878 1.00000
  7.000E+07 7.000E+07 2.940E+00 2.503E+02 3.503E+02 3.524E+01 6.358E+02 6.388E+02 6.542E+05 22.4961 1.00000
  8.000E+07 8.000E+07 2.956E+00 2.863E+02 4.005E+02 4.086E+01 7.276E+02 7.306E+02 6.689E+05 22.7632 1.00000
  9.000E+07 9.000E+07 2.970E+00 3.223E+02 4.507E+02 4.656E+01 8.196E+02 8.225E+02 6.818E+05 22.9987 1.00000
  1.000E+08 1.000E+08 2.983E+00 3.583E+02 5.009E+02 5.233E+01 9.116E+02 9.145E+02 6.933E+05 23.2094 1.00000
  1.200E+08 1.200E+08 3.005E+00 4.304E+02 6.013E+02 6.407E+01 1.096E+03 1.099E+03 7.134E+05 23.5741 1.00000
  1.400E+08 1.400E+08 3.025E+00 5.024E+02 7.017E+02 7.603E+01 1.280E+03 1.283E+03 7.303E+05 23.8824 1.00000
  1.700E+08 1.700E+08 3.049E+00 6.105E+02 8.524E+02 9.434E+01 1.557E+03 1.560E+03 7.516E+05 24.2707 1.00000
  2.000E+08 2.000E+08 3.069E+00 7.186E+02 1.003E+03 1.130E+02 1.835E+03 1.838E+03 7.693E+05 24.5957 1.00000
  2.500E+08 2.500E+08 3.097E+00 8.988E+02 1.254E+03 1.449E+02 2.298E+03 2.301E+03 7.938E+05 25.0420 1.00000
  3.000E+08 3.000E+08 3.121E+00 1.079E+03 1.505E+03 1.775E+02 2.762E+03 2.765E+03 8.137E+05 25.4067 1.00000
  3.500E+08 3.500E+08 3.141E+00 1.259E+03 1.756E+03 2.107E+02 3.226E+03 3.229E+03 8.305E+05 25.7150 1.00000
  4.000E+08 4.000E+08 3.158E+00 1.440E+03 2.007E+03 2.445E+02 3.691E+03 3.695E+03 8.450E+05 25.9820 1.00000
  4.500E+08 4.500E+08 3.173E+00 1.620E+03 2.259E+03 2.787E+02 4.157E+03 4.160E+03 8.578E+05 26.2176 1.00000
  5.000E+08 5.000E+08 3.187E+00 1.800E+03 2.510E+03 3.135E+02 4.623E+03 4.626E+03 8.692E+05 26.4283 1.00000
  5.500E+08 5.500E+08 3.200E+00 1.980E+03 2.761E+03 3.486E+02 5.090E+03 5.093E+03 8.795E+05 26.6189 1.00000
  6.000E+08 6.000E+08 3.211E+00 2.161E+03 3.012E+03 3.841E+02 5.557E+03 5.560E+03 8.889E+05 26.7930 1.00000
  7.000E+08 7.000E+08 3.232E+00 2.521E+03 3.514E+03 4.562E+02 6.491E+03 6.494E+03 9.056E+05 27.1013 1.00000
  8.000E+08 8.000E+08 3.250E+00 2.882E+03 4.016E+03 5.295E+02 7.427E+03 7.431E+03 9.200E+05 27.3683 1.00000
  9.000E+08 9.000E+08 3.266E+00 3.242E+03 4.518E+03 6.039E+02 8.364E+03 8.368E+03 9.327E+05 27.6039 1.00000
  1.000E+09 1.000E+09 3.280E+00 3.603E+03 5.020E+03 6.792E+02 9.302E+03 9.306E+03 9.441E+05 27.8146 1.00000
