 Incident particle is a Muon with M = 105.65839 MeV
 Index = 0: Nihonium
      Absorber with <Z/A> = 0.39485
 Sternheimer coef:  a     k=m_s   x_0    x_1    I[eV]   Cbar  delta0
                 0.2852  3.0000  0.6818  3.0000 1171.0  6.6925 0.00

 *** Table generated with PUMAS v1.00 ***

      T         p     Ionization  brems     pair     photonuc  Radloss    dE/dx   CSDA Range  delta   beta
    [MeV]    [MeV/c]  -----------------------[MeV cm^2/g]------------------------  [g/cm^2]
  1.000E+00 1.457E+01 1.810E+01 7.459E-06 0.000E+00 0.000E+00 7.459E-06 1.810E+01 2.763E-02  0.0000 0.13661
  1.200E+00 1.597E+01 1.610E+01 8.560E-06 0.000E+00 0.000E+00 8.560E-06 1.610E+01 3.936E-02  0.0000 0.14944
  1.400E+00 1.726E+01 1.455E+01 9.601E-06 0.000E+00 0.000E+00 9.601E-06 1.455E+01 5.245E-02  0.0000 0.16119
  1.700E+00 1.903E+01 1.276E+01 1.107E-05 0.000E+00 0.000E+00 1.107E-05 1.276E+01 7.452E-02  0.0000 0.17725
  2.000E+00 2.066E+01 1.142E+01 1.244E-05 0.000E+00 0.000E+00 1.244E-05 1.142E+01 9.941E-02  0.0000 0.19186
  2.500E+00 2.312E+01 9.770E+00 1.457E-05 0.000E+00 0.000E+00 1.457E-05 9.770E+00 1.469E-01  0.0000 0.21376
  3.000E+00 2.536E+01 8.590E+00 1.653E-05 0.000E+00 0.000E+00 1.653E-05 8.590E+00 2.016E-01  0.0000 0.23336
  3.500E+00 2.742E+01 7.697E+00 1.835E-05 0.000E+00 0.000E+00 1.835E-05 7.697E+00 2.632E-01  0.0000 0.25120
  4.000E+00 2.935E+01 6.997E+00 2.006E-05 0.000E+00 0.000E+00 2.006E-05 6.997E+00 3.314E-01  0.0000 0.26763
  4.500E+00 3.116E+01 6.431E+00 2.168E-05 0.000E+00 0.000E+00 2.168E-05 6.431E+00 4.060E-01  0.0000 0.28290
  5.000E+00 3.289E+01 5.963E+00 2.321E-05 0.000E+00 0.000E+00 2.321E-05 5.963E+00 4.868E-01  0.0000 0.29720
  5.500E+00 3.453E+01 5.570E+00 2.467E-05 0.000E+00 0.000E+00 2.467E-05 5.570E+00 5.736E-01  0.0000 0.31066
  6.000E+00 3.611E+01 5.234E+00 2.607E-05 0.000E+00 0.000E+00 2.607E-05 5.234E+00 6.662E-01  0.0000 0.32339
  7.000E+00 3.909E+01 4.690E+00 2.871E-05 0.000E+00 0.000E+00 2.871E-05 4.690E+00 8.684E-01  0.0000 0.34700
  8.000E+00 4.189E+01 4.267E+00 3.116E-05 0.000E+00 0.000E+00 3.116E-05 4.267E+00 1.092E+00  0.0000 0.36854
  9.000E+00 4.453E+01 3.929E+00 3.346E-05 0.000E+00 0.000E+00 3.346E-05 3.929E+00 1.337E+00  0.0000 0.38836
  1.000E+01 4.704E+01 3.652E+00 3.564E-05 0.000E+00 0.000E+00 3.564E-05 3.652E+00 1.601E+00  0.0000 0.40675
  1.200E+01 5.177E+01 3.223E+00 3.970E-05 0.000E+00 0.000E+00 3.970E-05 3.223E+00 2.185E+00  0.0000 0.43998
  1.400E+01 5.616E+01 2.907E+00 4.343E-05 0.000E+00 0.000E+00 4.343E-05 2.907E+00 2.839E+00  0.0000 0.46937
  1.700E+01 6.230E+01 2.562E+00 4.859E-05 0.000E+00 0.000E+00 4.859E-05 2.562E+00 3.941E+00  0.0000 0.50792
  2.000E+01 6.802E+01 2.314E+00 5.338E-05 0.000E+00 0.000E+00 5.338E-05 2.314E+00 5.174E+00  0.0000 0.54129
  2.500E+01 7.686E+01 2.026E+00 6.077E-05 0.000E+00 0.000E+00 6.077E-05 2.026E+00 7.488E+00  0.0000 0.58827
  3.000E+01 8.509E+01 1.831E+00 6.770E-05 0.000E+00 0.000E+00 6.770E-05 1.831E+00 1.009E+01  0.0000 0.62720
  3.500E+01 9.285E+01 1.689E+00 7.434E-05 0.000E+00 0.000E+00 7.434E-05 1.689E+00 1.293E+01  0.0000 0.66011
  4.000E+01 1.003E+02 1.583E+00 8.080E-05 0.000E+00 0.000E+00 8.080E-05 1.583E+00 1.599E+01  0.0000 0.68834
  4.500E+01 1.074E+02 1.501E+00 8.716E-05 0.000E+00 0.000E+00 8.716E-05 1.501E+00 1.924E+01  0.0000 0.71286
  5.000E+01 1.143E+02 1.435E+00 9.347E-05 0.000E+00 0.000E+00 9.347E-05 1.435E+00 2.264E+01  0.0000 0.73434
  5.500E+01 1.210E+02 1.382E+00 9.976E-05 0.000E+00 0.000E+00 9.976E-05 1.382E+00 2.619E+01  0.0000 0.75332
  6.000E+01 1.276E+02 1.339E+00 1.060E-04 0.000E+00 0.000E+00 1.060E-04 1.339E+00 2.987E+01  0.0000 0.77019
  7.000E+01 1.403E+02 1.272E+00 1.187E-04 0.000E+00 0.000E+00 1.187E-04 1.272E+00 3.754E+01  0.0000 0.79887
  8.000E+01 1.527E+02 1.224E+00 1.315E-04 0.000E+00 0.000E+00 1.315E-04 1.224E+00 4.555E+01  0.0000 0.82227
  9.000E+01 1.647E+02 1.188E+00 1.446E-04 0.000E+00 0.000E+00 1.446E-04 1.189E+00 5.385E+01  0.0000 0.84166
  1.000E+02 1.764E+02 1.162E+00 1.580E-04 0.000E+00 0.000E+00 1.580E-04 1.162E+00 6.236E+01  0.0000 0.85794
  1.200E+02 1.994E+02 1.126E+00 1.855E-04 0.000E+00 0.000E+00 1.855E-04 1.126E+00 7.984E+01  0.0000 0.88361
  1.400E+02 2.218E+02 1.105E+00 2.142E-04 0.000E+00 0.000E+00 2.142E-04 1.106E+00 9.776E+01  0.0000 0.90278
  1.700E+02 2.546E+02 1.090E+00 2.594E-04 0.000E+00 0.000E+00 2.594E-04 1.090E+00 1.251E+02  0.0000 0.92363
  2.000E+02 2.868E+02 1.085E+00 3.072E-04 0.000E+00 0.000E+00 3.072E-04 1.085E+00 1.527E+02  0.0000 0.93835
  2.500E+02 3.396E+02 1.088E+00 3.923E-04 0.000E+00 0.000E+00 3.923E-04 1.089E+00 1.987E+02  0.0000 0.95485
  3.000E+02 3.917E+02 1.099E+00 4.835E-04 0.000E+00 0.000E+00 4.835E-04 1.099E+00 2.444E+02  0.0000 0.96548
  3.500E+02 4.432E+02 1.112E+00 5.803E-04 0.000E+00 0.000E+00 5.803E-04 1.113E+00 2.896E+02  0.0000 0.97274
  4.000E+02 4.945E+02 1.127E+00 6.824E-04 0.000E+00 0.000E+00 6.824E-04 1.128E+00 3.342E+02  0.0000 0.97793
  4.500E+02 5.455E+02 1.142E+00 7.894E-04 0.000E+00 0.000E+00 7.894E-04 1.142E+00 3.783E+02  0.0025 0.98176
  5.000E+02 5.964E+02 1.156E+00 9.008E-04 0.000E+00 0.000E+00 9.008E-04 1.157E+00 4.218E+02  0.0104 0.98467
  5.500E+02 6.471E+02 1.169E+00 1.016E-03 1.168E-04 0.000E+00 1.133E-03 1.171E+00 4.647E+02  0.0228 0.98693
  6.000E+02 6.977E+02 1.182E+00 1.136E-03 1.940E-04 0.000E+00 1.330E-03 1.184E+00 5.072E+02  0.0384 0.98873
  7.000E+02 7.987E+02 1.206E+00 1.386E-03 3.156E-04 0.000E+00 1.702E-03 1.208E+00 5.909E+02  0.0763 0.99136
  8.000E+02 8.995E+02 1.228E+00 1.650E-03 4.567E-04 0.000E+00 2.106E-03 1.230E+00 6.729E+02  0.1200 0.99317
  9.000E+02 1.000E+03 1.247E+00 1.925E-03 6.197E-04 0.000E+00 2.545E-03 1.250E+00 7.536E+02  0.1670 0.99447
  1.000E+03 1.101E+03 1.265E+00 2.212E-03 8.035E-04 0.000E+00 3.016E-03 1.268E+00 8.330E+02  0.2158 0.99542
  1.200E+03 1.301E+03 1.295E+00 2.816E-03 1.228E-03 2.243E-05 4.067E-03 1.299E+00 9.889E+02  0.3151 0.99672
  1.400E+03 1.502E+03 1.321E+00 3.455E-03 1.723E-03 6.072E-05 5.239E-03 1.327E+00 1.141E+03  0.4138 0.99753
  1.700E+03 1.803E+03 1.354E+00 4.472E-03 2.580E-03 1.283E-04 7.181E-03 1.361E+00 1.364E+03  0.5572 0.99829
  2.000E+03 2.103E+03 1.381E+00 5.550E-03 3.561E-03 2.065E-04 9.317E-03 1.391E+00 1.583E+03  0.6931 0.99874
  2.500E+03 2.604E+03 1.418E+00 7.459E-03 5.431E-03 3.555E-04 1.325E-02 1.431E+00 1.937E+03  0.9029 0.99918
  3.000E+03 3.104E+03 1.447E+00 9.487E-03 7.554E-03 5.090E-04 1.755E-02 1.464E+00 2.282E+03  1.0934 0.99942
  3.500E+03 3.604E+03 1.471E+00 1.162E-02 9.894E-03 6.695E-04 2.218E-02 1.493E+00 2.621E+03  1.2673 0.99957
  4.000E+03 4.104E+03 1.491E+00 1.384E-02 1.243E-02 8.394E-04 2.711E-02 1.518E+00 2.953E+03  1.4273 0.99967
  4.500E+03 4.604E+03 1.509E+00 1.613E-02 1.514E-02 1.015E-03 3.229E-02 1.541E+00 3.280E+03  1.5752 0.99974
  5.000E+03 5.105E+03 1.524E+00 1.850E-02 1.800E-02 1.182E-03 3.768E-02 1.562E+00 3.602E+03  1.7128 0.99979
  5.500E+03 5.605E+03 1.538E+00 2.092E-02 2.100E-02 1.361E-03 4.328E-02 1.581E+00 3.920E+03  1.8414 0.99982
  6.000E+03 6.105E+03 1.550E+00 2.341E-02 2.412E-02 1.527E-03 4.905E-02 1.599E+00 4.234E+03  1.9622 0.99985
  7.000E+03 7.105E+03 1.571E+00 2.853E-02 3.069E-02 1.878E-03 6.110E-02 1.632E+00 4.853E+03  2.1837 0.99989
  8.000E+03 8.105E+03 1.589E+00 3.383E-02 3.766E-02 2.224E-03 7.372E-02 1.663E+00 5.460E+03  2.3830 0.99992
  9.000E+03 9.105E+03 1.604E+00 3.930E-02 4.496E-02 2.547E-03 8.681E-02 1.691E+00 6.057E+03  2.5644 0.99993
  1.000E+04 1.011E+04 1.618E+00 4.490E-02 5.257E-02 2.880E-03 1.003E-01 1.718E+00 6.643E+03  2.7308 0.99995
  1.200E+04 1.211E+04 1.640E+00 5.647E-02 6.856E-02 3.549E-03 1.286E-01 1.769E+00 7.791E+03  3.0274 0.99996
  1.400E+04 1.411E+04 1.658E+00 6.845E-02 8.543E-02 4.216E-03 1.581E-01 1.816E+00 8.907E+03  3.2864 0.99997
  1.700E+04 1.711E+04 1.680E+00 8.709E-02 1.121E-01 5.197E-03 2.044E-01 1.885E+00 1.053E+04  3.6224 0.99998
  2.000E+04 2.011E+04 1.698E+00 1.064E-01 1.401E-01 6.154E-03 2.526E-01 1.950E+00 1.209E+04  3.9113 0.99999
  2.500E+04 2.511E+04 1.721E+00 1.397E-01 1.891E-01 7.716E-03 3.365E-01 2.058E+00 1.459E+04  4.3181 0.99999
  3.000E+04 3.011E+04 1.739E+00 1.742E-01 2.404E-01 9.239E-03 4.238E-01 2.163E+00 1.696E+04  4.6582 0.99999
  3.500E+04 3.511E+04 1.754E+00 2.097E-01 2.936E-01 1.077E-02 5.140E-01 2.268E+00 1.922E+04  4.9506 1.00000
  4.000E+04 4.011E+04 1.767E+00 2.460E-01 3.482E-01 1.228E-02 6.065E-01 2.373E+00 2.138E+04  5.2069 1.00000
  4.500E+04 4.511E+04 1.777E+00 2.830E-01 4.041E-01 1.376E-02 7.009E-01 2.478E+00 2.344E+04  5.4350 1.00000
  5.000E+04 5.011E+04 1.787E+00 3.206E-01 4.611E-01 1.525E-02 7.970E-01 2.584E+00 2.541E+04  5.6406 1.00000
  5.500E+04 5.511E+04 1.795E+00 3.588E-01 5.190E-01 1.673E-02 8.945E-01 2.690E+00 2.731E+04  5.8275 1.00000
  6.000E+04 6.011E+04 1.803E+00 3.974E-01 5.777E-01 1.820E-02 9.933E-01 2.796E+00 2.913E+04  5.9990 1.00000
  7.000E+04 7.011E+04 1.816E+00 4.760E-01 6.972E-01 2.111E-02 1.194E+00 3.010E+00 3.258E+04  6.3042 1.00000
  8.000E+04 8.011E+04 1.827E+00 5.560E-01 8.190E-01 2.402E-02 1.399E+00 3.226E+00 3.579E+04  6.5698 1.00000
  9.000E+04 9.011E+04 1.837E+00 6.372E-01 9.427E-01 2.693E-02 1.607E+00 3.444E+00 3.879E+04  6.8046 1.00000
  1.000E+05 1.001E+05 1.846E+00 7.196E-01 1.068E+00 2.977E-02 1.817E+00 3.663E+00 4.161E+04  7.0150 1.00000
  1.200E+05 1.201E+05 1.861E+00 8.869E-01 1.322E+00 3.555E-02 2.245E+00 4.106E+00 4.678E+04  7.3793 1.00000
  1.400E+05 1.401E+05 1.874E+00 1.057E+00 1.581E+00 4.132E-02 2.680E+00 4.553E+00 5.141E+04  7.6874 1.00000
  1.700E+05 1.701E+05 1.890E+00 1.317E+00 1.975E+00 4.995E-02 3.342E+00 5.232E+00 5.757E+04  8.0754 1.00000
  2.000E+05 2.001E+05 1.903E+00 1.582E+00 2.374E+00 5.862E-02 4.014E+00 5.917E+00 6.297E+04  8.4003 1.00000
  2.500E+05 2.501E+05 1.921E+00 2.029E+00 3.049E+00 7.308E-02 5.151E+00 7.072E+00 7.073E+04  8.8464 1.00000
  3.000E+05 3.001E+05 1.935E+00 2.485E+00 3.731E+00 8.762E-02 6.303E+00 8.239E+00 7.730E+04  9.2109 1.00000
  3.500E+05 3.501E+05 1.948E+00 2.945E+00 4.420E+00 1.023E-01 7.467E+00 9.415E+00 8.299E+04  9.5191 1.00000
  4.000E+05 4.001E+05 1.959E+00 3.410E+00 5.113E+00 1.171E-01 8.641E+00 1.060E+01 8.801E+04  9.7860 1.00000
  4.500E+05 4.501E+05 1.968E+00 3.879E+00 5.810E+00 1.319E-01 9.821E+00 1.179E+01 9.248E+04 10.0216 1.00000
  5.000E+05 5.001E+05 1.977E+00 4.351E+00 6.510E+00 1.468E-01 1.101E+01 1.299E+01 9.653E+04 10.2322 1.00000
  5.500E+05 5.501E+05 1.985E+00 4.826E+00 7.213E+00 1.616E-01 1.220E+01 1.419E+01 1.002E+05 10.4228 1.00000
  6.000E+05 6.001E+05 1.992E+00 5.303E+00 7.918E+00 1.765E-01 1.340E+01 1.539E+01 1.036E+05 10.5968 1.00000
  7.000E+05 7.001E+05 2.004E+00 6.263E+00 9.333E+00 2.065E-01 1.580E+01 1.781E+01 1.097E+05 10.9051 1.00000
  8.000E+05 8.001E+05 2.015E+00 7.230E+00 1.075E+01 2.368E-01 1.822E+01 2.024E+01 1.149E+05 11.1721 1.00000
  9.000E+05 9.001E+05 2.025E+00 8.202E+00 1.218E+01 2.674E-01 2.065E+01 2.267E+01 1.196E+05 11.4076 1.00000
  1.000E+06 1.000E+06 2.034E+00 9.178E+00 1.361E+01 2.983E-01 2.308E+01 2.512E+01 1.238E+05 11.6183 1.00000
  1.200E+06 1.200E+06 2.049E+00 1.114E+01 1.648E+01 3.607E-01 2.798E+01 3.003E+01 1.311E+05 11.9829 1.00000
  1.400E+06 1.400E+06 2.062E+00 1.312E+01 1.935E+01 4.240E-01 3.289E+01 3.495E+01 1.373E+05 12.2912 1.00000
  1.700E+06 1.700E+06 2.078E+00 1.610E+01 2.368E+01 5.204E-01 4.030E+01 4.237E+01 1.451E+05 12.6795 1.00000
  2.000E+06 2.000E+06 2.092E+00 1.909E+01 2.802E+01 6.183E-01 4.773E+01 4.982E+01 1.517E+05 13.0045 1.00000
  2.500E+06 2.500E+06 2.111E+00 2.410E+01 3.526E+01 7.845E-01 6.015E+01 6.226E+01 1.607E+05 13.4508 1.00000
  3.000E+06 3.000E+06 2.126E+00 2.914E+01 4.253E+01 9.537E-01 7.262E+01 7.475E+01 1.681E+05 13.8154 1.00000
  3.500E+06 3.500E+06 2.140E+00 3.419E+01 4.980E+01 1.126E+00 8.512E+01 8.726E+01 1.743E+05 14.1237 1.00000
  4.000E+06 4.000E+06 2.151E+00 3.926E+01 5.708E+01 1.300E+00 9.764E+01 9.979E+01 1.797E+05 14.3907 1.00000
  4.500E+06 4.500E+06 2.161E+00 4.433E+01 6.437E+01 1.477E+00 1.102E+02 1.123E+02 1.844E+05 14.6263 1.00000
  5.000E+06 5.000E+06 2.171E+00 4.941E+01 7.167E+01 1.655E+00 1.227E+02 1.249E+02 1.886E+05 14.8370 1.00000
  5.500E+06 5.500E+06 2.179E+00 5.450E+01 7.897E+01 1.836E+00 1.353E+02 1.375E+02 1.924E+05 15.0276 1.00000
  6.000E+06 6.000E+06 2.187E+00 5.960E+01 8.627E+01 2.018E+00 1.479E+02 1.501E+02 1.959E+05 15.2017 1.00000
  7.000E+06 7.000E+06 2.200E+00 6.980E+01 1.009E+02 2.386E+00 1.731E+02 1.753E+02 2.021E+05 15.5099 1.00000
  8.000E+06 8.000E+06 2.212E+00 8.002E+01 1.155E+02 2.760E+00 1.983E+02 2.005E+02 2.075E+05 15.7770 1.00000
  9.000E+06 9.000E+06 2.223E+00 9.025E+01 1.301E+02 3.139E+00 2.235E+02 2.257E+02 2.122E+05 16.0126 1.00000
  1.000E+07 1.000E+07 2.233E+00 1.005E+02 1.448E+02 3.522E+00 2.488E+02 2.510E+02 2.164E+05 16.2233 1.00000
  1.200E+07 1.200E+07 2.249E+00 1.210E+02 1.740E+02 4.301E+00 2.993E+02 3.016E+02 2.237E+05 16.5879 1.00000
  1.400E+07 1.400E+07 2.263E+00 1.415E+02 2.033E+02 5.093E+00 3.499E+02 3.522E+02 2.298E+05 16.8962 1.00000
  1.700E+07 1.700E+07 2.281E+00 1.723E+02 2.473E+02 6.303E+00 4.259E+02 4.282E+02 2.376E+05 17.2845 1.00000
  2.000E+07 2.000E+07 2.296E+00 2.032E+02 2.913E+02 7.537E+00 5.020E+02 5.043E+02 2.441E+05 17.6096 1.00000
  2.500E+07 2.500E+07 2.317E+00 2.546E+02 3.646E+02 9.638E+00 6.288E+02 6.311E+02 2.530E+05 18.0559 1.00000
  3.000E+07 3.000E+07 2.335E+00 3.061E+02 4.379E+02 1.178E+01 7.558E+02 7.581E+02 2.603E+05 18.4205 1.00000
  3.500E+07 3.500E+07 2.349E+00 3.576E+02 5.113E+02 1.397E+01 8.828E+02 8.852E+02 2.664E+05 18.7288 1.00000
  4.000E+07 4.000E+07 2.362E+00 4.091E+02 5.846E+02 1.619E+01 1.010E+03 1.012E+03 2.717E+05 18.9959 1.00000
  4.500E+07 4.500E+07 2.374E+00 4.606E+02 6.580E+02 1.844E+01 1.137E+03 1.139E+03 2.763E+05 19.2314 1.00000
  5.000E+07 5.000E+07 2.384E+00 5.121E+02 7.314E+02 2.072E+01 1.264E+03 1.267E+03 2.805E+05 19.4421 1.00000
  5.500E+07 5.500E+07 2.393E+00 5.637E+02 8.047E+02 2.303E+01 1.391E+03 1.394E+03 2.843E+05 19.6328 1.00000
  6.000E+07 6.000E+07 2.402E+00 6.152E+02 8.781E+02 2.536E+01 1.519E+03 1.521E+03 2.877E+05 19.8068 1.00000
  7.000E+07 7.000E+07 2.417E+00 7.184E+02 1.025E+03 3.008E+01 1.773E+03 1.776E+03 2.938E+05 20.1151 1.00000
  8.000E+07 8.000E+07 2.430E+00 8.215E+02 1.172E+03 3.488E+01 2.028E+03 2.031E+03 2.991E+05 20.3822 1.00000
  9.000E+07 9.000E+07 2.442E+00 9.247E+02 1.318E+03 3.974E+01 2.283E+03 2.285E+03 3.037E+05 20.6177 1.00000
  1.000E+08 1.000E+08 2.453E+00 1.028E+03 1.465E+03 4.467E+01 2.538E+03 2.540E+03 3.079E+05 20.8284 1.00000
  1.200E+08 1.200E+08 2.471E+00 1.234E+03 1.759E+03 5.469E+01 3.048E+03 3.050E+03 3.151E+05 21.1931 1.00000
  1.400E+08 1.400E+08 2.487E+00 1.441E+03 2.052E+03 6.490E+01 3.558E+03 3.560E+03 3.212E+05 21.5014 1.00000
  1.700E+08 1.700E+08 2.507E+00 1.750E+03 2.493E+03 8.052E+01 4.324E+03 4.326E+03 3.289E+05 21.8897 1.00000
  2.000E+08 2.000E+08 2.524E+00 2.060E+03 2.933E+03 9.647E+01 5.090E+03 5.092E+03 3.353E+05 22.2147 1.00000
  2.500E+08 2.500E+08 2.547E+00 2.576E+03 3.667E+03 1.236E+02 6.367E+03 6.370E+03 3.441E+05 22.6610 1.00000
  3.000E+08 3.000E+08 2.567E+00 3.092E+03 4.401E+03 1.515E+02 7.645E+03 7.648E+03 3.513E+05 23.0257 1.00000
  3.500E+08 3.500E+08 2.583E+00 3.609E+03 5.135E+03 1.798E+02 8.924E+03 8.926E+03 3.574E+05 23.3340 1.00000
  4.000E+08 4.000E+08 2.597E+00 4.125E+03 5.869E+03 2.087E+02 1.020E+04 1.021E+04 3.626E+05 23.6010 1.00000
  4.500E+08 4.500E+08 2.610E+00 4.641E+03 6.603E+03 2.379E+02 1.148E+04 1.148E+04 3.673E+05 23.8366 1.00000
  5.000E+08 5.000E+08 2.622E+00 5.157E+03 7.337E+03 2.676E+02 1.276E+04 1.276E+04 3.714E+05 24.0473 1.00000
  5.500E+08 5.500E+08 2.632E+00 5.673E+03 8.071E+03 2.975E+02 1.404E+04 1.404E+04 3.751E+05 24.2379 1.00000
  6.000E+08 6.000E+08 2.642E+00 6.190E+03 8.805E+03 3.279E+02 1.532E+04 1.533E+04 3.785E+05 24.4120 1.00000
  7.000E+08 7.000E+08 2.659E+00 7.222E+03 1.027E+04 3.894E+02 1.788E+04 1.789E+04 3.846E+05 24.7203 1.00000
  8.000E+08 8.000E+08 2.673E+00 8.255E+03 1.174E+04 4.519E+02 2.045E+04 2.045E+04 3.898E+05 24.9873 1.00000
  9.000E+08 9.000E+08 2.687E+00 9.287E+03 1.321E+04 5.154E+02 2.301E+04 2.301E+04 3.945E+05 25.2229 1.00000
  1.000E+09 1.000E+09 2.698E+00 1.032E+04 1.468E+04 5.797E+02 2.558E+04 2.558E+04 3.986E+05 25.4336 1.00000
