 Incident particle is a Muon with M = 105.65839 MeV
 Index = 0: Niobium
      Absorber with <Z/A> = 0.44130
 Sternheimer coef:  a     k=m_s   x_0    x_1    I[eV]   Cbar  delta0
                 0.1388  3.0930  0.1785  3.2201  417.0  5.0141 0.14

 *** Table generated with PUMAS v1.00 ***

      T         p     Ionization  brems     pair     photonuc  Radloss    dE/dx   CSDA Range  delta   beta
    [MeV]    [MeV/c]  -----------------------[MeV cm^2/g]------------------------  [g/cm^2]
  1.000E+00 1.457E+01 2.772E+01 3.297E-06 0.000E+00 0.000E+00 3.297E-06 2.772E+01 1.804E-02  0.0012 0.13661
  1.200E+00 1.597E+01 2.425E+01 3.789E-06 0.000E+00 0.000E+00 3.789E-06 2.425E+01 2.577E-02  0.0014 0.14944
  1.400E+00 1.726E+01 2.164E+01 4.257E-06 0.000E+00 0.000E+00 4.257E-06 2.164E+01 3.451E-02  0.0016 0.16119
  1.700E+00 1.903E+01 1.871E+01 4.919E-06 0.000E+00 0.000E+00 4.919E-06 1.871E+01 4.946E-02  0.0020 0.17725
  2.000E+00 2.066E+01 1.656E+01 5.543E-06 0.000E+00 0.000E+00 5.543E-06 1.656E+01 6.654E-02  0.0024 0.19186
  2.500E+00 2.312E+01 1.398E+01 6.512E-06 0.000E+00 0.000E+00 6.512E-06 1.398E+01 9.952E-02  0.0029 0.21376
  3.000E+00 2.536E+01 1.217E+01 7.411E-06 0.000E+00 0.000E+00 7.411E-06 1.217E+01 1.380E-01  0.0035 0.23336
  3.500E+00 2.742E+01 1.082E+01 8.252E-06 0.000E+00 0.000E+00 8.252E-06 1.082E+01 1.816E-01  0.0041 0.25120
  4.000E+00 2.935E+01 9.769E+00 9.046E-06 0.000E+00 0.000E+00 9.046E-06 9.769E+00 2.303E-01  0.0047 0.26763
  4.500E+00 3.116E+01 8.931E+00 9.798E-06 0.000E+00 0.000E+00 9.798E-06 8.931E+00 2.839E-01  0.0054 0.28290
  5.000E+00 3.289E+01 8.244E+00 1.052E-05 0.000E+00 0.000E+00 1.052E-05 8.244E+00 3.422E-01  0.0060 0.29720
  5.500E+00 3.453E+01 7.670E+00 1.120E-05 0.000E+00 0.000E+00 1.120E-05 7.670E+00 4.051E-01  0.0066 0.31066
  6.000E+00 3.611E+01 7.183E+00 1.186E-05 0.000E+00 0.000E+00 1.186E-05 7.183E+00 4.725E-01  0.0072 0.32339
  7.000E+00 3.909E+01 6.399E+00 1.311E-05 0.000E+00 0.000E+00 1.311E-05 6.399E+00 6.203E-01  0.0084 0.34700
  8.000E+00 4.189E+01 5.795E+00 1.427E-05 0.000E+00 0.000E+00 1.427E-05 5.795E+00 7.847E-01  0.0097 0.36854
  9.000E+00 4.453E+01 5.314E+00 1.537E-05 0.000E+00 0.000E+00 1.537E-05 5.314E+00 9.651E-01  0.0109 0.38836
  1.000E+01 4.704E+01 4.922E+00 1.641E-05 0.000E+00 0.000E+00 1.641E-05 4.922E+00 1.161E+00  0.0122 0.40675
  1.200E+01 5.177E+01 4.320E+00 1.836E-05 0.000E+00 0.000E+00 1.836E-05 4.320E+00 1.595E+00  0.0148 0.43998
  1.400E+01 5.616E+01 3.879E+00 2.016E-05 0.000E+00 0.000E+00 2.016E-05 3.879E+00 2.085E+00  0.0174 0.46937
  1.700E+01 6.230E+01 3.400E+00 2.266E-05 0.000E+00 0.000E+00 2.266E-05 3.400E+00 2.913E+00  0.0214 0.50792
  2.000E+01 6.802E+01 3.058E+00 2.498E-05 0.000E+00 0.000E+00 2.498E-05 3.058E+00 3.844E+00  0.0255 0.54129
  2.500E+01 7.686E+01 2.663E+00 2.856E-05 0.000E+00 0.000E+00 2.856E-05 2.663E+00 5.601E+00  0.0326 0.58827
  3.000E+01 8.509E+01 2.395E+00 3.192E-05 0.000E+00 0.000E+00 3.192E-05 2.395E+00 7.583E+00  0.0399 0.62720
  3.500E+01 9.285E+01 2.202E+00 3.513E-05 0.000E+00 0.000E+00 3.513E-05 2.202E+00 9.763E+00  0.0475 0.66011
  4.000E+01 1.003E+02 2.057E+00 3.826E-05 0.000E+00 0.000E+00 3.826E-05 2.057E+00 1.211E+01  0.0554 0.68834
  4.500E+01 1.074E+02 1.944E+00 4.132E-05 0.000E+00 0.000E+00 4.132E-05 1.944E+00 1.462E+01  0.0636 0.71286
  5.000E+01 1.143E+02 1.854E+00 4.435E-05 0.000E+00 0.000E+00 4.435E-05 1.855E+00 1.725E+01  0.0720 0.73434
  5.500E+01 1.210E+02 1.782E+00 4.737E-05 0.000E+00 0.000E+00 4.737E-05 1.782E+00 2.000E+01  0.0807 0.75332
  6.000E+01 1.276E+02 1.722E+00 5.038E-05 0.000E+00 0.000E+00 5.038E-05 1.722E+00 2.286E+01  0.0897 0.77019
  7.000E+01 1.403E+02 1.629E+00 5.643E-05 0.000E+00 0.000E+00 5.643E-05 1.629E+00 2.883E+01  0.1085 0.79887
  8.000E+01 1.527E+02 1.562E+00 6.255E-05 0.000E+00 0.000E+00 6.255E-05 1.562E+00 3.510E+01  0.1285 0.82227
  9.000E+01 1.647E+02 1.512E+00 6.876E-05 0.000E+00 0.000E+00 6.876E-05 1.512E+00 4.161E+01  0.1424 0.84166
  1.000E+02 1.764E+02 1.475E+00 7.509E-05 0.000E+00 0.000E+00 7.509E-05 1.475E+00 4.830E+01  0.1511 0.85794
  1.200E+02 1.994E+02 1.423E+00 8.811E-05 0.000E+00 0.000E+00 8.811E-05 1.423E+00 6.211E+01  0.1730 0.88361
  1.400E+02 2.218E+02 1.391E+00 1.016E-04 0.000E+00 0.000E+00 1.016E-04 1.391E+00 7.633E+01  0.1987 0.90278
  1.700E+02 2.546E+02 1.363E+00 1.229E-04 0.000E+00 0.000E+00 1.229E-04 1.363E+00 9.812E+01  0.2413 0.92363
  2.000E+02 2.868E+02 1.349E+00 1.454E-04 0.000E+00 0.000E+00 1.454E-04 1.350E+00 1.202E+02  0.2862 0.93835
  2.500E+02 3.396E+02 1.343E+00 1.851E-04 0.000E+00 0.000E+00 1.851E-04 1.343E+00 1.574E+02  0.3624 0.95485
  3.000E+02 3.917E+02 1.346E+00 2.276E-04 0.000E+00 0.000E+00 2.276E-04 1.347E+00 1.946E+02  0.4379 0.96548
  3.500E+02 4.432E+02 1.354E+00 2.726E-04 5.321E-07 0.000E+00 2.732E-04 1.355E+00 2.316E+02  0.5116 0.97274
  4.000E+02 4.945E+02 1.364E+00 3.200E-04 1.804E-05 0.000E+00 3.380E-04 1.365E+00 2.683E+02  0.5829 0.97793
  4.500E+02 5.455E+02 1.375E+00 3.694E-04 3.062E-05 0.000E+00 4.000E-04 1.376E+00 3.048E+02  0.6517 0.98176
  5.000E+02 5.964E+02 1.387E+00 4.209E-04 4.575E-05 0.000E+00 4.666E-04 1.387E+00 3.410E+02  0.7180 0.98467
  5.500E+02 6.471E+02 1.398E+00 4.742E-04 6.362E-05 0.000E+00 5.378E-04 1.398E+00 3.769E+02  0.7819 0.98693
  6.000E+02 6.977E+02 1.409E+00 5.292E-04 8.417E-05 0.000E+00 6.133E-04 1.409E+00 4.125E+02  0.8435 0.98873
  7.000E+02 7.987E+02 1.429E+00 6.440E-04 1.329E-04 0.000E+00 7.769E-04 1.430E+00 4.830E+02  0.9603 0.99136
  8.000E+02 8.995E+02 1.449E+00 7.647E-04 1.913E-04 0.000E+00 9.560E-04 1.450E+00 5.524E+02  1.0695 0.99317
  9.000E+02 1.000E+03 1.466E+00 8.907E-04 2.587E-04 0.000E+00 1.149E-03 1.467E+00 6.210E+02  1.1719 0.99447
  1.000E+03 1.101E+03 1.483E+00 1.022E-03 3.346E-04 0.000E+00 1.356E-03 1.484E+00 6.888E+02  1.2684 0.99542
  1.200E+03 1.301E+03 1.511E+00 1.296E-03 5.100E-04 2.248E-05 1.829E-03 1.513E+00 8.222E+02  1.4460 0.99672
  1.400E+03 1.502E+03 1.536E+00 1.586E-03 7.139E-04 6.109E-05 2.361E-03 1.539E+00 9.533E+02  1.6066 0.99753
  1.700E+03 1.803E+03 1.568E+00 2.047E-03 1.067E-03 1.298E-04 3.244E-03 1.571E+00 1.146E+03  1.8221 0.99829
  2.000E+03 2.103E+03 1.594E+00 2.533E-03 1.472E-03 2.099E-04 4.214E-03 1.599E+00 1.336E+03  2.0135 0.99874
  2.500E+03 2.604E+03 1.630E+00 3.392E-03 2.242E-03 3.632E-04 5.997E-03 1.636E+00 1.645E+03  2.2922 0.99918
  3.000E+03 3.104E+03 1.660E+00 4.302E-03 3.117E-03 5.225E-04 7.942E-03 1.668E+00 1.947E+03  2.5328 0.99942
  3.500E+03 3.604E+03 1.684E+00 5.256E-03 4.082E-03 6.900E-04 1.003E-02 1.694E+00 2.245E+03  2.7450 0.99957
  4.000E+03 4.104E+03 1.705E+00 6.247E-03 5.136E-03 8.679E-04 1.225E-02 1.717E+00 2.538E+03  2.9350 0.99967
  4.500E+03 4.604E+03 1.722E+00 7.271E-03 6.265E-03 1.052E-03 1.459E-02 1.737E+00 2.828E+03  3.1072 0.99974
  5.000E+03 5.105E+03 1.738E+00 8.326E-03 7.458E-03 1.228E-03 1.701E-02 1.755E+00 3.114E+03  3.2648 0.99979
  5.500E+03 5.605E+03 1.752E+00 9.407E-03 8.709E-03 1.418E-03 1.953E-02 1.772E+00 3.398E+03  3.4101 0.99982
  6.000E+03 6.105E+03 1.765E+00 1.051E-02 1.001E-02 1.594E-03 2.212E-02 1.787E+00 3.679E+03  3.5450 0.99985
  7.000E+03 7.105E+03 1.787E+00 1.279E-02 1.276E-02 1.966E-03 2.752E-02 1.815E+00 4.234E+03  3.7890 0.99989
  8.000E+03 8.105E+03 1.806E+00 1.514E-02 1.568E-02 2.334E-03 3.316E-02 1.839E+00 4.781E+03  4.0054 0.99992
  9.000E+03 9.105E+03 1.822E+00 1.757E-02 1.874E-02 2.679E-03 3.899E-02 1.861E+00 5.322E+03  4.1999 0.99993
  1.000E+04 1.011E+04 1.836E+00 2.005E-02 2.194E-02 3.034E-03 4.502E-02 1.881E+00 5.856E+03  4.3767 0.99995
  1.200E+04 1.211E+04 1.860E+00 2.517E-02 2.866E-02 3.752E-03 5.759E-02 1.918E+00 6.909E+03  4.6885 0.99996
  1.400E+04 1.411E+04 1.880E+00 3.047E-02 3.578E-02 4.469E-03 7.072E-02 1.951E+00 7.943E+03  4.9577 0.99997
  1.700E+04 1.711E+04 1.904E+00 3.871E-02 4.704E-02 5.528E-03 9.128E-02 1.995E+00 9.464E+03  5.3033 0.99998
  2.000E+04 2.011E+04 1.923E+00 4.723E-02 5.889E-02 6.564E-03 1.127E-01 2.036E+00 1.095E+04  5.5978 0.99999
  2.500E+04 2.511E+04 1.949E+00 6.194E-02 7.970E-02 8.259E-03 1.499E-01 2.099E+00 1.337E+04  6.0094 0.99999
  3.000E+04 3.011E+04 1.969E+00 7.718E-02 1.016E-01 9.919E-03 1.886E-01 2.158E+00 1.572E+04  6.3511 0.99999
  3.500E+04 3.511E+04 1.986E+00 9.284E-02 1.242E-01 1.159E-02 2.287E-01 2.214E+00 1.801E+04  6.6435 1.00000
  4.000E+04 4.011E+04 2.000E+00 1.089E-01 1.476E-01 1.324E-02 2.697E-01 2.269E+00 2.024E+04  6.8991 1.00000
  4.500E+04 4.511E+04 2.012E+00 1.252E-01 1.716E-01 1.487E-02 3.117E-01 2.324E+00 2.242E+04  7.1261 1.00000
  5.000E+04 5.011E+04 2.023E+00 1.418E-01 1.961E-01 1.649E-02 3.544E-01 2.377E+00 2.454E+04  7.3304 1.00000
  5.500E+04 5.511E+04 2.032E+00 1.586E-01 2.210E-01 1.813E-02 3.977E-01 2.430E+00 2.663E+04  7.5160 1.00000
  6.000E+04 6.011E+04 2.041E+00 1.757E-01 2.463E-01 1.974E-02 4.417E-01 2.482E+00 2.866E+04  7.6862 1.00000
  7.000E+04 7.011E+04 2.056E+00 2.104E-01 2.978E-01 2.295E-02 5.312E-01 2.587E+00 3.261E+04  7.9890 1.00000
  8.000E+04 8.011E+04 2.068E+00 2.457E-01 3.505E-01 2.615E-02 6.224E-01 2.691E+00 3.640E+04  8.2526 1.00000
  9.000E+04 9.011E+04 2.079E+00 2.816E-01 4.041E-01 2.936E-02 7.151E-01 2.795E+00 4.005E+04  8.4859 1.00000
  1.000E+05 1.001E+05 2.089E+00 3.180E-01 4.584E-01 3.250E-02 8.089E-01 2.898E+00 4.356E+04  8.6952 1.00000
  1.200E+05 1.201E+05 2.106E+00 3.920E-01 5.691E-01 3.890E-02 1.000E+00 3.106E+00 5.023E+04  9.0583 1.00000
  1.400E+05 1.401E+05 2.120E+00 4.674E-01 6.817E-01 4.528E-02 1.194E+00 3.315E+00 5.647E+04  9.3659 1.00000
  1.700E+05 1.701E+05 2.138E+00 5.825E-01 8.537E-01 5.486E-02 1.491E+00 3.629E+00 6.513E+04  9.7538 1.00000
  2.000E+05 2.001E+05 2.153E+00 6.996E-01 1.028E+00 6.448E-02 1.793E+00 3.945E+00 7.306E+04 10.0787 1.00000
  2.500E+05 2.501E+05 2.173E+00 8.983E-01 1.324E+00 8.055E-02 2.303E+00 4.476E+00 8.498E+04 10.5248 1.00000
  3.000E+05 3.001E+05 2.189E+00 1.100E+00 1.624E+00 9.672E-02 2.821E+00 5.010E+00 9.556E+04 10.8893 1.00000
  3.500E+05 3.501E+05 2.203E+00 1.305E+00 1.927E+00 1.131E-01 3.345E+00 5.548E+00 1.051E+05 11.1975 1.00000
  4.000E+05 4.001E+05 2.215E+00 1.512E+00 2.232E+00 1.295E-01 3.874E+00 6.089E+00 1.137E+05 11.4644 1.00000
  4.500E+05 4.501E+05 2.226E+00 1.721E+00 2.539E+00 1.460E-01 4.406E+00 6.632E+00 1.215E+05 11.7000 1.00000
  5.000E+05 5.001E+05 2.236E+00 1.931E+00 2.848E+00 1.627E-01 4.942E+00 7.177E+00 1.288E+05 11.9106 1.00000
  5.500E+05 5.501E+05 2.244E+00 2.142E+00 3.158E+00 1.792E-01 5.480E+00 7.724E+00 1.355E+05 12.1012 1.00000
  6.000E+05 6.001E+05 2.252E+00 2.355E+00 3.470E+00 1.958E-01 6.020E+00 8.273E+00 1.418E+05 12.2752 1.00000
  7.000E+05 7.001E+05 2.266E+00 2.783E+00 4.095E+00 2.293E-01 7.107E+00 9.374E+00 1.532E+05 12.5835 1.00000
  8.000E+05 8.001E+05 2.278E+00 3.215E+00 4.723E+00 2.631E-01 8.201E+00 1.048E+01 1.633E+05 12.8505 1.00000
  9.000E+05 9.001E+05 2.289E+00 3.649E+00 5.354E+00 2.973E-01 9.300E+00 1.159E+01 1.723E+05 13.0860 1.00000
  1.000E+06 1.000E+06 2.299E+00 4.085E+00 5.987E+00 3.317E-01 1.040E+01 1.270E+01 1.806E+05 13.2967 1.00000
  1.200E+06 1.200E+06 2.316E+00 4.964E+00 7.257E+00 4.015E-01 1.262E+01 1.494E+01 1.952E+05 13.6613 1.00000
  1.400E+06 1.400E+06 2.330E+00 5.848E+00 8.532E+00 4.722E-01 1.485E+01 1.718E+01 2.077E+05 13.9696 1.00000
  1.700E+06 1.700E+06 2.349E+00 7.182E+00 1.045E+01 5.800E-01 1.821E+01 2.056E+01 2.237E+05 14.3579 1.00000
  2.000E+06 2.000E+06 2.364E+00 8.524E+00 1.238E+01 6.894E-01 2.159E+01 2.395E+01 2.373E+05 14.6829 1.00000
  2.500E+06 2.500E+06 2.385E+00 1.077E+01 1.560E+01 8.751E-01 2.724E+01 2.963E+01 2.561E+05 15.1292 1.00000
  3.000E+06 3.000E+06 2.403E+00 1.304E+01 1.882E+01 1.064E+00 3.292E+01 3.532E+01 2.716E+05 15.4938 1.00000
  3.500E+06 3.500E+06 2.417E+00 1.530E+01 2.205E+01 1.257E+00 3.862E+01 4.103E+01 2.848E+05 15.8021 1.00000
  4.000E+06 4.000E+06 2.430E+00 1.758E+01 2.529E+01 1.452E+00 4.432E+01 4.675E+01 2.963E+05 16.0691 1.00000
  4.500E+06 4.500E+06 2.442E+00 1.986E+01 2.853E+01 1.649E+00 5.004E+01 5.249E+01 3.064E+05 16.3047 1.00000
  5.000E+06 5.000E+06 2.452E+00 2.215E+01 3.178E+01 1.849E+00 5.577E+01 5.823E+01 3.154E+05 16.5154 1.00000
  5.500E+06 5.500E+06 2.462E+00 2.444E+01 3.502E+01 2.051E+00 6.151E+01 6.397E+01 3.236E+05 16.7060 1.00000
  6.000E+06 6.000E+06 2.470E+00 2.673E+01 3.827E+01 2.254E+00 6.725E+01 6.972E+01 3.311E+05 16.8801 1.00000
  7.000E+06 7.000E+06 2.485E+00 3.132E+01 4.477E+01 2.667E+00 7.876E+01 8.124E+01 3.444E+05 17.1883 1.00000
  8.000E+06 8.000E+06 2.499E+00 3.592E+01 5.127E+01 3.085E+00 9.028E+01 9.278E+01 3.560E+05 17.4554 1.00000
  9.000E+06 9.000E+06 2.511E+00 4.053E+01 5.778E+01 3.509E+00 1.018E+02 1.043E+02 3.662E+05 17.6910 1.00000
  1.000E+07 1.000E+07 2.521E+00 4.514E+01 6.430E+01 3.938E+00 1.134E+02 1.159E+02 3.753E+05 17.9017 1.00000
  1.200E+07 1.200E+07 2.540E+00 5.438E+01 7.733E+01 4.808E+00 1.365E+02 1.391E+02 3.911E+05 18.2663 1.00000
  1.400E+07 1.400E+07 2.556E+00 6.363E+01 9.037E+01 5.695E+00 1.597E+02 1.622E+02 4.044E+05 18.5746 1.00000
  1.700E+07 1.700E+07 2.576E+00 7.752E+01 1.099E+02 7.050E+00 1.945E+02 1.971E+02 4.213E+05 18.9629 1.00000
  2.000E+07 2.000E+07 2.593E+00 9.143E+01 1.295E+02 8.430E+00 2.294E+02 2.320E+02 4.354E+05 19.2880 1.00000
  2.500E+07 2.500E+07 2.616E+00 1.146E+02 1.622E+02 1.078E+01 2.876E+02 2.902E+02 4.548E+05 19.7343 1.00000
  3.000E+07 3.000E+07 2.635E+00 1.378E+02 1.948E+02 1.318E+01 3.458E+02 3.485E+02 4.706E+05 20.0989 1.00000
  3.500E+07 3.500E+07 2.652E+00 1.611E+02 2.275E+02 1.563E+01 4.042E+02 4.068E+02 4.839E+05 20.4072 1.00000
  4.000E+07 4.000E+07 2.666E+00 1.843E+02 2.601E+02 1.811E+01 4.626E+02 4.652E+02 4.954E+05 20.6743 1.00000
  4.500E+07 4.500E+07 2.679E+00 2.076E+02 2.928E+02 2.063E+01 5.210E+02 5.237E+02 5.055E+05 20.9098 1.00000
  5.000E+07 5.000E+07 2.691E+00 2.308E+02 3.255E+02 2.319E+01 5.795E+02 5.822E+02 5.146E+05 21.1205 1.00000
  5.500E+07 5.500E+07 2.701E+00 2.541E+02 3.582E+02 2.577E+01 6.380E+02 6.407E+02 5.228E+05 21.3112 1.00000
  6.000E+07 6.000E+07 2.711E+00 2.774E+02 3.908E+02 2.837E+01 6.966E+02 6.993E+02 5.303E+05 21.4852 1.00000
  7.000E+07 7.000E+07 2.728E+00 3.239E+02 4.562E+02 3.366E+01 8.138E+02 8.165E+02 5.436E+05 21.7935 1.00000
  8.000E+07 8.000E+07 2.742E+00 3.705E+02 5.216E+02 3.903E+01 9.311E+02 9.338E+02 5.550E+05 22.0606 1.00000
  9.000E+07 9.000E+07 2.756E+00 4.170E+02 5.869E+02 4.447E+01 1.048E+03 1.051E+03 5.652E+05 22.2961 1.00000
  1.000E+08 1.000E+08 2.767E+00 4.636E+02 6.523E+02 4.998E+01 1.166E+03 1.169E+03 5.742E+05 22.5068 1.00000
  1.200E+08 1.200E+08 2.788E+00 5.568E+02 7.831E+02 6.120E+01 1.401E+03 1.404E+03 5.899E+05 22.8715 1.00000
  1.400E+08 1.400E+08 2.806E+00 6.500E+02 9.138E+02 7.262E+01 1.636E+03 1.639E+03 6.031E+05 23.1798 1.00000
  1.700E+08 1.700E+08 2.828E+00 7.898E+02 1.110E+03 9.011E+01 1.990E+03 1.993E+03 6.198E+05 23.5681 1.00000
  2.000E+08 2.000E+08 2.847E+00 9.296E+02 1.306E+03 1.080E+02 2.344E+03 2.347E+03 6.337E+05 23.8931 1.00000
  2.500E+08 2.500E+08 2.873E+00 1.163E+03 1.633E+03 1.384E+02 2.934E+03 2.937E+03 6.529E+05 24.3394 1.00000
  3.000E+08 3.000E+08 2.895E+00 1.396E+03 1.960E+03 1.695E+02 3.525E+03 3.528E+03 6.685E+05 24.7041 1.00000
  3.500E+08 3.500E+08 2.913E+00 1.629E+03 2.287E+03 2.012E+02 4.117E+03 4.120E+03 6.816E+05 25.0124 1.00000
  4.000E+08 4.000E+08 2.929E+00 1.862E+03 2.614E+03 2.335E+02 4.709E+03 4.712E+03 6.930E+05 25.2794 1.00000
  4.500E+08 4.500E+08 2.943E+00 2.095E+03 2.941E+03 2.662E+02 5.302E+03 5.305E+03 7.030E+05 25.5150 1.00000
  5.000E+08 5.000E+08 2.956E+00 2.328E+03 3.268E+03 2.994E+02 5.895E+03 5.898E+03 7.120E+05 25.7257 1.00000
  5.500E+08 5.500E+08 2.968E+00 2.561E+03 3.595E+03 3.330E+02 6.489E+03 6.492E+03 7.200E+05 25.9163 1.00000
  6.000E+08 6.000E+08 2.978E+00 2.794E+03 3.921E+03 3.669E+02 7.083E+03 7.086E+03 7.274E+05 26.0904 1.00000
  7.000E+08 7.000E+08 2.997E+00 3.261E+03 4.575E+03 4.357E+02 8.272E+03 8.275E+03 7.405E+05 26.3987 1.00000
  8.000E+08 8.000E+08 3.014E+00 3.727E+03 5.229E+03 5.057E+02 9.462E+03 9.465E+03 7.518E+05 26.6657 1.00000
  9.000E+08 9.000E+08 3.029E+00 4.193E+03 5.883E+03 5.768E+02 1.065E+04 1.066E+04 7.618E+05 26.9013 1.00000
  1.000E+09 1.000E+09 3.042E+00 4.659E+03 6.537E+03 6.487E+02 1.184E+04 1.185E+04 7.707E+05 27.1120 1.00000
