 Incident particle is a Muon with M = 105.65839 MeV
 Index = 0: NitrogenGas
      Absorber with <Z/A> = 0.49974
 Sternheimer coef:  a     k=m_s   x_0    x_1    I[eV]   Cbar  delta0
                 0.1535  3.2125  1.7378  4.1323   82.0 10.5400 0.00

 *** Table generated with PUMAS v1.00 ***

      T         p     Ionization  brems     pair     photonuc  Radloss    dE/dx   CSDA Range  delta   beta
    [MeV]    [MeV/c]  -----------------------[MeV cm^2/g]------------------------  [g/cm^2]
  1.000E+00 1.457E+01 4.477E+01 7.534E-07 0.000E+00 0.000E+00 7.534E-07 4.477E+01 1.117E-02  0.0000 0.13661
  1.200E+00 1.597E+01 3.865E+01 8.638E-07 0.000E+00 0.000E+00 8.638E-07 3.865E+01 1.599E-02  0.0000 0.14944
  1.400E+00 1.726E+01 3.411E+01 9.692E-07 0.000E+00 0.000E+00 9.692E-07 3.411E+01 2.151E-02  0.0000 0.16119
  1.700E+00 1.903E+01 2.914E+01 1.120E-06 0.000E+00 0.000E+00 1.120E-06 2.914E+01 3.105E-02  0.0000 0.17725
  2.000E+00 2.066E+01 2.553E+01 1.262E-06 0.000E+00 0.000E+00 1.262E-06 2.553E+01 4.208E-02  0.0000 0.19186
  2.500E+00 2.312E+01 2.130E+01 1.486E-06 0.000E+00 0.000E+00 1.486E-06 2.130E+01 6.361E-02  0.0000 0.21376
  3.000E+00 2.536E+01 1.836E+01 1.695E-06 0.000E+00 0.000E+00 1.695E-06 1.836E+01 8.896E-02  0.0000 0.23336
  3.500E+00 2.742E+01 1.621E+01 1.892E-06 0.000E+00 0.000E+00 1.892E-06 1.621E+01 1.180E-01  0.0000 0.25120
  4.000E+00 2.935E+01 1.455E+01 2.080E-06 0.000E+00 0.000E+00 2.080E-06 1.455E+01 1.506E-01  0.0000 0.26763
  4.500E+00 3.116E+01 1.324E+01 2.259E-06 0.000E+00 0.000E+00 2.259E-06 1.324E+01 1.867E-01  0.0000 0.28290
  5.000E+00 3.289E+01 1.217E+01 2.431E-06 0.000E+00 0.000E+00 2.431E-06 1.217E+01 2.261E-01  0.0000 0.29720
  5.500E+00 3.453E+01 1.128E+01 2.596E-06 0.000E+00 0.000E+00 2.596E-06 1.128E+01 2.688E-01  0.0000 0.31066
  6.000E+00 3.611E+01 1.053E+01 2.755E-06 0.000E+00 0.000E+00 2.755E-06 1.053E+01 3.147E-01  0.0000 0.32339
  7.000E+00 3.909E+01 9.325E+00 3.059E-06 0.000E+00 0.000E+00 3.059E-06 9.325E+00 4.159E-01  0.0000 0.34700
  8.000E+00 4.189E+01 8.405E+00 3.345E-06 0.000E+00 0.000E+00 3.345E-06 8.405E+00 5.290E-01  0.0000 0.36854
  9.000E+00 4.453E+01 7.678E+00 3.617E-06 0.000E+00 0.000E+00 3.617E-06 7.678E+00 6.536E-01  0.0000 0.38836
  1.000E+01 4.704E+01 7.088E+00 3.876E-06 0.000E+00 0.000E+00 3.876E-06 7.088E+00 7.892E-01  0.0000 0.40675
  1.200E+01 5.177E+01 6.187E+00 4.363E-06 0.000E+00 0.000E+00 4.363E-06 6.187E+00 1.092E+00  0.0000 0.43998
  1.400E+01 5.616E+01 5.531E+00 4.817E-06 0.000E+00 0.000E+00 4.817E-06 5.531E+00 1.434E+00  0.0000 0.46937
  1.700E+01 6.230E+01 4.824E+00 5.451E-06 0.000E+00 0.000E+00 5.451E-06 4.824E+00 2.016E+00  0.0000 0.50792
  2.000E+01 6.802E+01 4.322E+00 6.042E-06 0.000E+00 0.000E+00 6.042E-06 4.322E+00 2.674E+00  0.0000 0.54129
  2.500E+01 7.686E+01 3.744E+00 6.959E-06 0.000E+00 0.000E+00 6.959E-06 3.744E+00 3.921E+00  0.0000 0.58827
  3.000E+01 8.509E+01 3.354E+00 7.819E-06 0.000E+00 0.000E+00 7.819E-06 3.354E+00 5.334E+00  0.0000 0.62720
  3.500E+01 9.285E+01 3.075E+00 8.640E-06 0.000E+00 0.000E+00 8.640E-06 3.075E+00 6.892E+00  0.0000 0.66011
  4.000E+01 1.003E+02 2.865E+00 9.437E-06 0.000E+00 0.000E+00 9.437E-06 2.865E+00 8.578E+00  0.0000 0.68834
  4.500E+01 1.074E+02 2.702E+00 1.022E-05 0.000E+00 0.000E+00 1.022E-05 2.702E+00 1.038E+01  0.0000 0.71286
  5.000E+01 1.143E+02 2.573E+00 1.099E-05 0.000E+00 0.000E+00 1.099E-05 2.573E+00 1.227E+01  0.0000 0.73434
  5.500E+01 1.210E+02 2.468E+00 1.175E-05 0.000E+00 0.000E+00 1.175E-05 2.468E+00 1.426E+01  0.0000 0.75332
  6.000E+01 1.276E+02 2.382E+00 1.251E-05 0.000E+00 0.000E+00 1.251E-05 2.382E+00 1.632E+01  0.0000 0.77019
  7.000E+01 1.403E+02 2.249E+00 1.403E-05 0.000E+00 0.000E+00 1.403E-05 2.249E+00 2.064E+01  0.0000 0.79887
  8.000E+01 1.527E+02 2.152E+00 1.556E-05 0.000E+00 0.000E+00 1.556E-05 2.152E+00 2.519E+01  0.0000 0.82227
  9.000E+01 1.647E+02 2.080E+00 1.711E-05 0.000E+00 0.000E+00 1.711E-05 2.080E+00 2.991E+01  0.0000 0.84166
  1.000E+02 1.764E+02 2.025E+00 1.868E-05 0.000E+00 0.000E+00 1.868E-05 2.025E+00 3.479E+01  0.0000 0.85794
  1.200E+02 1.994E+02 1.948E+00 2.191E-05 0.000E+00 0.000E+00 2.191E-05 1.948E+00 4.486E+01  0.0000 0.88361
  1.400E+02 2.218E+02 1.900E+00 2.524E-05 0.000E+00 0.000E+00 2.524E-05 1.900E+00 5.526E+01  0.0000 0.90278
  1.700E+02 2.546E+02 1.858E+00 3.046E-05 4.484E-14 0.000E+00 3.046E-05 1.858E+00 7.123E+01  0.0000 0.92363
  2.000E+02 2.868E+02 1.836E+00 3.594E-05 1.002E-11 0.000E+00 3.594E-05 1.837E+00 8.747E+01  0.0000 0.93835
  2.500E+02 3.396E+02 1.825E+00 4.559E-05 8.258E-08 0.000E+00 4.568E-05 1.825E+00 1.148E+02  0.0000 0.95485
  3.000E+02 3.917E+02 1.828E+00 5.587E-05 7.320E-07 0.000E+00 5.660E-05 1.829E+00 1.422E+02  0.0000 0.96548
  3.500E+02 4.432E+02 1.839E+00 6.671E-05 2.013E-06 0.000E+00 6.872E-05 1.839E+00 1.694E+02  0.0000 0.97274
  4.000E+02 4.945E+02 1.853E+00 7.806E-05 3.896E-06 0.000E+00 8.196E-05 1.853E+00 1.965E+02  0.0000 0.97793
  4.500E+02 5.455E+02 1.868E+00 8.989E-05 6.360E-06 0.000E+00 9.625E-05 1.868E+00 2.234E+02  0.0000 0.98176
  5.000E+02 5.964E+02 1.885E+00 1.022E-04 9.383E-06 0.000E+00 1.115E-04 1.885E+00 2.500E+02  0.0000 0.98467
  5.500E+02 6.471E+02 1.901E+00 1.148E-04 1.295E-05 0.000E+00 1.278E-04 1.901E+00 2.764E+02  0.0000 0.98693
  6.000E+02 6.977E+02 1.917E+00 1.279E-04 1.703E-05 0.000E+00 1.449E-04 1.917E+00 3.026E+02  0.0000 0.98873
  7.000E+02 7.987E+02 1.948E+00 1.551E-04 2.670E-05 0.000E+00 1.818E-04 1.948E+00 3.544E+02  0.0000 0.99136
  8.000E+02 8.995E+02 1.977E+00 1.836E-04 3.825E-05 0.000E+00 2.219E-04 1.977E+00 4.053E+02  0.0000 0.99317
  9.000E+02 1.000E+03 2.004E+00 2.133E-04 5.157E-05 0.000E+00 2.649E-04 2.004E+00 4.556E+02  0.0000 0.99447
  1.000E+03 1.101E+03 2.029E+00 2.440E-04 6.655E-05 0.000E+00 3.106E-04 2.029E+00 5.052E+02  0.0000 0.99542
  1.200E+03 1.301E+03 2.074E+00 3.084E-04 1.011E-04 2.255E-05 4.320E-04 2.075E+00 6.026E+02  0.0000 0.99672
  1.400E+03 1.502E+03 2.114E+00 3.762E-04 1.413E-04 6.174E-05 5.792E-04 2.115E+00 6.981E+02  0.0000 0.99753
  1.700E+03 1.803E+03 2.166E+00 4.833E-04 2.108E-04 1.324E-04 8.266E-04 2.167E+00 8.383E+02  0.0000 0.99829
  2.000E+03 2.103E+03 2.211E+00 5.963E-04 2.903E-04 2.158E-04 1.102E-03 2.212E+00 9.753E+02  0.0000 0.99874
  2.500E+03 2.604E+03 2.273E+00 7.953E-04 4.420E-04 3.773E-04 1.615E-03 2.274E+00 1.198E+03  0.0000 0.99918
  3.000E+03 3.104E+03 2.324E+00 1.006E-03 6.142E-04 5.472E-04 2.167E-03 2.326E+00 1.416E+03  0.0000 0.99942
  3.500E+03 3.604E+03 2.367E+00 1.226E-03 8.041E-04 7.276E-04 2.758E-03 2.370E+00 1.629E+03  0.0000 0.99957
  4.000E+03 4.104E+03 2.405E+00 1.455E-03 1.023E-03 9.206E-04 3.399E-03 2.409E+00 1.838E+03  0.0000 0.99967
  4.500E+03 4.604E+03 2.439E+00 1.692E-03 1.263E-03 1.122E-03 4.076E-03 2.443E+00 2.044E+03  0.0000 0.99974
  5.000E+03 5.105E+03 2.469E+00 1.935E-03 1.517E-03 1.315E-03 4.766E-03 2.474E+00 2.247E+03  0.0000 0.99979
  5.500E+03 5.605E+03 2.496E+00 2.184E-03 1.783E-03 1.524E-03 5.491E-03 2.501E+00 2.448E+03  0.0000 0.99982
  6.000E+03 6.105E+03 2.518E+00 2.439E-03 2.062E-03 1.718E-03 6.219E-03 2.525E+00 2.647E+03  0.0296 0.99985
  7.000E+03 7.105E+03 2.555E+00 2.965E-03 2.651E-03 2.131E-03 7.747E-03 2.563E+00 3.041E+03  0.1204 0.99989
  8.000E+03 8.105E+03 2.586E+00 3.508E-03 3.279E-03 2.541E-03 9.329E-03 2.595E+00 3.428E+03  0.2098 0.99992
  9.000E+03 9.105E+03 2.613E+00 4.068E-03 3.941E-03 2.928E-03 1.094E-02 2.624E+00 3.812E+03  0.2967 0.99993
  1.000E+04 1.011E+04 2.636E+00 4.641E-03 4.633E-03 3.327E-03 1.260E-02 2.648E+00 4.191E+03  0.3806 0.99995
  1.200E+04 1.211E+04 2.675E+00 5.826E-03 6.095E-03 4.138E-03 1.606E-02 2.691E+00 4.940E+03  0.5395 0.99996
  1.400E+04 1.411E+04 2.706E+00 7.054E-03 7.648E-03 4.952E-03 1.965E-02 2.726E+00 5.679E+03  0.6867 0.99997
  1.700E+04 1.711E+04 2.744E+00 8.964E-03 1.012E-02 6.160E-03 2.524E-02 2.770E+00 6.771E+03  0.8883 0.99998
  2.000E+04 2.011E+04 2.775E+00 1.094E-02 1.273E-02 7.347E-03 3.102E-02 2.806E+00 7.847E+03  1.0703 0.99999
  2.500E+04 2.511E+04 2.815E+00 1.437E-02 1.735E-02 9.301E-03 4.102E-02 2.856E+00 9.613E+03  1.3388 0.99999
  3.000E+04 3.011E+04 2.846E+00 1.792E-02 2.222E-02 1.122E-02 5.137E-02 2.897E+00 1.135E+04  1.5734 0.99999
  3.500E+04 3.511E+04 2.871E+00 2.158E-02 2.731E-02 1.317E-02 6.206E-02 2.933E+00 1.307E+04  1.7818 1.00000
  4.000E+04 4.011E+04 2.892E+00 2.533E-02 3.257E-02 1.509E-02 7.300E-02 2.965E+00 1.476E+04  1.9694 1.00000
  4.500E+04 4.511E+04 2.910E+00 2.916E-02 3.799E-02 1.699E-02 8.414E-02 2.995E+00 1.644E+04  2.1402 1.00000
  5.000E+04 5.011E+04 2.926E+00 3.306E-02 4.353E-02 1.890E-02 9.549E-02 3.022E+00 1.810E+04  2.2969 1.00000
  5.500E+04 5.511E+04 2.940E+00 3.702E-02 4.920E-02 2.082E-02 1.070E-01 3.047E+00 1.975E+04  2.4418 1.00000
  6.000E+04 6.011E+04 2.953E+00 4.104E-02 5.496E-02 2.272E-02 1.187E-01 3.071E+00 2.138E+04  2.5766 1.00000
  7.000E+04 7.011E+04 2.974E+00 4.922E-02 6.676E-02 2.649E-02 1.425E-01 3.116E+00 2.462E+04  2.8210 1.00000
  8.000E+04 8.011E+04 2.992E+00 5.758E-02 7.886E-02 3.028E-02 1.667E-01 3.159E+00 2.780E+04  3.0382 1.00000
  9.000E+04 9.011E+04 3.007E+00 6.608E-02 9.122E-02 3.407E-02 1.914E-01 3.199E+00 3.095E+04  3.2339 1.00000
  1.000E+05 1.001E+05 3.021E+00 7.471E-02 1.038E-01 3.779E-02 2.163E-01 3.237E+00 3.406E+04  3.4119 1.00000
  1.200E+05 1.201E+05 3.044E+00 9.230E-02 1.295E-01 4.538E-02 2.672E-01 3.311E+00 4.017E+04  3.7264 1.00000
  1.400E+05 1.401E+05 3.063E+00 1.103E-01 1.558E-01 5.297E-02 3.191E-01 3.382E+00 4.614E+04  3.9982 1.00000
  1.700E+05 1.701E+05 3.086E+00 1.378E-01 1.962E-01 6.438E-02 3.983E-01 3.484E+00 5.489E+04  4.3476 1.00000
  2.000E+05 2.001E+05 3.104E+00 1.658E-01 2.373E-01 7.586E-02 4.790E-01 3.583E+00 6.338E+04  4.6456 1.00000
  2.500E+05 2.501E+05 3.129E+00 2.136E-01 3.074E-01 9.506E-02 6.160E-01 3.745E+00 7.703E+04  5.0619 1.00000
  3.000E+05 3.001E+05 3.149E+00 2.623E-01 3.787E-01 1.144E-01 7.554E-01 3.905E+00 9.011E+04  5.4076 1.00000
  3.500E+05 3.501E+05 3.166E+00 3.118E-01 4.510E-01 1.340E-01 8.969E-01 4.063E+00 1.027E+05  5.7033 1.00000
  4.000E+05 4.001E+05 3.181E+00 3.619E-01 5.242E-01 1.537E-01 1.040E+00 4.220E+00 1.147E+05  5.9616 1.00000
  4.500E+05 4.501E+05 3.193E+00 4.125E-01 5.979E-01 1.736E-01 1.184E+00 4.377E+00 1.264E+05  6.1909 1.00000
  5.000E+05 5.001E+05 3.204E+00 4.637E-01 6.722E-01 1.936E-01 1.329E+00 4.534E+00 1.376E+05  6.3971 1.00000
  5.500E+05 5.501E+05 3.214E+00 5.152E-01 7.470E-01 2.134E-01 1.476E+00 4.690E+00 1.484E+05  6.5845 1.00000
  6.000E+05 6.001E+05 3.223E+00 5.670E-01 8.221E-01 2.334E-01 1.623E+00 4.846E+00 1.589E+05  6.7560 1.00000
  7.000E+05 7.001E+05 3.240E+00 6.717E-01 9.734E-01 2.737E-01 1.919E+00 5.158E+00 1.789E+05  7.0612 1.00000
  8.000E+05 8.001E+05 3.254E+00 7.773E-01 1.126E+00 3.144E-01 2.217E+00 5.471E+00 1.978E+05  7.3264 1.00000
  9.000E+05 9.001E+05 3.266E+00 8.838E-01 1.279E+00 3.556E-01 2.518E+00 5.784E+00 2.156E+05  7.5610 1.00000
  1.000E+06 1.000E+06 3.277E+00 9.910E-01 1.433E+00 3.971E-01 2.821E+00 6.098E+00 2.324E+05  7.7712 1.00000
  1.200E+06 1.200E+06 3.296E+00 1.207E+00 1.742E+00 4.811E-01 3.431E+00 6.727E+00 2.637E+05  8.1355 1.00000
  1.400E+06 1.400E+06 3.312E+00 1.425E+00 2.053E+00 5.664E-01 4.045E+00 7.358E+00 2.921E+05  8.4437 1.00000
  1.700E+06 1.700E+06 3.333E+00 1.755E+00 2.523E+00 6.963E-01 4.974E+00 8.307E+00 3.306E+05  8.8320 1.00000
  2.000E+06 2.000E+06 3.350E+00 2.088E+00 2.994E+00 8.283E-01 5.910E+00 9.261E+00 3.648E+05  9.1570 1.00000
  2.500E+06 2.500E+06 3.374E+00 2.647E+00 3.783E+00 1.052E+00 7.482E+00 1.086E+01 4.148E+05  9.6033 1.00000
  3.000E+06 3.000E+06 3.394E+00 3.210E+00 4.575E+00 1.281E+00 9.066E+00 1.246E+01 4.579E+05  9.9679 1.00000
  3.500E+06 3.500E+06 3.411E+00 3.776E+00 5.370E+00 1.513E+00 1.066E+01 1.407E+01 4.958E+05 10.2762 1.00000
  4.000E+06 4.000E+06 3.426E+00 4.344E+00 6.166E+00 1.748E+00 1.226E+01 1.568E+01 5.295E+05 10.5432 1.00000
  4.500E+06 4.500E+06 3.439E+00 4.915E+00 6.963E+00 1.987E+00 1.386E+01 1.730E+01 5.599E+05 10.7788 1.00000
  5.000E+06 5.000E+06 3.450E+00 5.487E+00 7.762E+00 2.228E+00 1.548E+01 1.893E+01 5.875E+05 10.9895 1.00000
  5.500E+06 5.500E+06 3.461E+00 6.060E+00 8.561E+00 2.471E+00 1.709E+01 2.055E+01 6.129E+05 11.1801 1.00000
  6.000E+06 6.000E+06 3.471E+00 6.635E+00 9.361E+00 2.717E+00 1.871E+01 2.218E+01 6.363E+05 11.3542 1.00000
  7.000E+06 7.000E+06 3.488E+00 7.788E+00 1.096E+01 3.215E+00 2.197E+01 2.545E+01 6.785E+05 11.6624 1.00000
  8.000E+06 8.000E+06 3.503E+00 8.943E+00 1.257E+01 3.720E+00 2.523E+01 2.873E+01 7.156E+05 11.9295 1.00000
  9.000E+06 9.000E+06 3.517E+00 1.010E+01 1.417E+01 4.232E+00 2.851E+01 3.202E+01 7.486E+05 12.1651 1.00000
  1.000E+07 1.000E+07 3.529E+00 1.126E+01 1.578E+01 4.750E+00 3.179E+01 3.532E+01 7.783E+05 12.3758 1.00000
  1.200E+07 1.200E+07 3.550E+00 1.359E+01 1.899E+01 5.802E+00 3.838E+01 4.193E+01 8.305E+05 12.7404 1.00000
  1.400E+07 1.400E+07 3.568E+00 1.592E+01 2.221E+01 6.873E+00 4.500E+01 4.857E+01 8.749E+05 13.0487 1.00000
  1.700E+07 1.700E+07 3.590E+00 1.942E+01 2.705E+01 8.510E+00 5.498E+01 5.857E+01 9.314E+05 13.4370 1.00000
  2.000E+07 2.000E+07 3.610E+00 2.293E+01 3.188E+01 1.018E+01 6.499E+01 6.860E+01 9.789E+05 13.7621 1.00000
  2.500E+07 2.500E+07 3.636E+00 2.879E+01 3.994E+01 1.302E+01 8.175E+01 8.539E+01 1.045E+06 14.2084 1.00000
  3.000E+07 3.000E+07 3.658E+00 3.466E+01 4.801E+01 1.592E+01 9.859E+01 1.023E+02 1.098E+06 14.5730 1.00000
  3.500E+07 3.500E+07 3.677E+00 4.054E+01 5.608E+01 1.888E+01 1.155E+02 1.192E+02 1.144E+06 14.8813 1.00000
  4.000E+07 4.000E+07 3.693E+00 4.642E+01 6.415E+01 2.188E+01 1.325E+02 1.361E+02 1.183E+06 15.1484 1.00000
  4.500E+07 4.500E+07 3.707E+00 5.230E+01 7.223E+01 2.492E+01 1.495E+02 1.532E+02 1.218E+06 15.3839 1.00000
  5.000E+07 5.000E+07 3.720E+00 5.819E+01 8.030E+01 2.801E+01 1.665E+02 1.702E+02 1.249E+06 15.5946 1.00000
  5.500E+07 5.500E+07 3.732E+00 6.408E+01 8.838E+01 3.112E+01 1.836E+02 1.873E+02 1.277E+06 15.7853 1.00000
  6.000E+07 6.000E+07 3.743E+00 6.998E+01 9.646E+01 3.427E+01 2.007E+02 2.044E+02 1.302E+06 15.9593 1.00000
  7.000E+07 7.000E+07 3.762E+00 8.177E+01 1.126E+02 4.066E+01 2.350E+02 2.388E+02 1.348E+06 16.2676 1.00000
  8.000E+07 8.000E+07 3.779E+00 9.356E+01 1.288E+02 4.714E+01 2.695E+02 2.733E+02 1.387E+06 16.5347 1.00000
  9.000E+07 9.000E+07 3.794E+00 1.054E+02 1.449E+02 5.372E+01 3.040E+02 3.078E+02 1.422E+06 16.7702 1.00000
  1.000E+08 1.000E+08 3.808E+00 1.172E+02 1.611E+02 6.039E+01 3.387E+02 3.425E+02 1.452E+06 16.9809 1.00000
  1.200E+08 1.200E+08 3.831E+00 1.408E+02 1.934E+02 7.393E+01 4.081E+02 4.120E+02 1.506E+06 17.3456 1.00000
  1.400E+08 1.400E+08 3.851E+00 1.644E+02 2.258E+02 8.774E+01 4.779E+02 4.818E+02 1.551E+06 17.6539 1.00000
  1.700E+08 1.700E+08 3.876E+00 1.999E+02 2.743E+02 1.089E+02 5.830E+02 5.868E+02 1.608E+06 18.0422 1.00000
  2.000E+08 2.000E+08 3.898E+00 2.353E+02 3.228E+02 1.304E+02 6.885E+02 6.924E+02 1.655E+06 18.3672 1.00000
  2.500E+08 2.500E+08 3.927E+00 2.944E+02 4.036E+02 1.672E+02 8.652E+02 8.691E+02 1.720E+06 18.8135 1.00000
  3.000E+08 3.000E+08 3.952E+00 3.535E+02 4.844E+02 2.048E+02 1.043E+03 1.047E+03 1.772E+06 19.1782 1.00000
  3.500E+08 3.500E+08 3.972E+00 4.127E+02 5.653E+02 2.431E+02 1.221E+03 1.225E+03 1.817E+06 19.4865 1.00000
  4.000E+08 4.000E+08 3.991E+00 4.718E+02 6.461E+02 2.821E+02 1.400E+03 1.404E+03 1.855E+06 19.7535 1.00000
  4.500E+08 4.500E+08 4.007E+00 5.309E+02 7.270E+02 3.217E+02 1.580E+03 1.584E+03 1.888E+06 19.9891 1.00000
  5.000E+08 5.000E+08 4.021E+00 5.901E+02 8.078E+02 3.618E+02 1.760E+03 1.764E+03 1.918E+06 20.1998 1.00000
  5.500E+08 5.500E+08 4.034E+00 6.492E+02 8.886E+02 4.023E+02 1.940E+03 1.944E+03 1.945E+06 20.3904 1.00000
  6.000E+08 6.000E+08 4.046E+00 7.084E+02 9.695E+02 4.433E+02 2.121E+03 2.125E+03 1.970E+06 20.5645 1.00000
  7.000E+08 7.000E+08 4.068E+00 8.267E+02 1.131E+03 5.265E+02 2.484E+03 2.488E+03 2.014E+06 20.8728 1.00000
  8.000E+08 8.000E+08 4.087E+00 9.450E+02 1.293E+03 6.110E+02 2.849E+03 2.853E+03 2.051E+06 21.1398 1.00000
  9.000E+08 9.000E+08 4.103E+00 1.063E+03 1.455E+03 6.969E+02 3.215E+03 3.219E+03 2.084E+06 21.3754 1.00000
  1.000E+09 1.000E+09 4.118E+00 1.182E+03 1.616E+03 7.839E+02 3.582E+03 3.586E+03 2.114E+06 21.5861 1.00000
