 Incident particle is a Muon with M = 105.65839 MeV
 Index = 0: Nitrobenzene
      Absorber with <Z/A> = 0.51983
 Sternheimer coef:  a     k=m_s   x_0    x_1    I[eV]   Cbar  delta0
                 0.1273  3.3091  0.1777  2.6630   75.8  3.4073 0.00

 *** Table generated with PUMAS v1.00 ***

      T         p     Ionization  brems     pair     photonuc  Radloss    dE/dx   CSDA Range  delta   beta
    [MeV]    [MeV/c]  -----------------------[MeV cm^2/g]------------------------  [g/cm^2]
  1.000E+00 1.457E+01 4.724E+01 7.041E-07 0.000E+00 0.000E+00 7.041E-07 4.724E+01 1.058E-02  0.0000 0.13661
  1.200E+00 1.597E+01 4.076E+01 8.067E-07 0.000E+00 0.000E+00 8.067E-07 4.076E+01 1.515E-02  0.0000 0.14944
  1.400E+00 1.726E+01 3.597E+01 9.047E-07 0.000E+00 0.000E+00 9.047E-07 3.597E+01 2.039E-02  0.0000 0.16119
  1.700E+00 1.903E+01 3.071E+01 1.044E-06 0.000E+00 0.000E+00 1.044E-06 3.071E+01 2.944E-02  0.0000 0.17725
  2.000E+00 2.066E+01 2.690E+01 1.177E-06 0.000E+00 0.000E+00 1.177E-06 2.690E+01 3.990E-02  0.0000 0.19186
  2.500E+00 2.312E+01 2.243E+01 1.385E-06 0.000E+00 0.000E+00 1.385E-06 2.243E+01 6.035E-02  0.0000 0.21376
  3.000E+00 2.536E+01 1.933E+01 1.580E-06 0.000E+00 0.000E+00 1.580E-06 1.933E+01 8.442E-02  0.0000 0.23336
  3.500E+00 2.742E+01 1.706E+01 1.764E-06 0.000E+00 0.000E+00 1.764E-06 1.706E+01 1.120E-01  0.0000 0.25120
  4.000E+00 2.935E+01 1.531E+01 1.938E-06 0.000E+00 0.000E+00 1.938E-06 1.531E+01 1.430E-01  0.0000 0.26763
  4.500E+00 3.116E+01 1.393E+01 2.105E-06 0.000E+00 0.000E+00 2.105E-06 1.393E+01 1.773E-01  0.0000 0.28290
  5.000E+00 3.289E+01 1.280E+01 2.265E-06 0.000E+00 0.000E+00 2.265E-06 1.280E+01 2.148E-01  0.0000 0.29720
  5.500E+00 3.453E+01 1.186E+01 2.419E-06 0.000E+00 0.000E+00 2.419E-06 1.186E+01 2.554E-01  0.0000 0.31066
  6.000E+00 3.611E+01 1.107E+01 2.568E-06 0.000E+00 0.000E+00 2.568E-06 1.107E+01 2.990E-01  0.0000 0.32339
  7.000E+00 3.909E+01 9.804E+00 2.851E-06 0.000E+00 0.000E+00 2.851E-06 9.804E+00 3.952E-01  0.0000 0.34700
  8.000E+00 4.189E+01 8.835E+00 3.117E-06 0.000E+00 0.000E+00 3.117E-06 8.836E+00 5.028E-01  0.0000 0.36854
  9.000E+00 4.453E+01 8.070E+00 3.371E-06 0.000E+00 0.000E+00 3.371E-06 8.070E+00 6.213E-01  0.0000 0.38836
  1.000E+01 4.704E+01 7.449E+00 3.613E-06 0.000E+00 0.000E+00 3.613E-06 7.449E+00 7.504E-01  0.0000 0.40675
  1.200E+01 5.177E+01 6.501E+00 4.067E-06 0.000E+00 0.000E+00 4.067E-06 6.501E+00 1.039E+00  0.0000 0.43998
  1.400E+01 5.616E+01 5.811E+00 4.491E-06 0.000E+00 0.000E+00 4.491E-06 5.811E+00 1.364E+00  0.0000 0.46937
  1.700E+01 6.230E+01 5.067E+00 5.083E-06 0.000E+00 0.000E+00 5.083E-06 5.067E+00 1.919E+00  0.0000 0.50792
  2.000E+01 6.802E+01 4.538E+00 5.635E-06 0.000E+00 0.000E+00 5.635E-06 4.538E+00 2.545E+00  0.0000 0.54129
  2.500E+01 7.686E+01 3.930E+00 6.493E-06 0.000E+00 0.000E+00 6.493E-06 3.930E+00 3.732E+00  0.0000 0.58827
  3.000E+01 8.509E+01 3.521E+00 7.296E-06 0.000E+00 0.000E+00 7.296E-06 3.521E+00 5.078E+00  0.0000 0.62720
  3.500E+01 9.285E+01 3.227E+00 8.064E-06 0.000E+00 0.000E+00 8.064E-06 3.227E+00 6.563E+00  0.0000 0.66011
  4.000E+01 1.003E+02 3.006E+00 8.808E-06 0.000E+00 0.000E+00 8.808E-06 3.007E+00 8.169E+00  0.0000 0.68834
  4.500E+01 1.074E+02 2.836E+00 9.537E-06 0.000E+00 0.000E+00 9.537E-06 2.836E+00 9.883E+00  0.0000 0.71286
  5.000E+01 1.143E+02 2.700E+00 1.026E-05 0.000E+00 0.000E+00 1.026E-05 2.700E+00 1.169E+01  0.0000 0.73434
  5.500E+01 1.210E+02 2.590E+00 1.097E-05 0.000E+00 0.000E+00 1.097E-05 2.590E+00 1.358E+01  0.0000 0.75332
  6.000E+01 1.276E+02 2.499E+00 1.168E-05 0.000E+00 0.000E+00 1.168E-05 2.499E+00 1.555E+01  0.0000 0.77019
  7.000E+01 1.403E+02 2.359E+00 1.310E-05 0.000E+00 0.000E+00 1.310E-05 2.359E+00 1.967E+01  0.0000 0.79887
  8.000E+01 1.527E+02 2.257E+00 1.453E-05 0.000E+00 0.000E+00 1.453E-05 2.257E+00 2.400E+01  0.0000 0.82227
  9.000E+01 1.647E+02 2.179E+00 1.598E-05 0.000E+00 0.000E+00 1.598E-05 2.179E+00 2.851E+01  0.0181 0.84166
  1.000E+02 1.764E+02 2.117E+00 1.745E-05 0.000E+00 0.000E+00 1.745E-05 2.117E+00 3.317E+01  0.0556 0.85794
  1.200E+02 1.994E+02 2.029E+00 2.046E-05 0.000E+00 0.000E+00 2.046E-05 2.029E+00 4.282E+01  0.1290 0.88361
  1.400E+02 2.218E+02 1.972E+00 2.357E-05 0.000E+00 0.000E+00 2.357E-05 1.972E+00 5.282E+01  0.1999 0.90278
  1.700E+02 2.546E+02 1.919E+00 2.845E-05 4.173E-14 0.000E+00 2.845E-05 1.919E+00 6.824E+01  0.3012 0.92363
  2.000E+02 2.868E+02 1.889E+00 3.355E-05 9.323E-12 0.000E+00 3.355E-05 1.889E+00 8.400E+01  0.3969 0.93835
  2.500E+02 3.396E+02 1.864E+00 4.257E-05 7.683E-08 0.000E+00 4.264E-05 1.864E+00 1.106E+02  0.5454 0.95485
  3.000E+02 3.917E+02 1.857E+00 5.215E-05 6.786E-07 0.000E+00 5.283E-05 1.857E+00 1.375E+02  0.6819 0.96548
  3.500E+02 4.432E+02 1.858E+00 6.227E-05 1.864E-06 0.000E+00 6.413E-05 1.858E+00 1.644E+02  0.8083 0.97274
  4.000E+02 4.945E+02 1.863E+00 7.286E-05 3.607E-06 0.000E+00 7.647E-05 1.863E+00 1.913E+02  0.9260 0.97793
  4.500E+02 5.455E+02 1.871E+00 8.390E-05 5.886E-06 0.000E+00 8.978E-05 1.871E+00 2.181E+02  1.0363 0.98176
  5.000E+02 5.964E+02 1.879E+00 9.535E-05 8.683E-06 0.000E+00 1.040E-04 1.879E+00 2.448E+02  1.1400 0.98467
  5.500E+02 6.471E+02 1.889E+00 1.072E-04 1.198E-05 0.000E+00 1.192E-04 1.889E+00 2.713E+02  1.2380 0.98693
  6.000E+02 6.977E+02 1.898E+00 1.194E-04 1.576E-05 0.000E+00 1.351E-04 1.898E+00 2.977E+02  1.3309 0.98873
  7.000E+02 7.987E+02 1.917E+00 1.447E-04 2.470E-05 0.000E+00 1.694E-04 1.917E+00 3.501E+02  1.5035 0.99136
  8.000E+02 8.995E+02 1.934E+00 1.713E-04 3.538E-05 0.000E+00 2.067E-04 1.935E+00 4.021E+02  1.6611 0.99317
  9.000E+02 1.000E+03 1.951E+00 1.990E-04 4.769E-05 0.000E+00 2.467E-04 1.951E+00 4.535E+02  1.8062 0.99447
  1.000E+03 1.101E+03 1.967E+00 2.277E-04 6.154E-05 0.000E+00 2.892E-04 1.967E+00 5.046E+02  1.9408 0.99542
  1.200E+03 1.301E+03 1.995E+00 2.877E-04 9.349E-05 2.256E-05 4.038E-04 1.995E+00 6.055E+02  2.1840 0.99672
  1.400E+03 1.502E+03 2.020E+00 3.509E-04 1.306E-04 6.180E-05 5.434E-04 2.020E+00 7.051E+02  2.3994 0.99753
  1.700E+03 1.803E+03 2.051E+00 4.510E-04 1.949E-04 1.326E-04 7.785E-04 2.052E+00 8.525E+02  2.6830 0.99829
  2.000E+03 2.103E+03 2.078E+00 5.564E-04 2.685E-04 2.163E-04 1.041E-03 2.079E+00 9.978E+02  2.9302 0.99874
  2.500E+03 2.604E+03 2.114E+00 7.422E-04 4.086E-04 3.786E-04 1.529E-03 2.115E+00 1.236E+03  3.2833 0.99918
  3.000E+03 3.104E+03 2.143E+00 9.388E-04 5.678E-04 5.496E-04 2.056E-03 2.146E+00 1.471E+03  3.5826 0.99942
  3.500E+03 3.604E+03 2.168E+00 1.145E-03 7.434E-04 7.313E-04 2.619E-03 2.171E+00 1.703E+03  3.8427 0.99957
  4.000E+03 4.104E+03 2.189E+00 1.358E-03 9.479E-04 9.258E-04 3.232E-03 2.192E+00 1.932E+03  4.0729 0.99967
  4.500E+03 4.604E+03 2.208E+00 1.579E-03 1.172E-03 1.128E-03 3.879E-03 2.212E+00 2.159E+03  4.2794 0.99974
  5.000E+03 5.105E+03 2.224E+00 1.807E-03 1.409E-03 1.324E-03 4.539E-03 2.228E+00 2.384E+03  4.4667 0.99979
  5.500E+03 5.605E+03 2.238E+00 2.040E-03 1.658E-03 1.534E-03 5.232E-03 2.244E+00 2.608E+03  4.6381 0.99982
  6.000E+03 6.105E+03 2.252E+00 2.278E-03 1.919E-03 1.731E-03 5.927E-03 2.258E+00 2.830E+03  4.7962 0.99985
  7.000E+03 7.105E+03 2.274E+00 2.770E-03 2.470E-03 2.147E-03 7.387E-03 2.282E+00 3.270E+03  5.0795 0.99989
  8.000E+03 8.105E+03 2.294E+00 3.278E-03 3.058E-03 2.562E-03 8.898E-03 2.303E+00 3.707E+03  5.3283 0.99992
  9.000E+03 9.105E+03 2.311E+00 3.801E-03 3.678E-03 2.953E-03 1.043E-02 2.321E+00 4.139E+03  5.5499 0.99993
  1.000E+04 1.011E+04 2.326E+00 4.338E-03 4.325E-03 3.357E-03 1.202E-02 2.338E+00 4.569E+03  5.7498 0.99995
  1.200E+04 1.211E+04 2.351E+00 5.447E-03 5.696E-03 4.177E-03 1.532E-02 2.366E+00 5.419E+03  6.0991 0.99996
  1.400E+04 1.411E+04 2.372E+00 6.598E-03 7.152E-03 5.001E-03 1.875E-02 2.390E+00 6.260E+03  6.3972 0.99997
  1.700E+04 1.711E+04 2.397E+00 8.387E-03 9.469E-03 6.224E-03 2.408E-02 2.421E+00 7.507E+03  6.7759 0.99998
  2.000E+04 2.011E+04 2.418E+00 1.024E-02 1.192E-02 7.427E-03 2.959E-02 2.448E+00 8.739E+03  7.0951 0.99999
  2.500E+04 2.511E+04 2.446E+00 1.345E-02 1.625E-02 9.407E-03 3.911E-02 2.485E+00 1.077E+04  7.5360 0.99999
  3.000E+04 3.011E+04 2.468E+00 1.679E-02 2.083E-02 1.136E-02 4.897E-02 2.517E+00 1.277E+04  7.8979 0.99999
  3.500E+04 3.511E+04 2.487E+00 2.022E-02 2.560E-02 1.333E-02 5.915E-02 2.546E+00 1.474E+04  8.2047 1.00000
  4.000E+04 4.011E+04 2.502E+00 2.375E-02 3.055E-02 1.528E-02 6.958E-02 2.572E+00 1.670E+04  8.4709 1.00000
  4.500E+04 4.511E+04 2.516E+00 2.734E-02 3.564E-02 1.721E-02 8.019E-02 2.596E+00 1.863E+04  8.7058 1.00000
  5.000E+04 5.011E+04 2.528E+00 3.101E-02 4.085E-02 1.914E-02 9.100E-02 2.619E+00 2.055E+04  8.9161 1.00000
  5.500E+04 5.511E+04 2.539E+00 3.473E-02 4.617E-02 2.109E-02 1.020E-01 2.641E+00 2.245E+04  9.1063 1.00000
  6.000E+04 6.011E+04 2.549E+00 3.851E-02 5.159E-02 2.302E-02 1.131E-01 2.662E+00 2.433E+04  9.2800 1.00000
  7.000E+04 7.011E+04 2.566E+00 4.620E-02 6.268E-02 2.685E-02 1.357E-01 2.702E+00 2.806E+04  9.5878 1.00000
  8.000E+04 8.011E+04 2.581E+00 5.405E-02 7.407E-02 3.070E-02 1.588E-01 2.740E+00 3.174E+04  9.8545 1.00000
  9.000E+04 9.011E+04 2.594E+00 6.205E-02 8.570E-02 3.455E-02 1.823E-01 2.776E+00 3.537E+04 10.0898 1.00000
  1.000E+05 1.001E+05 2.605E+00 7.017E-02 9.754E-02 3.834E-02 2.060E-01 2.811E+00 3.895E+04 10.3002 1.00000
  1.200E+05 1.201E+05 2.625E+00 8.672E-02 1.217E-01 4.605E-02 2.545E-01 2.879E+00 4.598E+04 10.6645 1.00000
  1.400E+05 1.401E+05 2.642E+00 1.036E-01 1.465E-01 5.376E-02 3.039E-01 2.945E+00 5.284E+04 10.9726 1.00000
  1.700E+05 1.701E+05 2.662E+00 1.295E-01 1.845E-01 6.536E-02 3.794E-01 3.042E+00 6.287E+04 11.3606 1.00000
  2.000E+05 2.001E+05 2.680E+00 1.559E-01 2.233E-01 7.703E-02 4.563E-01 3.136E+00 7.258E+04 11.6855 1.00000
  2.500E+05 2.501E+05 2.703E+00 2.009E-01 2.893E-01 9.656E-02 5.868E-01 3.290E+00 8.815E+04 12.1316 1.00000
  3.000E+05 3.001E+05 2.723E+00 2.469E-01 3.565E-01 1.163E-01 7.197E-01 3.443E+00 1.030E+05 12.4961 1.00000
  3.500E+05 3.501E+05 2.739E+00 2.935E-01 4.248E-01 1.362E-01 8.545E-01 3.594E+00 1.172E+05 12.8043 1.00000
  4.000E+05 4.001E+05 2.753E+00 3.408E-01 4.937E-01 1.563E-01 9.907E-01 3.744E+00 1.309E+05 13.0712 1.00000
  4.500E+05 4.501E+05 2.766E+00 3.885E-01 5.633E-01 1.764E-01 1.128E+00 3.894E+00 1.440E+05 13.3068 1.00000
  5.000E+05 5.001E+05 2.777E+00 4.367E-01 6.334E-01 1.968E-01 1.267E+00 4.044E+00 1.566E+05 13.5174 1.00000
  5.500E+05 5.501E+05 2.787E+00 4.853E-01 7.040E-01 2.170E-01 1.406E+00 4.194E+00 1.687E+05 13.7080 1.00000
  6.000E+05 6.001E+05 2.797E+00 5.342E-01 7.749E-01 2.373E-01 1.546E+00 4.343E+00 1.804E+05 13.8820 1.00000
  7.000E+05 7.001E+05 2.813E+00 6.330E-01 9.177E-01 2.783E-01 1.829E+00 4.642E+00 2.027E+05 14.1903 1.00000
  8.000E+05 8.001E+05 2.828E+00 7.327E-01 1.061E+00 3.197E-01 2.114E+00 4.942E+00 2.236E+05 14.4573 1.00000
  9.000E+05 9.001E+05 2.841E+00 8.332E-01 1.206E+00 3.616E-01 2.401E+00 5.242E+00 2.433E+05 14.6928 1.00000
  1.000E+06 1.000E+06 2.852E+00 9.344E-01 1.351E+00 4.038E-01 2.690E+00 5.542E+00 2.618E+05 14.9035 1.00000
  1.200E+06 1.200E+06 2.872E+00 1.139E+00 1.644E+00 4.894E-01 3.272E+00 6.144E+00 2.961E+05 15.2681 1.00000
  1.400E+06 1.400E+06 2.889E+00 1.344E+00 1.938E+00 5.761E-01 3.858E+00 6.747E+00 3.272E+05 15.5764 1.00000
  1.700E+06 1.700E+06 2.910E+00 1.656E+00 2.381E+00 7.083E-01 4.745E+00 7.656E+00 3.691E+05 15.9647 1.00000
  2.000E+06 2.000E+06 2.928E+00 1.970E+00 2.826E+00 8.427E-01 5.639E+00 8.568E+00 4.062E+05 16.2897 1.00000
  2.500E+06 2.500E+06 2.953E+00 2.498E+00 3.572E+00 1.071E+00 7.141E+00 1.009E+01 4.601E+05 16.7360 1.00000
  3.000E+06 3.000E+06 2.974E+00 3.030E+00 4.321E+00 1.303E+00 8.654E+00 1.163E+01 5.064E+05 17.1006 1.00000
  3.500E+06 3.500E+06 2.991E+00 3.565E+00 5.072E+00 1.540E+00 1.018E+01 1.317E+01 5.469E+05 17.4089 1.00000
  4.000E+06 4.000E+06 3.007E+00 4.103E+00 5.825E+00 1.779E+00 1.171E+01 1.471E+01 5.828E+05 17.6759 1.00000
  4.500E+06 4.500E+06 3.020E+00 4.642E+00 6.578E+00 2.022E+00 1.324E+01 1.626E+01 6.152E+05 17.9115 1.00000
  5.000E+06 5.000E+06 3.032E+00 5.183E+00 7.333E+00 2.267E+00 1.478E+01 1.782E+01 6.446E+05 18.1222 1.00000
  5.500E+06 5.500E+06 3.043E+00 5.725E+00 8.089E+00 2.515E+00 1.633E+01 1.937E+01 6.715E+05 18.3128 1.00000
  6.000E+06 6.000E+06 3.054E+00 6.269E+00 8.846E+00 2.765E+00 1.788E+01 2.093E+01 6.964E+05 18.4869 1.00000
  7.000E+06 7.000E+06 3.072E+00 7.359E+00 1.036E+01 3.272E+00 2.099E+01 2.406E+01 7.410E+05 18.7951 1.00000
  8.000E+06 8.000E+06 3.087E+00 8.452E+00 1.188E+01 3.787E+00 2.412E+01 2.720E+01 7.802E+05 19.0622 1.00000
  9.000E+06 9.000E+06 3.101E+00 9.547E+00 1.340E+01 4.308E+00 2.725E+01 3.035E+01 8.151E+05 19.2978 1.00000
  1.000E+07 1.000E+07 3.114E+00 1.064E+01 1.491E+01 4.835E+00 3.039E+01 3.351E+01 8.465E+05 19.5085 1.00000
  1.200E+07 1.200E+07 3.136E+00 1.284E+01 1.796E+01 5.906E+00 3.671E+01 3.984E+01 9.014E+05 19.8731 1.00000
  1.400E+07 1.400E+07 3.154E+00 1.505E+01 2.100E+01 6.996E+00 4.305E+01 4.620E+01 9.481E+05 20.1814 1.00000
  1.700E+07 1.700E+07 3.178E+00 1.836E+01 2.557E+01 8.662E+00 5.260E+01 5.577E+01 1.008E+06 20.5697 1.00000
  2.000E+07 2.000E+07 3.198E+00 2.169E+01 3.014E+01 1.036E+01 6.219E+01 6.539E+01 1.057E+06 20.8948 1.00000
  2.500E+07 2.500E+07 3.226E+00 2.723E+01 3.777E+01 1.325E+01 7.825E+01 8.147E+01 1.126E+06 21.3411 1.00000
  3.000E+07 3.000E+07 3.248E+00 3.279E+01 4.540E+01 1.620E+01 9.439E+01 9.764E+01 1.183E+06 21.7057 1.00000
  3.500E+07 3.500E+07 3.268E+00 3.835E+01 5.303E+01 1.921E+01 1.106E+02 1.139E+02 1.230E+06 22.0140 1.00000
  4.000E+07 4.000E+07 3.285E+00 4.391E+01 6.067E+01 2.227E+01 1.268E+02 1.301E+02 1.271E+06 22.2811 1.00000
  4.500E+07 4.500E+07 3.300E+00 4.948E+01 6.830E+01 2.537E+01 1.432E+02 1.465E+02 1.308E+06 22.5166 1.00000
  5.000E+07 5.000E+07 3.313E+00 5.506E+01 7.594E+01 2.851E+01 1.595E+02 1.628E+02 1.340E+06 22.7273 1.00000
  5.500E+07 5.500E+07 3.326E+00 6.063E+01 8.358E+01 3.168E+01 1.759E+02 1.792E+02 1.369E+06 22.9180 1.00000
  6.000E+07 6.000E+07 3.337E+00 6.621E+01 9.122E+01 3.489E+01 1.923E+02 1.957E+02 1.396E+06 23.0920 1.00000
  7.000E+07 7.000E+07 3.357E+00 7.737E+01 1.065E+02 4.139E+01 2.253E+02 2.286E+02 1.443E+06 23.4003 1.00000
  8.000E+07 8.000E+07 3.374E+00 8.853E+01 1.218E+02 4.799E+01 2.583E+02 2.617E+02 1.484E+06 23.6674 1.00000
  9.000E+07 9.000E+07 3.390E+00 9.970E+01 1.371E+02 5.469E+01 2.915E+02 2.949E+02 1.520E+06 23.9029 1.00000
  1.000E+08 1.000E+08 3.404E+00 1.109E+02 1.524E+02 6.147E+01 3.247E+02 3.281E+02 1.553E+06 24.1136 1.00000
  1.200E+08 1.200E+08 3.428E+00 1.332E+02 1.829E+02 7.526E+01 3.914E+02 3.949E+02 1.608E+06 24.4783 1.00000
  1.400E+08 1.400E+08 3.449E+00 1.556E+02 2.135E+02 8.931E+01 4.584E+02 4.619E+02 1.655E+06 24.7866 1.00000
  1.700E+08 1.700E+08 3.475E+00 1.891E+02 2.594E+02 1.108E+02 5.594E+02 5.628E+02 1.715E+06 25.1749 1.00000
  2.000E+08 2.000E+08 3.497E+00 2.227E+02 3.053E+02 1.328E+02 6.607E+02 6.642E+02 1.764E+06 25.4999 1.00000
  2.500E+08 2.500E+08 3.528E+00 2.787E+02 3.817E+02 1.702E+02 8.306E+02 8.341E+02 1.831E+06 25.9462 1.00000
  3.000E+08 3.000E+08 3.554E+00 3.346E+02 4.582E+02 2.085E+02 1.001E+03 1.005E+03 1.886E+06 26.3109 1.00000
  3.500E+08 3.500E+08 3.575E+00 3.906E+02 5.346E+02 2.475E+02 1.173E+03 1.176E+03 1.932E+06 26.6192 1.00000
  4.000E+08 4.000E+08 3.594E+00 4.466E+02 6.111E+02 2.872E+02 1.345E+03 1.348E+03 1.972E+06 26.8862 1.00000
  4.500E+08 4.500E+08 3.611E+00 5.026E+02 6.876E+02 3.275E+02 1.518E+03 1.521E+03 2.007E+06 27.1218 1.00000
  5.000E+08 5.000E+08 3.626E+00 5.586E+02 7.640E+02 3.683E+02 1.691E+03 1.694E+03 2.038E+06 27.3325 1.00000
  5.500E+08 5.500E+08 3.640E+00 6.145E+02 8.405E+02 4.095E+02 1.865E+03 1.868E+03 2.067E+06 27.5231 1.00000
  6.000E+08 6.000E+08 3.652E+00 6.705E+02 9.170E+02 4.513E+02 2.039E+03 2.042E+03 2.092E+06 27.6972 1.00000
  7.000E+08 7.000E+08 3.675E+00 7.825E+02 1.070E+03 5.359E+02 2.388E+03 2.392E+03 2.138E+06 28.0055 1.00000
  8.000E+08 8.000E+08 3.694E+00 8.945E+02 1.223E+03 6.220E+02 2.739E+03 2.743E+03 2.177E+06 28.2725 1.00000
  9.000E+08 9.000E+08 3.712E+00 1.007E+03 1.376E+03 7.094E+02 3.092E+03 3.095E+03 2.211E+06 28.5081 1.00000
  1.000E+09 1.000E+09 3.727E+00 1.119E+03 1.529E+03 7.979E+02 3.445E+03 3.449E+03 2.242E+06 28.7188 1.00000
