 Incident particle is a Muon with M = 105.65839 MeV
 Index = 0: Nobelium
      Absorber with <Z/A> = 0.39367
 Sternheimer coef:  a     k=m_s   x_0    x_1    I[eV]   Cbar  delta0
                 0.2650  3.0000  0.5950  3.0000 1020.0  6.4264 0.00

 *** Table generated with PUMAS v1.00 ***

      T         p     Ionization  brems     pair     photonuc  Radloss    dE/dx   CSDA Range  delta   beta
    [MeV]    [MeV/c]  -----------------------[MeV cm^2/g]------------------------  [g/cm^2]
  1.000E+00 1.457E+01 1.894E+01 6.765E-06 0.000E+00 0.000E+00 6.765E-06 1.894E+01 2.640E-02  0.0000 0.13661
  1.200E+00 1.597E+01 1.680E+01 7.765E-06 0.000E+00 0.000E+00 7.765E-06 1.680E+01 3.763E-02  0.0000 0.14944
  1.400E+00 1.726E+01 1.514E+01 8.711E-06 0.000E+00 0.000E+00 8.711E-06 1.514E+01 5.019E-02  0.0000 0.16119
  1.700E+00 1.903E+01 1.326E+01 1.005E-05 0.000E+00 0.000E+00 1.005E-05 1.326E+01 7.141E-02  0.0000 0.17725
  2.000E+00 2.066E+01 1.183E+01 1.130E-05 0.000E+00 0.000E+00 1.130E-05 1.183E+01 9.540E-02  0.0000 0.19186
  2.500E+00 2.312E+01 1.011E+01 1.323E-05 0.000E+00 0.000E+00 1.323E-05 1.011E+01 1.413E-01  0.0000 0.21376
  3.000E+00 2.536E+01 8.871E+00 1.501E-05 0.000E+00 0.000E+00 1.501E-05 8.871E+00 1.942E-01  0.0000 0.23336
  3.500E+00 2.742E+01 7.939E+00 1.667E-05 0.000E+00 0.000E+00 1.667E-05 7.939E+00 2.539E-01  0.0000 0.25120
  4.000E+00 2.935E+01 7.209E+00 1.823E-05 0.000E+00 0.000E+00 1.823E-05 7.209E+00 3.200E-01  0.0000 0.26763
  4.500E+00 3.116E+01 6.620E+00 1.970E-05 0.000E+00 0.000E+00 1.970E-05 6.620E+00 3.925E-01  0.0000 0.28290
  5.000E+00 3.289E+01 6.134E+00 2.110E-05 0.000E+00 0.000E+00 2.110E-05 6.134E+00 4.710E-01  0.0000 0.29720
  5.500E+00 3.453E+01 5.726E+00 2.244E-05 0.000E+00 0.000E+00 2.244E-05 5.726E+00 5.554E-01  0.0000 0.31066
  6.000E+00 3.611E+01 5.378E+00 2.371E-05 0.000E+00 0.000E+00 2.371E-05 5.378E+00 6.455E-01  0.0000 0.32339
  7.000E+00 3.909E+01 4.815E+00 2.612E-05 0.000E+00 0.000E+00 2.612E-05 4.815E+00 8.424E-01  0.0000 0.34700
  8.000E+00 4.189E+01 4.378E+00 2.836E-05 0.000E+00 0.000E+00 2.836E-05 4.378E+00 1.060E+00  0.0000 0.36854
  9.000E+00 4.453E+01 4.028E+00 3.046E-05 0.000E+00 0.000E+00 3.046E-05 4.028E+00 1.299E+00  0.0000 0.38836
  1.000E+01 4.704E+01 3.742E+00 3.245E-05 0.000E+00 0.000E+00 3.245E-05 3.742E+00 1.557E+00  0.0000 0.40675
  1.200E+01 5.177E+01 3.300E+00 3.616E-05 0.000E+00 0.000E+00 3.616E-05 3.300E+00 2.127E+00  0.0000 0.43998
  1.400E+01 5.616E+01 2.974E+00 3.957E-05 0.000E+00 0.000E+00 3.957E-05 2.974E+00 2.766E+00  0.0000 0.46937
  1.700E+01 6.230E+01 2.619E+00 4.429E-05 0.000E+00 0.000E+00 4.429E-05 2.619E+00 3.843E+00  0.0000 0.50792
  2.000E+01 6.802E+01 2.364E+00 4.867E-05 0.000E+00 0.000E+00 4.867E-05 2.364E+00 5.050E+00  0.0000 0.54129
  2.500E+01 7.686E+01 2.068E+00 5.543E-05 0.000E+00 0.000E+00 5.543E-05 2.068E+00 7.316E+00  0.0000 0.58827
  3.000E+01 8.509E+01 1.868E+00 6.177E-05 0.000E+00 0.000E+00 6.177E-05 1.868E+00 9.864E+00  0.0000 0.62720
  3.500E+01 9.285E+01 1.723E+00 6.784E-05 0.000E+00 0.000E+00 6.784E-05 1.723E+00 1.265E+01  0.0000 0.66011
  4.000E+01 1.003E+02 1.614E+00 7.375E-05 0.000E+00 0.000E+00 7.375E-05 1.614E+00 1.565E+01  0.0000 0.68834
  4.500E+01 1.074E+02 1.529E+00 7.957E-05 0.000E+00 0.000E+00 7.957E-05 1.529E+00 1.884E+01  0.0000 0.71286
  5.000E+01 1.143E+02 1.462E+00 8.533E-05 0.000E+00 0.000E+00 8.533E-05 1.462E+00 2.218E+01  0.0000 0.73434
  5.500E+01 1.210E+02 1.407E+00 9.107E-05 0.000E+00 0.000E+00 9.107E-05 1.408E+00 2.567E+01  0.0000 0.75332
  6.000E+01 1.276E+02 1.363E+00 9.682E-05 0.000E+00 0.000E+00 9.682E-05 1.363E+00 2.928E+01  0.0000 0.77019
  7.000E+01 1.403E+02 1.294E+00 1.084E-04 0.000E+00 0.000E+00 1.084E-04 1.294E+00 3.681E+01  0.0000 0.79887
  8.000E+01 1.527E+02 1.245E+00 1.201E-04 0.000E+00 0.000E+00 1.201E-04 1.245E+00 4.469E+01  0.0000 0.82227
  9.000E+01 1.647E+02 1.208E+00 1.320E-04 0.000E+00 0.000E+00 1.320E-04 1.209E+00 5.285E+01  0.0000 0.84166
  1.000E+02 1.764E+02 1.181E+00 1.442E-04 0.000E+00 0.000E+00 1.442E-04 1.181E+00 6.122E+01  0.0000 0.85794
  1.200E+02 1.994E+02 1.144E+00 1.693E-04 0.000E+00 0.000E+00 1.693E-04 1.144E+00 7.842E+01  0.0000 0.88361
  1.400E+02 2.218E+02 1.123E+00 1.955E-04 0.000E+00 0.000E+00 1.955E-04 1.123E+00 9.606E+01  0.0000 0.90278
  1.700E+02 2.546E+02 1.106E+00 2.368E-04 0.000E+00 0.000E+00 2.368E-04 1.106E+00 1.230E+02  0.0000 0.92363
  2.000E+02 2.868E+02 1.101E+00 2.804E-04 0.000E+00 0.000E+00 2.804E-04 1.101E+00 1.502E+02  0.0000 0.93835
  2.500E+02 3.396E+02 1.103E+00 3.579E-04 0.000E+00 0.000E+00 3.579E-04 1.104E+00 1.955E+02  0.0000 0.95485
  3.000E+02 3.917E+02 1.113E+00 4.410E-04 0.000E+00 0.000E+00 4.410E-04 1.114E+00 2.406E+02  0.0000 0.96548
  3.500E+02 4.432E+02 1.126E+00 5.293E-04 0.000E+00 0.000E+00 5.293E-04 1.127E+00 2.852E+02  0.0016 0.97274
  4.000E+02 4.945E+02 1.140E+00 6.223E-04 0.000E+00 0.000E+00 6.223E-04 1.141E+00 3.293E+02  0.0112 0.97793
  4.500E+02 5.455E+02 1.154E+00 7.197E-04 0.000E+00 0.000E+00 7.197E-04 1.155E+00 3.729E+02  0.0269 0.98176
  5.000E+02 5.964E+02 1.167E+00 8.211E-04 0.000E+00 0.000E+00 8.211E-04 1.168E+00 4.160E+02  0.0469 0.98467
  5.500E+02 6.471E+02 1.180E+00 9.264E-04 1.257E-04 0.000E+00 1.052E-03 1.181E+00 4.585E+02  0.0699 0.98693
  6.000E+02 6.977E+02 1.192E+00 1.035E-03 1.778E-04 0.000E+00 1.213E-03 1.194E+00 5.006E+02  0.0951 0.98873
  7.000E+02 7.987E+02 1.215E+00 1.263E-03 2.854E-04 0.000E+00 1.548E-03 1.217E+00 5.836E+02  0.1495 0.99136
  8.000E+02 8.995E+02 1.236E+00 1.503E-03 4.126E-04 0.000E+00 1.915E-03 1.237E+00 6.651E+02  0.2070 0.99317
  9.000E+02 1.000E+03 1.254E+00 1.754E-03 5.597E-04 0.000E+00 2.313E-03 1.256E+00 7.453E+02  0.2657 0.99447
  1.000E+03 1.101E+03 1.271E+00 2.014E-03 7.254E-04 0.000E+00 2.740E-03 1.274E+00 8.244E+02  0.3245 0.99542
  1.200E+03 1.301E+03 1.301E+00 2.564E-03 1.108E-03 2.244E-05 3.694E-03 1.304E+00 9.796E+02  0.4406 0.99672
  1.400E+03 1.502E+03 1.326E+00 3.145E-03 1.554E-03 6.075E-05 4.760E-03 1.331E+00 1.131E+03  0.5526 0.99753
  1.700E+03 1.803E+03 1.357E+00 4.069E-03 2.328E-03 1.284E-04 6.526E-03 1.364E+00 1.354E+03  0.7117 0.99829
  2.000E+03 2.103E+03 1.384E+00 5.048E-03 3.212E-03 2.068E-04 8.467E-03 1.392E+00 1.572E+03  0.8598 0.99874
  2.500E+03 2.604E+03 1.419E+00 6.783E-03 4.898E-03 3.561E-04 1.204E-02 1.431E+00 1.926E+03  1.0849 0.99918
  3.000E+03 3.104E+03 1.448E+00 8.625E-03 6.813E-03 5.102E-04 1.595E-02 1.464E+00 2.272E+03  1.2868 0.99942
  3.500E+03 3.604E+03 1.471E+00 1.056E-02 8.922E-03 6.713E-04 2.015E-02 1.491E+00 2.610E+03  1.4697 0.99957
  4.000E+03 4.104E+03 1.491E+00 1.257E-02 1.121E-02 8.418E-04 2.463E-02 1.515E+00 2.943E+03  1.6367 0.99967
  4.500E+03 4.604E+03 1.508E+00 1.466E-02 1.366E-02 1.018E-03 2.933E-02 1.537E+00 3.270E+03  1.7904 0.99974
  5.000E+03 5.105E+03 1.523E+00 1.680E-02 1.624E-02 1.186E-03 3.423E-02 1.557E+00 3.593E+03  1.9329 0.99979
  5.500E+03 5.605E+03 1.536E+00 1.901E-02 1.894E-02 1.366E-03 3.931E-02 1.576E+00 3.913E+03  2.0656 0.99982
  6.000E+03 6.105E+03 1.548E+00 2.126E-02 2.176E-02 1.533E-03 4.455E-02 1.593E+00 4.228E+03  2.1899 0.99985
  7.000E+03 7.105E+03 1.569E+00 2.591E-02 2.769E-02 1.886E-03 5.549E-02 1.625E+00 4.850E+03  2.4172 0.99989
  8.000E+03 8.105E+03 1.587E+00 3.072E-02 3.398E-02 2.234E-03 6.694E-02 1.654E+00 5.460E+03  2.6211 0.99992
  9.000E+03 9.105E+03 1.602E+00 3.568E-02 4.058E-02 2.559E-03 7.881E-02 1.680E+00 6.060E+03  2.8061 0.99993
  1.000E+04 1.011E+04 1.615E+00 4.076E-02 4.744E-02 2.893E-03 9.110E-02 1.706E+00 6.651E+03  2.9755 0.99995
  1.200E+04 1.211E+04 1.637E+00 5.125E-02 6.189E-02 3.566E-03 1.167E-01 1.753E+00 7.807E+03  3.2767 0.99996
  1.400E+04 1.411E+04 1.655E+00 6.213E-02 7.713E-02 4.237E-03 1.435E-01 1.798E+00 8.934E+03  3.5390 0.99997
  1.700E+04 1.711E+04 1.676E+00 7.903E-02 1.012E-01 5.225E-03 1.855E-01 1.862E+00 1.057E+04  3.8785 0.99998
  2.000E+04 2.011E+04 1.694E+00 9.652E-02 1.265E-01 6.189E-03 2.292E-01 1.923E+00 1.216E+04  4.1698 0.99999
  2.500E+04 2.511E+04 1.717E+00 1.267E-01 1.708E-01 7.762E-03 3.053E-01 2.022E+00 1.470E+04  4.5793 0.99999
  3.000E+04 3.011E+04 1.735E+00 1.580E-01 2.172E-01 9.296E-03 3.845E-01 2.119E+00 1.711E+04  4.9211 0.99999
  3.500E+04 3.511E+04 1.750E+00 1.902E-01 2.653E-01 1.084E-02 4.664E-01 2.216E+00 1.942E+04  5.2144 1.00000
  4.000E+04 4.011E+04 1.762E+00 2.231E-01 3.147E-01 1.236E-02 5.502E-01 2.312E+00 2.163E+04  5.4714 1.00000
  4.500E+04 4.511E+04 1.773E+00 2.567E-01 3.653E-01 1.386E-02 6.359E-01 2.409E+00 2.375E+04  5.7001 1.00000
  5.000E+04 5.011E+04 1.782E+00 2.908E-01 4.169E-01 1.535E-02 7.231E-01 2.505E+00 2.578E+04  5.9060 1.00000
  5.500E+04 5.511E+04 1.791E+00 3.254E-01 4.693E-01 1.685E-02 8.116E-01 2.602E+00 2.774E+04  6.0932 1.00000
  6.000E+04 6.011E+04 1.798E+00 3.605E-01 5.225E-01 1.833E-02 9.013E-01 2.699E+00 2.963E+04  6.2648 1.00000
  7.000E+04 7.011E+04 1.811E+00 4.317E-01 6.307E-01 2.127E-02 1.084E+00 2.895E+00 3.321E+04  6.5702 1.00000
  8.000E+04 8.011E+04 1.823E+00 5.043E-01 7.410E-01 2.420E-02 1.269E+00 3.092E+00 3.655E+04  6.8358 1.00000
  9.000E+04 9.011E+04 1.832E+00 5.780E-01 8.530E-01 2.713E-02 1.458E+00 3.291E+00 3.969E+04  7.0707 1.00000
  1.000E+05 1.001E+05 1.841E+00 6.526E-01 9.665E-01 3.000E-02 1.649E+00 3.490E+00 4.264E+04  7.2811 1.00000
  1.200E+05 1.201E+05 1.856E+00 8.044E-01 1.197E+00 3.583E-02 2.037E+00 3.893E+00 4.807E+04  7.6454 1.00000
  1.400E+05 1.401E+05 1.869E+00 9.590E-01 1.431E+00 4.165E-02 2.432E+00 4.301E+00 5.297E+04  7.9535 1.00000
  1.700E+05 1.701E+05 1.884E+00 1.195E+00 1.788E+00 5.036E-02 3.034E+00 4.918E+00 5.951E+04  8.3415 1.00000
  2.000E+05 2.001E+05 1.898E+00 1.435E+00 2.151E+00 5.911E-02 3.644E+00 5.542E+00 6.526E+04  8.6664 1.00000
  2.500E+05 2.501E+05 1.916E+00 1.841E+00 2.762E+00 7.370E-02 4.677E+00 6.593E+00 7.357E+04  9.1125 1.00000
  3.000E+05 3.001E+05 1.930E+00 2.254E+00 3.381E+00 8.838E-02 5.724E+00 7.654E+00 8.062E+04  9.4770 1.00000
  3.500E+05 3.501E+05 1.943E+00 2.672E+00 4.006E+00 1.032E-01 6.781E+00 8.724E+00 8.676E+04  9.7852 1.00000
  4.000E+05 4.001E+05 1.953E+00 3.094E+00 4.635E+00 1.181E-01 7.847E+00 9.801E+00 9.217E+04 10.0521 1.00000
  4.500E+05 4.501E+05 1.963E+00 3.520E+00 5.267E+00 1.331E-01 8.920E+00 1.088E+01 9.702E+04 10.2877 1.00000
  5.000E+05 5.001E+05 1.972E+00 3.948E+00 5.903E+00 1.482E-01 9.999E+00 1.197E+01 1.014E+05 10.4983 1.00000
  5.500E+05 5.501E+05 1.979E+00 4.379E+00 6.540E+00 1.631E-01 1.108E+01 1.306E+01 1.054E+05 10.6889 1.00000
  6.000E+05 6.001E+05 1.986E+00 4.813E+00 7.180E+00 1.781E-01 1.217E+01 1.416E+01 1.091E+05 10.8629 1.00000
  7.000E+05 7.001E+05 1.999E+00 5.684E+00 8.464E+00 2.084E-01 1.436E+01 1.636E+01 1.157E+05 11.1712 1.00000
  8.000E+05 8.001E+05 2.010E+00 6.562E+00 9.754E+00 2.390E-01 1.655E+01 1.856E+01 1.214E+05 11.4382 1.00000
  9.000E+05 9.001E+05 2.019E+00 7.444E+00 1.105E+01 2.699E-01 1.876E+01 2.078E+01 1.265E+05 11.6737 1.00000
  1.000E+06 1.000E+06 2.028E+00 8.331E+00 1.234E+01 3.011E-01 2.098E+01 2.301E+01 1.311E+05 11.8844 1.00000
  1.200E+06 1.200E+06 2.043E+00 1.011E+01 1.495E+01 3.641E-01 2.543E+01 2.747E+01 1.391E+05 12.2490 1.00000
  1.400E+06 1.400E+06 2.056E+00 1.191E+01 1.756E+01 4.281E-01 2.990E+01 3.195E+01 1.459E+05 12.5573 1.00000
  1.700E+06 1.700E+06 2.072E+00 1.461E+01 2.149E+01 5.254E-01 3.663E+01 3.870E+01 1.544E+05 12.9456 1.00000
  2.000E+06 2.000E+06 2.086E+00 1.733E+01 2.543E+01 6.243E-01 4.338E+01 4.547E+01 1.616E+05 13.2706 1.00000
  2.500E+06 2.500E+06 2.105E+00 2.189E+01 3.201E+01 7.921E-01 5.469E+01 5.679E+01 1.715E+05 13.7169 1.00000
  3.000E+06 3.000E+06 2.120E+00 2.646E+01 3.860E+01 9.630E-01 6.603E+01 6.815E+01 1.796E+05 14.0815 1.00000
  3.500E+06 3.500E+06 2.134E+00 3.105E+01 4.521E+01 1.137E+00 7.740E+01 7.953E+01 1.864E+05 14.3898 1.00000
  4.000E+06 4.000E+06 2.145E+00 3.565E+01 5.182E+01 1.313E+00 8.879E+01 9.093E+01 1.923E+05 14.6568 1.00000
  4.500E+06 4.500E+06 2.156E+00 4.027E+01 5.844E+01 1.491E+00 1.002E+02 1.023E+02 1.975E+05 14.8924 1.00000
  5.000E+06 5.000E+06 2.165E+00 4.488E+01 6.506E+01 1.672E+00 1.116E+02 1.138E+02 2.021E+05 15.1031 1.00000
  5.500E+06 5.500E+06 2.173E+00 4.951E+01 7.169E+01 1.854E+00 1.230E+02 1.252E+02 2.063E+05 15.2937 1.00000
  6.000E+06 6.000E+06 2.181E+00 5.414E+01 7.832E+01 2.037E+00 1.345E+02 1.367E+02 2.101E+05 15.4678 1.00000
  7.000E+06 7.000E+06 2.194E+00 6.341E+01 9.159E+01 2.410E+00 1.574E+02 1.596E+02 2.169E+05 15.7760 1.00000
  8.000E+06 8.000E+06 2.206E+00 7.269E+01 1.049E+02 2.787E+00 1.803E+02 1.826E+02 2.228E+05 16.0431 1.00000
  9.000E+06 9.000E+06 2.217E+00 8.199E+01 1.182E+02 3.170E+00 2.033E+02 2.055E+02 2.280E+05 16.2787 1.00000
  1.000E+07 1.000E+07 2.226E+00 9.129E+01 1.314E+02 3.557E+00 2.263E+02 2.285E+02 2.326E+05 16.4894 1.00000
  1.200E+07 1.200E+07 2.243E+00 1.099E+02 1.580E+02 4.343E+00 2.723E+02 2.745E+02 2.406E+05 16.8540 1.00000
  1.400E+07 1.400E+07 2.257E+00 1.286E+02 1.846E+02 5.143E+00 3.183E+02 3.206E+02 2.474E+05 17.1623 1.00000
  1.700E+07 1.700E+07 2.275E+00 1.566E+02 2.246E+02 6.366E+00 3.875E+02 3.898E+02 2.559E+05 17.5506 1.00000
  2.000E+07 2.000E+07 2.290E+00 1.846E+02 2.645E+02 7.612E+00 4.567E+02 4.590E+02 2.630E+05 17.8757 1.00000
  2.500E+07 2.500E+07 2.311E+00 2.313E+02 3.311E+02 9.733E+00 5.722E+02 5.745E+02 2.728E+05 18.3220 1.00000
  3.000E+07 3.000E+07 2.328E+00 2.781E+02 3.977E+02 1.190E+01 6.877E+02 6.900E+02 2.808E+05 18.6866 1.00000
  3.500E+07 3.500E+07 2.343E+00 3.249E+02 4.643E+02 1.411E+01 8.033E+02 8.057E+02 2.875E+05 18.9949 1.00000
  4.000E+07 4.000E+07 2.356E+00 3.717E+02 5.309E+02 1.635E+01 9.190E+02 9.214E+02 2.933E+05 19.2620 1.00000
  4.500E+07 4.500E+07 2.367E+00 4.186E+02 5.975E+02 1.863E+01 1.035E+03 1.037E+03 2.985E+05 19.4975 1.00000
  5.000E+07 5.000E+07 2.377E+00 4.654E+02 6.642E+02 2.093E+01 1.151E+03 1.153E+03 3.030E+05 19.7082 1.00000
  5.500E+07 5.500E+07 2.387E+00 5.123E+02 7.308E+02 2.326E+01 1.266E+03 1.269E+03 3.072E+05 19.8989 1.00000
  6.000E+07 6.000E+07 2.395E+00 5.591E+02 7.975E+02 2.561E+01 1.382E+03 1.385E+03 3.109E+05 20.0729 1.00000
  7.000E+07 7.000E+07 2.410E+00 6.529E+02 9.307E+02 3.038E+01 1.614E+03 1.616E+03 3.177E+05 20.3812 1.00000
  8.000E+07 8.000E+07 2.424E+00 7.466E+02 1.064E+03 3.523E+01 1.846E+03 1.848E+03 3.235E+05 20.6483 1.00000
  9.000E+07 9.000E+07 2.435E+00 8.404E+02 1.197E+03 4.014E+01 2.078E+03 2.080E+03 3.286E+05 20.8838 1.00000
  1.000E+08 1.000E+08 2.446E+00 9.342E+02 1.331E+03 4.512E+01 2.310E+03 2.312E+03 3.331E+05 21.0945 1.00000
  1.200E+08 1.200E+08 2.464E+00 1.122E+03 1.597E+03 5.524E+01 2.774E+03 2.777E+03 3.411E+05 21.4592 1.00000
  1.400E+08 1.400E+08 2.480E+00 1.309E+03 1.864E+03 6.555E+01 3.239E+03 3.241E+03 3.477E+05 21.7675 1.00000
  1.700E+08 1.700E+08 2.500E+00 1.591E+03 2.264E+03 8.133E+01 3.936E+03 3.939E+03 3.562E+05 22.1558 1.00000
  2.000E+08 2.000E+08 2.517E+00 1.872E+03 2.664E+03 9.743E+01 4.634E+03 4.636E+03 3.632E+05 22.4808 1.00000
  2.500E+08 2.500E+08 2.540E+00 2.341E+03 3.330E+03 1.249E+02 5.797E+03 5.799E+03 3.729E+05 22.9271 1.00000
  3.000E+08 3.000E+08 2.559E+00 2.811E+03 3.997E+03 1.530E+02 6.961E+03 6.963E+03 3.808E+05 23.2918 1.00000
  3.500E+08 3.500E+08 2.576E+00 3.280E+03 4.664E+03 1.816E+02 8.125E+03 8.128E+03 3.875E+05 23.6001 1.00000
  4.000E+08 4.000E+08 2.590E+00 3.749E+03 5.330E+03 2.107E+02 9.290E+03 9.293E+03 3.933E+05 23.8671 1.00000
  4.500E+08 4.500E+08 2.603E+00 4.218E+03 5.997E+03 2.403E+02 1.046E+04 1.046E+04 3.983E+05 24.1027 1.00000
  5.000E+08 5.000E+08 2.614E+00 4.687E+03 6.664E+03 2.702E+02 1.162E+04 1.162E+04 4.029E+05 24.3134 1.00000
  5.500E+08 5.500E+08 2.625E+00 5.157E+03 7.330E+03 3.005E+02 1.279E+04 1.279E+04 4.070E+05 24.5040 1.00000
  6.000E+08 6.000E+08 2.634E+00 5.626E+03 7.997E+03 3.311E+02 1.395E+04 1.396E+04 4.107E+05 24.6781 1.00000
  7.000E+08 7.000E+08 2.651E+00 6.564E+03 9.330E+03 3.932E+02 1.629E+04 1.629E+04 4.174E+05 24.9864 1.00000
  8.000E+08 8.000E+08 2.666E+00 7.503E+03 1.066E+04 4.564E+02 1.862E+04 1.862E+04 4.231E+05 25.2534 1.00000
  9.000E+08 9.000E+08 2.679E+00 8.441E+03 1.200E+04 5.205E+02 2.096E+04 2.096E+04 4.282E+05 25.4890 1.00000
  1.000E+09 1.000E+09 2.691E+00 9.380E+03 1.333E+04 5.855E+02 2.329E+04 2.330E+04 4.327E+05 25.6997 1.00000
