 Incident particle is a Muon with M = 105.65839 MeV
 Index = 0: NylonType666
      Absorber with <Z/A> = 0.54783
 Sternheimer coef:  a     k=m_s   x_0    x_1    I[eV]   Cbar  delta0
                 0.1182  3.3826  0.1261  2.5759   63.9  3.0289 0.00

 *** Table generated with PUMAS v1.00 ***

      T         p     Ionization  brems     pair     photonuc  Radloss    dE/dx   CSDA Range  delta   beta
    [MeV]    [MeV/c]  -----------------------[MeV cm^2/g]------------------------  [g/cm^2]
  1.000E+00 1.457E+01 5.132E+01 6.631E-07 0.000E+00 0.000E+00 6.631E-07 5.132E+01 9.742E-03  0.0000 0.13661
  1.200E+00 1.597E+01 4.424E+01 7.590E-07 0.000E+00 0.000E+00 7.590E-07 4.424E+01 1.395E-02  0.0000 0.14944
  1.400E+00 1.726E+01 3.901E+01 8.506E-07 0.000E+00 0.000E+00 8.506E-07 3.901E+01 1.877E-02  0.0000 0.16119
  1.700E+00 1.903E+01 3.328E+01 9.815E-07 0.000E+00 0.000E+00 9.815E-07 3.328E+01 2.713E-02  0.0000 0.17725
  2.000E+00 2.066E+01 2.913E+01 1.106E-06 0.000E+00 0.000E+00 1.106E-06 2.913E+01 3.678E-02  0.0000 0.19186
  2.500E+00 2.312E+01 2.426E+01 1.300E-06 0.000E+00 0.000E+00 1.300E-06 2.426E+01 5.567E-02  0.0000 0.21376
  3.000E+00 2.536E+01 2.090E+01 1.483E-06 0.000E+00 0.000E+00 1.483E-06 2.090E+01 7.793E-02  0.0000 0.23336
  3.500E+00 2.742E+01 1.843E+01 1.655E-06 0.000E+00 0.000E+00 1.655E-06 1.843E+01 1.035E-01  0.0000 0.25120
  4.000E+00 2.935E+01 1.654E+01 1.819E-06 0.000E+00 0.000E+00 1.819E-06 1.654E+01 1.321E-01  0.0000 0.26763
  4.500E+00 3.116E+01 1.504E+01 1.975E-06 0.000E+00 0.000E+00 1.975E-06 1.504E+01 1.639E-01  0.0000 0.28290
  5.000E+00 3.289E+01 1.381E+01 2.125E-06 0.000E+00 0.000E+00 2.125E-06 1.381E+01 1.986E-01  0.0000 0.29720
  5.500E+00 3.453E+01 1.280E+01 2.270E-06 0.000E+00 0.000E+00 2.270E-06 1.280E+01 2.362E-01  0.0000 0.31066
  6.000E+00 3.611E+01 1.194E+01 2.409E-06 0.000E+00 0.000E+00 2.409E-06 1.194E+01 2.767E-01  0.0000 0.32339
  7.000E+00 3.909E+01 1.057E+01 2.675E-06 0.000E+00 0.000E+00 2.675E-06 1.057E+01 3.659E-01  0.0000 0.34700
  8.000E+00 4.189E+01 9.523E+00 2.925E-06 0.000E+00 0.000E+00 2.925E-06 9.523E+00 4.657E-01  0.0000 0.36854
  9.000E+00 4.453E+01 8.695E+00 3.163E-06 0.000E+00 0.000E+00 3.163E-06 8.695E+00 5.757E-01  0.0000 0.38836
  1.000E+01 4.704E+01 8.023E+00 3.390E-06 0.000E+00 0.000E+00 3.390E-06 8.023E+00 6.955E-01  0.0000 0.40675
  1.200E+01 5.177E+01 6.999E+00 3.818E-06 0.000E+00 0.000E+00 3.818E-06 6.999E+00 9.630E-01  0.0000 0.43998
  1.400E+01 5.616E+01 6.254E+00 4.217E-06 0.000E+00 0.000E+00 4.217E-06 6.254E+00 1.266E+00  0.0000 0.46937
  1.700E+01 6.230E+01 5.451E+00 4.773E-06 0.000E+00 0.000E+00 4.773E-06 5.451E+00 1.781E+00  0.0000 0.50792
  2.000E+01 6.802E+01 4.881E+00 5.293E-06 0.000E+00 0.000E+00 5.293E-06 4.881E+00 2.363E+00  0.0000 0.54129
  2.500E+01 7.686E+01 4.225E+00 6.100E-06 0.000E+00 0.000E+00 6.100E-06 4.225E+00 3.467E+00  0.0000 0.58827
  3.000E+01 8.509E+01 3.783E+00 6.856E-06 0.000E+00 0.000E+00 6.856E-06 3.783E+00 4.720E+00  0.0000 0.62720
  3.500E+01 9.285E+01 3.467E+00 7.579E-06 0.000E+00 0.000E+00 7.579E-06 3.467E+00 6.102E+00  0.0000 0.66011
  4.000E+01 1.003E+02 3.229E+00 8.280E-06 0.000E+00 0.000E+00 8.280E-06 3.229E+00 7.597E+00  0.0000 0.68834
  4.500E+01 1.074E+02 3.045E+00 8.966E-06 0.000E+00 0.000E+00 8.966E-06 3.045E+00 9.192E+00  0.0000 0.71286
  5.000E+01 1.143E+02 2.899E+00 9.643E-06 0.000E+00 0.000E+00 9.643E-06 2.899E+00 1.088E+01  0.0000 0.73434
  5.500E+01 1.210E+02 2.780E+00 1.031E-05 0.000E+00 0.000E+00 1.031E-05 2.780E+00 1.264E+01  0.0000 0.75332
  6.000E+01 1.276E+02 2.682E+00 1.098E-05 0.000E+00 0.000E+00 1.098E-05 2.682E+00 1.447E+01  0.0000 0.77019
  7.000E+01 1.403E+02 2.531E+00 1.232E-05 0.000E+00 0.000E+00 1.232E-05 2.531E+00 1.831E+01  0.0000 0.79887
  8.000E+01 1.527E+02 2.416E+00 1.367E-05 0.000E+00 0.000E+00 1.367E-05 2.416E+00 2.235E+01  0.0434 0.82227
  9.000E+01 1.647E+02 2.329E+00 1.503E-05 0.000E+00 0.000E+00 1.503E-05 2.329E+00 2.657E+01  0.0890 0.84166
  1.000E+02 1.764E+02 2.261E+00 1.641E-05 0.000E+00 0.000E+00 1.641E-05 2.261E+00 3.093E+01  0.1336 0.85794
  1.200E+02 1.994E+02 2.166E+00 1.924E-05 0.000E+00 0.000E+00 1.924E-05 2.166E+00 3.997E+01  0.2194 0.88361
  1.400E+02 2.218E+02 2.103E+00 2.217E-05 0.000E+00 0.000E+00 2.217E-05 2.103E+00 4.934E+01  0.3009 0.90278
  1.700E+02 2.546E+02 2.045E+00 2.675E-05 3.907E-14 0.000E+00 2.675E-05 2.045E+00 6.381E+01  0.4160 0.92363
  2.000E+02 2.868E+02 2.011E+00 3.155E-05 8.727E-12 0.000E+00 3.155E-05 2.011E+00 7.861E+01  0.5236 0.93835
  2.500E+02 3.396E+02 1.983E+00 4.002E-05 7.193E-08 0.000E+00 4.010E-05 1.983E+00 1.036E+02  0.6885 0.95485
  3.000E+02 3.917E+02 1.974E+00 4.903E-05 6.328E-07 0.000E+00 4.967E-05 1.974E+00 1.289E+02  0.8387 0.96548
  3.500E+02 4.432E+02 1.973E+00 5.854E-05 1.737E-06 0.000E+00 6.027E-05 1.973E+00 1.543E+02  0.9767 0.97274
  4.000E+02 4.945E+02 1.978E+00 6.849E-05 3.359E-06 0.000E+00 7.185E-05 1.978E+00 1.796E+02  1.1046 0.97793
  4.500E+02 5.455E+02 1.985E+00 7.886E-05 5.479E-06 0.000E+00 8.434E-05 1.985E+00 2.048E+02  1.2239 0.98176
  5.000E+02 5.964E+02 1.993E+00 8.962E-05 8.081E-06 0.000E+00 9.770E-05 1.993E+00 2.299E+02  1.3356 0.98467
  5.500E+02 6.471E+02 2.002E+00 1.007E-04 1.115E-05 0.000E+00 1.119E-04 2.002E+00 2.550E+02  1.4409 0.98693
  6.000E+02 6.977E+02 2.012E+00 1.122E-04 1.466E-05 0.000E+00 1.268E-04 2.012E+00 2.799E+02  1.5403 0.98873
  7.000E+02 7.987E+02 2.030E+00 1.360E-04 2.298E-05 0.000E+00 1.590E-04 2.030E+00 3.293E+02  1.7244 0.99136
  8.000E+02 8.995E+02 2.048E+00 1.610E-04 3.291E-05 0.000E+00 1.939E-04 2.048E+00 3.784E+02  1.8919 0.99317
  9.000E+02 1.000E+03 2.065E+00 1.870E-04 4.436E-05 0.000E+00 2.314E-04 2.065E+00 4.270E+02  2.0456 0.99447
  1.000E+03 1.101E+03 2.081E+00 2.139E-04 5.724E-05 0.000E+00 2.712E-04 2.081E+00 4.752E+02  2.1878 0.99542
  1.200E+03 1.301E+03 2.109E+00 2.703E-04 8.695E-05 2.257E-05 3.799E-04 2.110E+00 5.707E+02  2.4437 0.99672
  1.400E+03 1.502E+03 2.134E+00 3.298E-04 1.215E-04 6.187E-05 5.131E-04 2.135E+00 6.649E+02  2.6697 0.99753
  1.700E+03 1.803E+03 2.166E+00 4.237E-04 1.813E-04 1.329E-04 7.379E-04 2.167E+00 8.044E+02  2.9659 0.99829
  2.000E+03 2.103E+03 2.194E+00 5.228E-04 2.496E-04 2.169E-04 9.894E-04 2.195E+00 9.420E+02  3.2232 0.99874
  2.500E+03 2.604E+03 2.231E+00 6.975E-04 3.800E-04 3.801E-04 1.458E-03 2.232E+00 1.168E+03  3.5893 0.99918
  3.000E+03 3.104E+03 2.261E+00 8.824E-04 5.280E-04 5.522E-04 1.963E-03 2.263E+00 1.390E+03  3.8986 0.99942
  3.500E+03 3.604E+03 2.286E+00 1.076E-03 6.913E-04 7.352E-04 2.502E-03 2.289E+00 1.610E+03  4.1666 0.99957
  4.000E+03 4.104E+03 2.308E+00 1.277E-03 8.832E-04 9.314E-04 3.092E-03 2.311E+00 1.827E+03  4.4032 0.99967
  4.500E+03 4.604E+03 2.327E+00 1.485E-03 1.094E-03 1.136E-03 3.715E-03 2.331E+00 2.043E+03  4.6150 0.99974
  5.000E+03 5.105E+03 2.344E+00 1.699E-03 1.317E-03 1.333E-03 4.349E-03 2.348E+00 2.257E+03  4.8067 0.99979
  5.500E+03 5.605E+03 2.359E+00 1.919E-03 1.552E-03 1.545E-03 5.016E-03 2.364E+00 2.469E+03  4.9819 0.99982
  6.000E+03 6.105E+03 2.372E+00 2.143E-03 1.798E-03 1.744E-03 5.685E-03 2.378E+00 2.680E+03  5.1433 0.99985
  7.000E+03 7.105E+03 2.396E+00 2.606E-03 2.318E-03 2.165E-03 7.089E-03 2.403E+00 3.098E+03  5.4321 0.99989
  8.000E+03 8.105E+03 2.416E+00 3.085E-03 2.873E-03 2.584E-03 8.543E-03 2.425E+00 3.512E+03  5.6850 0.99992
  9.000E+03 9.105E+03 2.434E+00 3.579E-03 3.457E-03 2.980E-03 1.002E-02 2.444E+00 3.923E+03  5.9100 0.99993
  1.000E+04 1.011E+04 2.449E+00 4.085E-03 4.069E-03 3.388E-03 1.154E-02 2.461E+00 4.331E+03  6.1127 0.99995
  1.200E+04 1.211E+04 2.475E+00 5.132E-03 5.363E-03 4.219E-03 1.471E-02 2.490E+00 5.139E+03  6.4661 0.99996
  1.400E+04 1.411E+04 2.497E+00 6.218E-03 6.739E-03 5.053E-03 1.801E-02 2.515E+00 5.938E+03  6.7672 0.99997
  1.700E+04 1.711E+04 2.524E+00 7.908E-03 8.930E-03 6.293E-03 2.313E-02 2.547E+00 7.123E+03  7.1489 0.99998
  2.000E+04 2.011E+04 2.546E+00 9.661E-03 1.125E-02 7.513E-03 2.842E-02 2.574E+00 8.295E+03  7.4701 0.99999
  2.500E+04 2.511E+04 2.575E+00 1.270E-02 1.535E-02 9.521E-03 3.757E-02 2.612E+00 1.022E+04  7.9129 0.99999
  3.000E+04 3.011E+04 2.598E+00 1.585E-02 1.968E-02 1.150E-02 4.703E-02 2.645E+00 1.213E+04  8.2757 0.99999
  3.500E+04 3.511E+04 2.617E+00 1.910E-02 2.420E-02 1.350E-02 5.681E-02 2.674E+00 1.401E+04  8.5829 1.00000
  4.000E+04 4.011E+04 2.634E+00 2.244E-02 2.889E-02 1.549E-02 6.681E-02 2.701E+00 1.587E+04  8.8492 1.00000
  4.500E+04 4.511E+04 2.648E+00 2.585E-02 3.371E-02 1.745E-02 7.700E-02 2.725E+00 1.771E+04  9.0842 1.00000
  5.000E+04 5.011E+04 2.661E+00 2.932E-02 3.865E-02 1.941E-02 8.737E-02 2.748E+00 1.954E+04  9.2945 1.00000
  5.500E+04 5.511E+04 2.673E+00 3.284E-02 4.369E-02 2.139E-02 9.793E-02 2.770E+00 2.135E+04  9.4847 1.00000
  6.000E+04 6.011E+04 2.683E+00 3.642E-02 4.883E-02 2.335E-02 1.086E-01 2.791E+00 2.315E+04  9.6584 1.00000
  7.000E+04 7.011E+04 2.701E+00 4.371E-02 5.936E-02 2.725E-02 1.303E-01 2.831E+00 2.670E+04  9.9662 1.00000
  8.000E+04 8.011E+04 2.717E+00 5.116E-02 7.016E-02 3.116E-02 1.525E-01 2.869E+00 3.021E+04 10.2329 1.00000
  9.000E+04 9.011E+04 2.730E+00 5.875E-02 8.119E-02 3.508E-02 1.750E-01 2.905E+00 3.368E+04 10.4682 1.00000
  1.000E+05 1.001E+05 2.742E+00 6.645E-02 9.243E-02 3.893E-02 1.978E-01 2.940E+00 3.710E+04 10.6786 1.00000
  1.200E+05 1.201E+05 2.763E+00 8.216E-02 1.154E-01 4.677E-02 2.443E-01 3.008E+00 4.382E+04 11.0429 1.00000
  1.400E+05 1.401E+05 2.781E+00 9.821E-02 1.389E-01 5.462E-02 2.918E-01 3.072E+00 5.040E+04 11.3510 1.00000
  1.700E+05 1.701E+05 2.803E+00 1.228E-01 1.750E-01 6.643E-02 3.643E-01 3.167E+00 6.002E+04 11.7390 1.00000
  2.000E+05 2.001E+05 2.821E+00 1.479E-01 2.119E-01 7.831E-02 4.381E-01 3.259E+00 6.936E+04 12.0639 1.00000
  2.500E+05 2.501E+05 2.846E+00 1.907E-01 2.747E-01 9.819E-02 5.635E-01 3.410E+00 8.436E+04 12.5100 1.00000
  3.000E+05 3.001E+05 2.866E+00 2.343E-01 3.386E-01 1.182E-01 6.912E-01 3.558E+00 9.872E+04 12.8745 1.00000
  3.500E+05 3.501E+05 2.884E+00 2.787E-01 4.036E-01 1.385E-01 8.208E-01 3.704E+00 1.125E+05 13.1827 1.00000
  4.000E+05 4.001E+05 2.899E+00 3.236E-01 4.692E-01 1.590E-01 9.518E-01 3.850E+00 1.257E+05 13.4496 1.00000
  4.500E+05 4.501E+05 2.912E+00 3.691E-01 5.355E-01 1.795E-01 1.084E+00 3.996E+00 1.385E+05 13.6852 1.00000
  5.000E+05 5.001E+05 2.924E+00 4.149E-01 6.022E-01 2.002E-01 1.217E+00 4.141E+00 1.508E+05 13.8958 1.00000
  5.500E+05 5.501E+05 2.935E+00 4.612E-01 6.694E-01 2.208E-01 1.351E+00 4.286E+00 1.627E+05 14.0864 1.00000
  6.000E+05 6.001E+05 2.944E+00 5.078E-01 7.369E-01 2.415E-01 1.486E+00 4.431E+00 1.741E+05 14.2604 1.00000
  7.000E+05 7.001E+05 2.962E+00 6.017E-01 8.729E-01 2.833E-01 1.758E+00 4.720E+00 1.960E+05 14.5687 1.00000
  8.000E+05 8.001E+05 2.977E+00 6.967E-01 1.010E+00 3.255E-01 2.032E+00 5.009E+00 2.166E+05 14.8357 1.00000
  9.000E+05 9.001E+05 2.990E+00 7.924E-01 1.148E+00 3.682E-01 2.308E+00 5.299E+00 2.360E+05 15.0712 1.00000
  1.000E+06 1.000E+06 3.003E+00 8.888E-01 1.286E+00 4.112E-01 2.586E+00 5.589E+00 2.544E+05 15.2819 1.00000
  1.200E+06 1.200E+06 3.024E+00 1.083E+00 1.565E+00 4.984E-01 3.146E+00 6.170E+00 2.885E+05 15.6465 1.00000
  1.400E+06 1.400E+06 3.041E+00 1.280E+00 1.845E+00 5.868E-01 3.711E+00 6.753E+00 3.195E+05 15.9548 1.00000
  1.700E+06 1.700E+06 3.064E+00 1.577E+00 2.268E+00 7.215E-01 4.566E+00 7.630E+00 3.614E+05 16.3431 1.00000
  2.000E+06 2.000E+06 3.083E+00 1.876E+00 2.692E+00 8.584E-01 5.427E+00 8.510E+00 3.987E+05 16.6681 1.00000
  2.500E+06 2.500E+06 3.109E+00 2.379E+00 3.404E+00 1.091E+00 6.874E+00 9.983E+00 4.531E+05 17.1144 1.00000
  3.000E+06 3.000E+06 3.131E+00 2.887E+00 4.118E+00 1.328E+00 8.332E+00 1.146E+01 4.999E+05 17.4790 1.00000
  3.500E+06 3.500E+06 3.149E+00 3.397E+00 4.834E+00 1.568E+00 9.800E+00 1.295E+01 5.410E+05 17.7873 1.00000
  4.000E+06 4.000E+06 3.166E+00 3.910E+00 5.552E+00 1.813E+00 1.127E+01 1.444E+01 5.777E+05 18.0543 1.00000
  4.500E+06 4.500E+06 3.180E+00 4.424E+00 6.272E+00 2.060E+00 1.276E+01 1.594E+01 6.107E+05 18.2899 1.00000
  5.000E+06 5.000E+06 3.193E+00 4.940E+00 6.992E+00 2.310E+00 1.424E+01 1.744E+01 6.407E+05 18.5006 1.00000
  5.500E+06 5.500E+06 3.204E+00 5.458E+00 7.713E+00 2.563E+00 1.573E+01 1.894E+01 6.682E+05 18.6912 1.00000
  6.000E+06 6.000E+06 3.215E+00 5.977E+00 8.435E+00 2.818E+00 1.723E+01 2.044E+01 6.937E+05 18.8653 1.00000
  7.000E+06 7.000E+06 3.234E+00 7.017E+00 9.880E+00 3.334E+00 2.023E+01 2.347E+01 7.394E+05 19.1735 1.00000
  8.000E+06 8.000E+06 3.251E+00 8.060E+00 1.133E+01 3.858E+00 2.325E+01 2.650E+01 7.796E+05 19.4406 1.00000
  9.000E+06 9.000E+06 3.265E+00 9.105E+00 1.278E+01 4.390E+00 2.627E+01 2.954E+01 8.154E+05 19.6762 1.00000
  1.000E+07 1.000E+07 3.279E+00 1.015E+01 1.423E+01 4.927E+00 2.931E+01 3.258E+01 8.477E+05 19.8869 1.00000
  1.200E+07 1.200E+07 3.302E+00 1.225E+01 1.713E+01 6.018E+00 3.540E+01 3.870E+01 9.042E+05 20.2515 1.00000
  1.400E+07 1.400E+07 3.321E+00 1.436E+01 2.003E+01 7.129E+00 4.152E+01 4.484E+01 9.523E+05 20.5598 1.00000
  1.700E+07 1.700E+07 3.346E+00 1.752E+01 2.439E+01 8.827E+00 5.074E+01 5.409E+01 1.014E+06 20.9481 1.00000
  2.000E+07 2.000E+07 3.367E+00 2.070E+01 2.876E+01 1.056E+01 6.001E+01 6.338E+01 1.065E+06 21.2732 1.00000
  2.500E+07 2.500E+07 3.396E+00 2.599E+01 3.604E+01 1.350E+01 7.553E+01 7.893E+01 1.136E+06 21.7195 1.00000
  3.000E+07 3.000E+07 3.420E+00 3.130E+01 4.332E+01 1.651E+01 9.113E+01 9.455E+01 1.194E+06 22.0841 1.00000
  3.500E+07 3.500E+07 3.441E+00 3.661E+01 5.060E+01 1.958E+01 1.068E+02 1.102E+02 1.243E+06 22.3924 1.00000
  4.000E+07 4.000E+07 3.459E+00 4.192E+01 5.789E+01 2.270E+01 1.225E+02 1.260E+02 1.286E+06 22.6595 1.00000
  4.500E+07 4.500E+07 3.474E+00 4.724E+01 6.518E+01 2.586E+01 1.383E+02 1.418E+02 1.323E+06 22.8950 1.00000
  5.000E+07 5.000E+07 3.489E+00 5.257E+01 7.247E+01 2.905E+01 1.541E+02 1.576E+02 1.357E+06 23.1057 1.00000
  5.500E+07 5.500E+07 3.502E+00 5.789E+01 7.976E+01 3.229E+01 1.699E+02 1.734E+02 1.387E+06 23.2964 1.00000
  6.000E+07 6.000E+07 3.513E+00 6.322E+01 8.705E+01 3.555E+01 1.858E+02 1.893E+02 1.415E+06 23.4704 1.00000
  7.000E+07 7.000E+07 3.535E+00 7.388E+01 1.016E+02 4.218E+01 2.177E+02 2.212E+02 1.464E+06 23.7787 1.00000
  8.000E+07 8.000E+07 3.553E+00 8.455E+01 1.162E+02 4.891E+01 2.497E+02 2.532E+02 1.506E+06 24.0458 1.00000
  9.000E+07 9.000E+07 3.569E+00 9.522E+01 1.308E+02 5.573E+01 2.818E+02 2.853E+02 1.543E+06 24.2813 1.00000
  1.000E+08 1.000E+08 3.584E+00 1.059E+02 1.454E+02 6.265E+01 3.139E+02 3.175E+02 1.577E+06 24.4920 1.00000
  1.200E+08 1.200E+08 3.610E+00 1.272E+02 1.746E+02 7.670E+01 3.785E+02 3.822E+02 1.634E+06 24.8567 1.00000
  1.400E+08 1.400E+08 3.632E+00 1.486E+02 2.038E+02 9.103E+01 4.434E+02 4.470E+02 1.683E+06 25.1650 1.00000
  1.700E+08 1.700E+08 3.659E+00 1.807E+02 2.476E+02 1.129E+02 5.412E+02 5.448E+02 1.744E+06 25.5533 1.00000
  2.000E+08 2.000E+08 3.683E+00 2.127E+02 2.914E+02 1.353E+02 6.394E+02 6.431E+02 1.795E+06 25.8783 1.00000
  2.500E+08 2.500E+08 3.715E+00 2.662E+02 3.643E+02 1.734E+02 8.040E+02 8.077E+02 1.865E+06 26.3246 1.00000
  3.000E+08 3.000E+08 3.742E+00 3.197E+02 4.373E+02 2.125E+02 9.694E+02 9.732E+02 1.921E+06 26.6893 1.00000
  3.500E+08 3.500E+08 3.765E+00 3.731E+02 5.103E+02 2.522E+02 1.136E+03 1.139E+03 1.969E+06 26.9976 1.00000
  4.000E+08 4.000E+08 3.785E+00 4.266E+02 5.833E+02 2.927E+02 1.303E+03 1.306E+03 2.010E+06 27.2646 1.00000
  4.500E+08 4.500E+08 3.802E+00 4.801E+02 6.563E+02 3.337E+02 1.470E+03 1.474E+03 2.046E+06 27.5002 1.00000
  5.000E+08 5.000E+08 3.818E+00 5.336E+02 7.293E+02 3.753E+02 1.638E+03 1.642E+03 2.078E+06 27.7109 1.00000
  5.500E+08 5.500E+08 3.833E+00 5.871E+02 8.023E+02 4.174E+02 1.807E+03 1.811E+03 2.107E+06 27.9015 1.00000
  6.000E+08 6.000E+08 3.846E+00 6.406E+02 8.752E+02 4.599E+02 1.976E+03 1.980E+03 2.134E+06 28.0756 1.00000
  7.000E+08 7.000E+08 3.870E+00 7.476E+02 1.021E+03 5.462E+02 2.315E+03 2.319E+03 2.180E+06 28.3839 1.00000
  8.000E+08 8.000E+08 3.890E+00 8.546E+02 1.167E+03 6.339E+02 2.656E+03 2.660E+03 2.221E+06 28.6509 1.00000
  9.000E+08 9.000E+08 3.908E+00 9.616E+02 1.313E+03 7.230E+02 2.998E+03 3.002E+03 2.256E+06 28.8865 1.00000
  1.000E+09 1.000E+09 3.925E+00 1.069E+03 1.459E+03 8.132E+02 3.341E+03 3.345E+03 2.288E+06 29.0972 1.00000
