 Incident particle is a Muon with M = 105.65839 MeV
 Index = 0: Octane
      Absorber with <Z/A> = 0.57766
 Sternheimer coef:  a     k=m_s   x_0    x_1    I[eV]   Cbar  delta0
                 0.1139  3.4776  0.1882  2.5664   54.7  3.1834 0.00

 *** Table generated with PUMAS v1.00 ***

      T         p     Ionization  brems     pair     photonuc  Radloss    dE/dx   CSDA Range  delta   beta
    [MeV]    [MeV/c]  -----------------------[MeV cm^2/g]------------------------  [g/cm^2]
  1.000E+00 1.457E+01 5.560E+01 6.035E-07 0.000E+00 0.000E+00 6.035E-07 5.560E+01 8.993E-03  0.0000 0.13661
  1.200E+00 1.597E+01 4.789E+01 6.899E-07 0.000E+00 0.000E+00 6.899E-07 4.789E+01 1.288E-02  0.0000 0.14944
  1.400E+00 1.726E+01 4.220E+01 7.725E-07 0.000E+00 0.000E+00 7.725E-07 4.220E+01 1.734E-02  0.0000 0.16119
  1.700E+00 1.903E+01 3.597E+01 8.904E-07 0.000E+00 0.000E+00 8.904E-07 3.597E+01 2.506E-02  0.0000 0.17725
  2.000E+00 2.066E+01 3.146E+01 1.002E-06 0.000E+00 0.000E+00 1.002E-06 3.146E+01 3.400E-02  0.0000 0.19186
  2.500E+00 2.312E+01 2.619E+01 1.178E-06 0.000E+00 0.000E+00 1.178E-06 2.619E+01 5.149E-02  0.0000 0.21376
  3.000E+00 2.536E+01 2.255E+01 1.343E-06 0.000E+00 0.000E+00 1.343E-06 2.255E+01 7.213E-02  0.0000 0.23336
  3.500E+00 2.742E+01 1.987E+01 1.499E-06 0.000E+00 0.000E+00 1.499E-06 1.987E+01 9.579E-02  0.0000 0.25120
  4.000E+00 2.935E+01 1.782E+01 1.647E-06 0.000E+00 0.000E+00 1.647E-06 1.782E+01 1.224E-01  0.0000 0.26763
  4.500E+00 3.116E+01 1.620E+01 1.788E-06 0.000E+00 0.000E+00 1.788E-06 1.620E+01 1.519E-01  0.0000 0.28290
  5.000E+00 3.289E+01 1.488E+01 1.924E-06 0.000E+00 0.000E+00 1.924E-06 1.488E+01 1.841E-01  0.0000 0.29720
  5.500E+00 3.453E+01 1.378E+01 2.055E-06 0.000E+00 0.000E+00 2.055E-06 1.378E+01 2.190E-01  0.0000 0.31066
  6.000E+00 3.611E+01 1.285E+01 2.181E-06 0.000E+00 0.000E+00 2.181E-06 1.285E+01 2.566E-01  0.0000 0.32339
  7.000E+00 3.909E+01 1.138E+01 2.422E-06 0.000E+00 0.000E+00 2.422E-06 1.138E+01 3.395E-01  0.0000 0.34700
  8.000E+00 4.189E+01 1.024E+01 2.649E-06 0.000E+00 0.000E+00 2.649E-06 1.024E+01 4.323E-01  0.0000 0.36854
  9.000E+00 4.453E+01 9.351E+00 2.865E-06 0.000E+00 0.000E+00 2.865E-06 9.351E+00 5.345E-01  0.0000 0.38836
  1.000E+01 4.704E+01 8.627E+00 3.071E-06 0.000E+00 0.000E+00 3.071E-06 8.627E+00 6.460E-01  0.0000 0.40675
  1.200E+01 5.177E+01 7.523E+00 3.459E-06 0.000E+00 0.000E+00 3.459E-06 7.523E+00 8.948E-01  0.0000 0.43998
  1.400E+01 5.616E+01 6.720E+00 3.822E-06 0.000E+00 0.000E+00 3.822E-06 6.720E+00 1.177E+00  0.0000 0.46937
  1.700E+01 6.230E+01 5.855E+00 4.328E-06 0.000E+00 0.000E+00 4.328E-06 5.855E+00 1.656E+00  0.0000 0.50792
  2.000E+01 6.802E+01 5.240E+00 4.801E-06 0.000E+00 0.000E+00 4.801E-06 5.241E+00 2.198E+00  0.0000 0.54129
  2.500E+01 7.686E+01 4.535E+00 5.535E-06 0.000E+00 0.000E+00 5.535E-06 4.535E+00 3.227E+00  0.0000 0.58827
  3.000E+01 8.509E+01 4.060E+00 6.224E-06 0.000E+00 0.000E+00 6.224E-06 4.060E+00 4.394E+00  0.0000 0.62720
  3.500E+01 9.285E+01 3.719E+00 6.882E-06 0.000E+00 0.000E+00 6.882E-06 3.719E+00 5.682E+00  0.0000 0.66011
  4.000E+01 1.003E+02 3.463E+00 7.520E-06 0.000E+00 0.000E+00 7.520E-06 3.463E+00 7.076E+00  0.0000 0.68834
  4.500E+01 1.074E+02 3.265E+00 8.145E-06 0.000E+00 0.000E+00 8.145E-06 3.265E+00 8.564E+00  0.0000 0.71286
  5.000E+01 1.143E+02 3.108E+00 8.762E-06 0.000E+00 0.000E+00 8.762E-06 3.108E+00 1.013E+01  0.0000 0.73434
  5.500E+01 1.210E+02 2.980E+00 9.373E-06 0.000E+00 0.000E+00 9.373E-06 2.980E+00 1.178E+01  0.0000 0.75332
  6.000E+01 1.276E+02 2.874E+00 9.982E-06 0.000E+00 0.000E+00 9.982E-06 2.874E+00 1.349E+01  0.0000 0.77019
  7.000E+01 1.403E+02 2.712E+00 1.120E-05 0.000E+00 0.000E+00 1.120E-05 2.712E+00 1.707E+01  0.0000 0.79887
  8.000E+01 1.527E+02 2.594E+00 1.242E-05 0.000E+00 0.000E+00 1.242E-05 2.594E+00 2.084E+01  0.0000 0.82227
  9.000E+01 1.647E+02 2.505E+00 1.366E-05 0.000E+00 0.000E+00 1.366E-05 2.505E+00 2.476E+01  0.0060 0.84166
  1.000E+02 1.764E+02 2.433E+00 1.492E-05 0.000E+00 0.000E+00 1.492E-05 2.433E+00 2.881E+01  0.0446 0.85794
  1.200E+02 1.994E+02 2.330E+00 1.749E-05 0.000E+00 0.000E+00 1.749E-05 2.330E+00 3.722E+01  0.1204 0.88361
  1.400E+02 2.218E+02 2.263E+00 2.015E-05 0.000E+00 0.000E+00 2.015E-05 2.263E+00 4.593E+01  0.1940 0.90278
  1.700E+02 2.546E+02 2.200E+00 2.431E-05 3.528E-14 0.000E+00 2.431E-05 2.200E+00 5.937E+01  0.2999 0.92363
  2.000E+02 2.868E+02 2.164E+00 2.868E-05 7.878E-12 0.000E+00 2.868E-05 2.164E+00 7.312E+01  0.4003 0.93835
  2.500E+02 3.396E+02 2.134E+00 3.637E-05 6.498E-08 0.000E+00 3.643E-05 2.134E+00 9.639E+01  0.5563 0.95485
  3.000E+02 3.917E+02 2.124E+00 4.455E-05 5.677E-07 0.000E+00 4.511E-05 2.124E+00 1.199E+02  0.7000 0.96548
  3.500E+02 4.432E+02 2.124E+00 5.317E-05 1.555E-06 0.000E+00 5.473E-05 2.124E+00 1.434E+02  0.8332 0.97274
  4.000E+02 4.945E+02 2.128E+00 6.220E-05 3.005E-06 0.000E+00 6.521E-05 2.128E+00 1.669E+02  0.9573 0.97793
  4.500E+02 5.455E+02 2.135E+00 7.161E-05 4.900E-06 0.000E+00 7.651E-05 2.135E+00 1.904E+02  1.0735 0.98176
  5.000E+02 5.964E+02 2.144E+00 8.137E-05 7.223E-06 0.000E+00 8.859E-05 2.144E+00 2.138E+02  1.1828 0.98467
  5.500E+02 6.471E+02 2.154E+00 9.146E-05 9.960E-06 0.000E+00 1.014E-04 2.154E+00 2.370E+02  1.2861 0.98693
  6.000E+02 6.977E+02 2.164E+00 1.018E-04 1.310E-05 0.000E+00 1.149E-04 2.164E+00 2.602E+02  1.3839 0.98873
  7.000E+02 7.987E+02 2.183E+00 1.235E-04 2.052E-05 0.000E+00 1.440E-04 2.183E+00 3.062E+02  1.5655 0.99136
  8.000E+02 8.995E+02 2.202E+00 1.461E-04 2.939E-05 0.000E+00 1.755E-04 2.202E+00 3.518E+02  1.7311 0.99317
  9.000E+02 1.000E+03 2.220E+00 1.697E-04 3.961E-05 0.000E+00 2.093E-04 2.220E+00 3.970E+02  1.8836 0.99447
  1.000E+03 1.101E+03 2.237E+00 1.942E-04 5.110E-05 0.000E+00 2.452E-04 2.237E+00 4.419E+02  2.0247 0.99542
  1.200E+03 1.301E+03 2.267E+00 2.453E-04 7.761E-05 2.258E-05 3.455E-04 2.267E+00 5.307E+02  2.2795 0.99672
  1.400E+03 1.502E+03 2.293E+00 2.992E-04 1.084E-04 6.194E-05 4.696E-04 2.293E+00 6.184E+02  2.5048 0.99753
  1.700E+03 1.803E+03 2.327E+00 3.845E-04 1.618E-04 1.332E-04 6.795E-04 2.327E+00 7.483E+02  2.8007 0.99829
  2.000E+03 2.103E+03 2.355E+00 4.745E-04 2.228E-04 2.176E-04 9.149E-04 2.356E+00 8.764E+02  3.0581 0.99874
  2.500E+03 2.604E+03 2.395E+00 6.331E-04 3.391E-04 3.818E-04 1.354E-03 2.396E+00 1.087E+03  3.4248 0.99918
  3.000E+03 3.104E+03 2.426E+00 8.011E-04 4.712E-04 5.553E-04 1.828E-03 2.428E+00 1.294E+03  3.7348 0.99942
  3.500E+03 3.604E+03 2.453E+00 9.770E-04 6.168E-04 7.400E-04 2.334E-03 2.455E+00 1.499E+03  4.0036 0.99957
  4.000E+03 4.104E+03 2.476E+00 1.160E-03 7.907E-04 9.380E-04 2.889E-03 2.479E+00 1.702E+03  4.2408 0.99967
  4.500E+03 4.604E+03 2.496E+00 1.349E-03 9.823E-04 1.145E-03 3.476E-03 2.499E+00 1.902E+03  4.4533 0.99974
  5.000E+03 5.105E+03 2.513E+00 1.544E-03 1.186E-03 1.344E-03 4.073E-03 2.517E+00 2.102E+03  4.6457 0.99979
  5.500E+03 5.605E+03 2.529E+00 1.744E-03 1.400E-03 1.559E-03 4.702E-03 2.534E+00 2.300E+03  4.8215 0.99982
  6.000E+03 6.105E+03 2.543E+00 1.948E-03 1.623E-03 1.760E-03 5.332E-03 2.549E+00 2.497E+03  4.9833 0.99985
  7.000E+03 7.105E+03 2.568E+00 2.370E-03 2.098E-03 2.186E-03 6.654E-03 2.575E+00 2.887E+03  5.2730 0.99989
  8.000E+03 8.105E+03 2.589E+00 2.807E-03 2.604E-03 2.611E-03 8.022E-03 2.597E+00 3.274E+03  5.5267 0.99992
  9.000E+03 9.105E+03 2.608E+00 3.257E-03 3.137E-03 3.012E-03 9.406E-03 2.617E+00 3.657E+03  5.7523 0.99993
  1.000E+04 1.011E+04 2.624E+00 3.719E-03 3.696E-03 3.426E-03 1.084E-02 2.635E+00 4.038E+03  5.9555 0.99995
  1.200E+04 1.211E+04 2.652E+00 4.674E-03 4.879E-03 4.269E-03 1.382E-02 2.665E+00 4.793E+03  6.3097 0.99996
  1.400E+04 1.411E+04 2.674E+00 5.666E-03 6.137E-03 5.117E-03 1.692E-02 2.691E+00 5.539E+03  6.6114 0.99997
  1.700E+04 1.711E+04 2.702E+00 7.212E-03 8.142E-03 6.376E-03 2.173E-02 2.724E+00 6.647E+03  6.9936 0.99998
  2.000E+04 2.011E+04 2.725E+00 8.815E-03 1.027E-02 7.616E-03 2.670E-02 2.752E+00 7.743E+03  7.3151 0.99999
  2.500E+04 2.511E+04 2.756E+00 1.160E-02 1.402E-02 9.659E-03 3.527E-02 2.792E+00 9.547E+03  7.7582 0.99999
  3.000E+04 3.011E+04 2.781E+00 1.449E-02 1.799E-02 1.167E-02 4.415E-02 2.825E+00 1.133E+04  8.1212 0.99999
  3.500E+04 3.511E+04 2.801E+00 1.747E-02 2.214E-02 1.371E-02 5.332E-02 2.855E+00 1.309E+04  8.4284 1.00000
  4.000E+04 4.011E+04 2.819E+00 2.053E-02 2.644E-02 1.573E-02 6.270E-02 2.881E+00 1.483E+04  8.6947 1.00000
  4.500E+04 4.511E+04 2.834E+00 2.365E-02 3.087E-02 1.773E-02 7.225E-02 2.906E+00 1.656E+04  8.9297 1.00000
  5.000E+04 5.011E+04 2.847E+00 2.684E-02 3.541E-02 1.973E-02 8.198E-02 2.929E+00 1.827E+04  9.1400 1.00000
  5.500E+04 5.511E+04 2.859E+00 3.008E-02 4.004E-02 2.175E-02 9.187E-02 2.951E+00 1.997E+04  9.3302 1.00000
  6.000E+04 6.011E+04 2.870E+00 3.337E-02 4.477E-02 2.375E-02 1.019E-01 2.972E+00 2.166E+04  9.5039 1.00000
  7.000E+04 7.011E+04 2.889E+00 4.007E-02 5.444E-02 2.772E-02 1.222E-01 3.012E+00 2.500E+04  9.8117 1.00000
  8.000E+04 8.011E+04 2.906E+00 4.692E-02 6.438E-02 3.171E-02 1.430E-01 3.049E+00 2.830E+04 10.0784 1.00000
  9.000E+04 9.011E+04 2.920E+00 5.390E-02 7.454E-02 3.571E-02 1.641E-01 3.084E+00 3.157E+04 10.3137 1.00000
  1.000E+05 1.001E+05 2.933E+00 6.099E-02 8.489E-02 3.963E-02 1.855E-01 3.119E+00 3.479E+04 10.5241 1.00000
  1.200E+05 1.201E+05 2.955E+00 7.545E-02 1.061E-01 4.764E-02 2.291E-01 3.184E+00 4.114E+04 10.8884 1.00000
  1.400E+05 1.401E+05 2.973E+00 9.024E-02 1.277E-01 5.565E-02 2.736E-01 3.247E+00 4.736E+04 11.1965 1.00000
  1.700E+05 1.701E+05 2.997E+00 1.129E-01 1.610E-01 6.770E-02 3.416E-01 3.338E+00 5.647E+04 11.5845 1.00000
  2.000E+05 2.001E+05 3.016E+00 1.361E-01 1.951E-01 7.983E-02 4.109E-01 3.427E+00 6.534E+04 11.9094 1.00000
  2.500E+05 2.501E+05 3.042E+00 1.755E-01 2.530E-01 1.001E-01 5.286E-01 3.571E+00 7.964E+04 12.3555 1.00000
  3.000E+05 3.001E+05 3.064E+00 2.158E-01 3.121E-01 1.206E-01 6.485E-01 3.712E+00 9.337E+04 12.7200 1.00000
  3.500E+05 3.501E+05 3.082E+00 2.568E-01 3.721E-01 1.414E-01 7.702E-01 3.852E+00 1.066E+05 13.0282 1.00000
  4.000E+05 4.001E+05 3.098E+00 2.983E-01 4.327E-01 1.622E-01 8.933E-01 3.991E+00 1.194E+05 13.2951 1.00000
  4.500E+05 4.501E+05 3.112E+00 3.402E-01 4.940E-01 1.832E-01 1.017E+00 4.129E+00 1.317E+05 13.5307 1.00000
  5.000E+05 5.001E+05 3.124E+00 3.826E-01 5.558E-01 2.044E-01 1.143E+00 4.267E+00 1.436E+05 13.7413 1.00000
  5.500E+05 5.501E+05 3.136E+00 4.254E-01 6.179E-01 2.254E-01 1.269E+00 4.404E+00 1.551E+05 13.9319 1.00000
  6.000E+05 6.001E+05 3.146E+00 4.685E-01 6.804E-01 2.466E-01 1.395E+00 4.541E+00 1.663E+05 14.1059 1.00000
  7.000E+05 7.001E+05 3.164E+00 5.554E-01 8.063E-01 2.893E-01 1.651E+00 4.815E+00 1.877E+05 14.4142 1.00000
  8.000E+05 8.001E+05 3.180E+00 6.432E-01 9.331E-01 3.324E-01 1.909E+00 5.089E+00 2.079E+05 14.6812 1.00000
  9.000E+05 9.001E+05 3.195E+00 7.318E-01 1.061E+00 3.760E-01 2.169E+00 5.363E+00 2.270E+05 14.9167 1.00000
  1.000E+06 1.000E+06 3.207E+00 8.211E-01 1.189E+00 4.200E-01 2.430E+00 5.637E+00 2.452E+05 15.1274 1.00000
  1.200E+06 1.200E+06 3.229E+00 1.001E+00 1.447E+00 5.091E-01 2.957E+00 6.187E+00 2.791E+05 15.4920 1.00000
  1.400E+06 1.400E+06 3.248E+00 1.183E+00 1.707E+00 5.995E-01 3.489E+00 6.737E+00 3.101E+05 15.8003 1.00000
  1.700E+06 1.700E+06 3.272E+00 1.458E+00 2.099E+00 7.372E-01 4.294E+00 7.566E+00 3.522E+05 16.1886 1.00000
  2.000E+06 2.000E+06 3.292E+00 1.736E+00 2.492E+00 8.772E-01 5.105E+00 8.397E+00 3.899E+05 16.5136 1.00000
  2.500E+06 2.500E+06 3.320E+00 2.202E+00 3.152E+00 1.115E+00 6.469E+00 9.789E+00 4.452E+05 16.9599 1.00000
  3.000E+06 3.000E+06 3.343E+00 2.673E+00 3.814E+00 1.357E+00 7.844E+00 1.119E+01 4.931E+05 17.3245 1.00000
  3.500E+06 3.500E+06 3.362E+00 3.146E+00 4.479E+00 1.603E+00 9.228E+00 1.259E+01 5.353E+05 17.6328 1.00000
  4.000E+06 4.000E+06 3.379E+00 3.622E+00 5.145E+00 1.853E+00 1.062E+01 1.400E+01 5.730E+05 17.8998 1.00000
  4.500E+06 4.500E+06 3.394E+00 4.099E+00 5.812E+00 2.106E+00 1.202E+01 1.541E+01 6.071E+05 18.1354 1.00000
  5.000E+06 5.000E+06 3.408E+00 4.578E+00 6.481E+00 2.361E+00 1.342E+01 1.683E+01 6.382E+05 18.3461 1.00000
  5.500E+06 5.500E+06 3.420E+00 5.058E+00 7.150E+00 2.620E+00 1.483E+01 1.825E+01 6.668E+05 18.5367 1.00000
  6.000E+06 6.000E+06 3.431E+00 5.540E+00 7.820E+00 2.880E+00 1.624E+01 1.967E+01 6.932E+05 18.7108 1.00000
  7.000E+06 7.000E+06 3.451E+00 6.505E+00 9.161E+00 3.409E+00 1.908E+01 2.253E+01 7.408E+05 19.0190 1.00000
  8.000E+06 8.000E+06 3.469E+00 7.474E+00 1.050E+01 3.944E+00 2.192E+01 2.539E+01 7.827E+05 19.2861 1.00000
  9.000E+06 9.000E+06 3.484E+00 8.445E+00 1.185E+01 4.487E+00 2.478E+01 2.827E+01 8.200E+05 19.5217 1.00000
  1.000E+07 1.000E+07 3.498E+00 9.418E+00 1.319E+01 5.037E+00 2.765E+01 3.115E+01 8.538E+05 19.7324 1.00000
  1.200E+07 1.200E+07 3.523E+00 1.137E+01 1.589E+01 6.153E+00 3.341E+01 3.693E+01 9.130E+05 20.0970 1.00000
  1.400E+07 1.400E+07 3.543E+00 1.332E+01 1.859E+01 7.288E+00 3.920E+01 4.274E+01 9.634E+05 20.4053 1.00000
  1.700E+07 1.700E+07 3.570E+00 1.626E+01 2.263E+01 9.024E+00 4.792E+01 5.149E+01 1.028E+06 20.7936 1.00000
  2.000E+07 2.000E+07 3.592E+00 1.921E+01 2.668E+01 1.079E+01 5.669E+01 6.028E+01 1.082E+06 21.1187 1.00000
  2.500E+07 2.500E+07 3.622E+00 2.413E+01 3.344E+01 1.381E+01 7.138E+01 7.500E+01 1.156E+06 21.5650 1.00000
  3.000E+07 3.000E+07 3.648E+00 2.906E+01 4.020E+01 1.688E+01 8.615E+01 8.980E+01 1.218E+06 21.9296 1.00000
  3.500E+07 3.500E+07 3.669E+00 3.400E+01 4.697E+01 2.002E+01 1.010E+02 1.047E+02 1.269E+06 22.2379 1.00000
  4.000E+07 4.000E+07 3.688E+00 3.894E+01 5.373E+01 2.321E+01 1.159E+02 1.196E+02 1.314E+06 22.5050 1.00000
  4.500E+07 4.500E+07 3.705E+00 4.388E+01 6.050E+01 2.644E+01 1.308E+02 1.345E+02 1.354E+06 22.7405 1.00000
  5.000E+07 5.000E+07 3.720E+00 4.883E+01 6.727E+01 2.971E+01 1.458E+02 1.495E+02 1.389E+06 22.9512 1.00000
  5.500E+07 5.500E+07 3.733E+00 5.378E+01 7.404E+01 3.301E+01 1.608E+02 1.646E+02 1.421E+06 23.1419 1.00000
  6.000E+07 6.000E+07 3.746E+00 5.874E+01 8.081E+01 3.635E+01 1.759E+02 1.796E+02 1.450E+06 23.3159 1.00000
  7.000E+07 7.000E+07 3.768E+00 6.865E+01 9.435E+01 4.313E+01 2.061E+02 2.099E+02 1.502E+06 23.6242 1.00000
  8.000E+07 8.000E+07 3.788E+00 7.856E+01 1.079E+02 5.001E+01 2.365E+02 2.403E+02 1.546E+06 23.8913 1.00000
  9.000E+07 9.000E+07 3.805E+00 8.848E+01 1.214E+02 5.699E+01 2.669E+02 2.707E+02 1.586E+06 24.1268 1.00000
  1.000E+08 1.000E+08 3.821E+00 9.840E+01 1.350E+02 6.406E+01 2.974E+02 3.013E+02 1.621E+06 24.3375 1.00000
  1.200E+08 1.200E+08 3.848E+00 1.183E+02 1.621E+02 7.843E+01 3.588E+02 3.626E+02 1.681E+06 24.7022 1.00000
  1.400E+08 1.400E+08 3.871E+00 1.381E+02 1.892E+02 9.307E+01 4.204E+02 4.243E+02 1.733E+06 25.0105 1.00000
  1.700E+08 1.700E+08 3.900E+00 1.679E+02 2.298E+02 1.155E+02 5.133E+02 5.172E+02 1.797E+06 25.3988 1.00000
  2.000E+08 2.000E+08 3.925E+00 1.977E+02 2.705E+02 1.384E+02 6.066E+02 6.105E+02 1.850E+06 25.7238 1.00000
  2.500E+08 2.500E+08 3.959E+00 2.474E+02 3.383E+02 1.773E+02 7.630E+02 7.670E+02 1.924E+06 26.1701 1.00000
  3.000E+08 3.000E+08 3.987E+00 2.972E+02 4.060E+02 2.172E+02 9.204E+02 9.244E+02 1.984E+06 26.5348 1.00000
  3.500E+08 3.500E+08 4.011E+00 3.469E+02 4.738E+02 2.579E+02 1.079E+03 1.083E+03 2.034E+06 26.8431 1.00000
  4.000E+08 4.000E+08 4.032E+00 3.966E+02 5.416E+02 2.993E+02 1.237E+03 1.241E+03 2.077E+06 27.1101 1.00000
  4.500E+08 4.500E+08 4.051E+00 4.463E+02 6.093E+02 3.412E+02 1.397E+03 1.401E+03 2.115E+06 27.3457 1.00000
  5.000E+08 5.000E+08 4.068E+00 4.961E+02 6.771E+02 3.838E+02 1.557E+03 1.561E+03 2.149E+06 27.5564 1.00000
  5.500E+08 5.500E+08 4.083E+00 5.458E+02 7.449E+02 4.268E+02 1.717E+03 1.722E+03 2.179E+06 27.7470 1.00000
  6.000E+08 6.000E+08 4.097E+00 5.956E+02 8.126E+02 4.703E+02 1.878E+03 1.883E+03 2.207E+06 27.9211 1.00000
  7.000E+08 7.000E+08 4.122E+00 6.951E+02 9.482E+02 5.585E+02 2.202E+03 2.206E+03 2.256E+06 28.2294 1.00000
  8.000E+08 8.000E+08 4.143E+00 7.946E+02 1.084E+03 6.482E+02 2.526E+03 2.531E+03 2.299E+06 28.4964 1.00000
  9.000E+08 9.000E+08 4.163E+00 8.941E+02 1.219E+03 7.393E+02 2.853E+03 2.857E+03 2.336E+06 28.7320 1.00000
  1.000E+09 1.000E+09 4.180E+00 9.936E+02 1.355E+03 8.315E+02 3.180E+03 3.184E+03 2.369E+06 28.9427 1.00000
