 Incident particle is a Muon with M = 105.65839 MeV
 Index = 0: Palladium
      Absorber with <Z/A> = 0.43225
 Sternheimer coef:  a     k=m_s   x_0    x_1    I[eV]   Cbar  delta0
                 0.2418  2.7239  0.0563  3.0555  470.0  4.9358 0.14

 *** Table generated with PUMAS v1.00 ***

      T         p     Ionization  brems     pair     photonuc  Radloss    dE/dx   CSDA Range  delta   beta
    [MeV]    [MeV/c]  -----------------------[MeV cm^2/g]------------------------  [g/cm^2]
  1.000E+00 1.457E+01 2.630E+01 3.586E-06 0.000E+00 0.000E+00 3.586E-06 2.630E+01 1.901E-02  0.0021 0.13661
  1.200E+00 1.597E+01 2.304E+01 4.121E-06 0.000E+00 0.000E+00 4.121E-06 2.304E+01 2.716E-02  0.0025 0.14944
  1.400E+00 1.726E+01 2.058E+01 4.629E-06 0.000E+00 0.000E+00 4.629E-06 2.058E+01 3.635E-02  0.0029 0.16119
  1.700E+00 1.903E+01 1.782E+01 5.348E-06 0.000E+00 0.000E+00 5.348E-06 1.782E+01 5.206E-02  0.0035 0.17725
  2.000E+00 2.066E+01 1.578E+01 6.024E-06 0.000E+00 0.000E+00 6.024E-06 1.578E+01 6.998E-02  0.0041 0.19186
  2.500E+00 2.312E+01 1.334E+01 7.075E-06 0.000E+00 0.000E+00 7.075E-06 1.334E+01 1.046E-01  0.0052 0.21376
  3.000E+00 2.536E+01 1.162E+01 8.048E-06 0.000E+00 0.000E+00 8.048E-06 1.162E+01 1.448E-01  0.0062 0.23336
  3.500E+00 2.742E+01 1.034E+01 8.959E-06 0.000E+00 0.000E+00 8.959E-06 1.034E+01 1.905E-01  0.0073 0.25120
  4.000E+00 2.935E+01 9.343E+00 9.818E-06 0.000E+00 0.000E+00 9.818E-06 9.343E+00 2.415E-01  0.0083 0.26763
  4.500E+00 3.116E+01 8.546E+00 1.063E-05 0.000E+00 0.000E+00 1.063E-05 8.546E+00 2.975E-01  0.0094 0.28290
  5.000E+00 3.289E+01 7.892E+00 1.141E-05 0.000E+00 0.000E+00 1.141E-05 7.892E+00 3.584E-01  0.0105 0.29720
  5.500E+00 3.453E+01 7.345E+00 1.215E-05 0.000E+00 0.000E+00 1.215E-05 7.345E+00 4.241E-01  0.0115 0.31066
  6.000E+00 3.611E+01 6.880E+00 1.286E-05 0.000E+00 0.000E+00 1.286E-05 6.880E+00 4.945E-01  0.0126 0.32339
  7.000E+00 3.909E+01 6.132E+00 1.420E-05 0.000E+00 0.000E+00 1.420E-05 6.132E+00 6.487E-01  0.0148 0.34700
  8.000E+00 4.189E+01 5.555E+00 1.546E-05 0.000E+00 0.000E+00 1.546E-05 5.555E+00 8.202E-01  0.0170 0.36854
  9.000E+00 4.453E+01 5.096E+00 1.665E-05 0.000E+00 0.000E+00 1.665E-05 5.096E+00 1.008E+00  0.0192 0.38836
  1.000E+01 4.704E+01 4.721E+00 1.777E-05 0.000E+00 0.000E+00 1.777E-05 4.721E+00 1.212E+00  0.0214 0.40675
  1.200E+01 5.177E+01 4.145E+00 1.987E-05 0.000E+00 0.000E+00 1.987E-05 4.145E+00 1.665E+00  0.0259 0.43998
  1.400E+01 5.616E+01 3.723E+00 2.181E-05 0.000E+00 0.000E+00 2.181E-05 3.723E+00 2.175E+00  0.0305 0.46937
  1.700E+01 6.230E+01 3.265E+00 2.450E-05 0.000E+00 0.000E+00 2.450E-05 3.265E+00 3.038E+00  0.0376 0.50792
  2.000E+01 6.802E+01 2.937E+00 2.699E-05 0.000E+00 0.000E+00 2.699E-05 2.937E+00 4.008E+00  0.0448 0.54129
  2.500E+01 7.686E+01 2.557E+00 3.085E-05 0.000E+00 0.000E+00 3.085E-05 2.557E+00 5.837E+00  0.0572 0.58827
  3.000E+01 8.509E+01 2.300E+00 3.446E-05 0.000E+00 0.000E+00 3.446E-05 2.300E+00 7.901E+00  0.0701 0.62720
  3.500E+01 9.285E+01 2.115E+00 3.792E-05 0.000E+00 0.000E+00 3.792E-05 2.115E+00 1.017E+01  0.0834 0.66011
  4.000E+01 1.003E+02 1.975E+00 4.128E-05 0.000E+00 0.000E+00 4.128E-05 1.975E+00 1.262E+01  0.0973 0.68834
  4.500E+01 1.074E+02 1.867E+00 4.458E-05 0.000E+00 0.000E+00 4.458E-05 1.867E+00 1.522E+01  0.1116 0.71286
  5.000E+01 1.143E+02 1.780E+00 4.785E-05 0.000E+00 0.000E+00 4.785E-05 1.780E+00 1.797E+01  0.1264 0.73434
  5.500E+01 1.210E+02 1.710E+00 5.110E-05 0.000E+00 0.000E+00 5.110E-05 1.710E+00 2.083E+01  0.1410 0.75332
  6.000E+01 1.276E+02 1.653E+00 5.434E-05 0.000E+00 0.000E+00 5.434E-05 1.653E+00 2.381E+01  0.1471 0.77019
  7.000E+01 1.403E+02 1.565E+00 6.086E-05 0.000E+00 0.000E+00 6.086E-05 1.565E+00 3.003E+01  0.1614 0.79887
  8.000E+01 1.527E+02 1.501E+00 6.746E-05 0.000E+00 0.000E+00 6.746E-05 1.501E+00 3.655E+01  0.1776 0.82227
  9.000E+01 1.647E+02 1.454E+00 7.416E-05 0.000E+00 0.000E+00 7.416E-05 1.454E+00 4.332E+01  0.1950 0.84166
  1.000E+02 1.764E+02 1.417E+00 8.098E-05 0.000E+00 0.000E+00 8.098E-05 1.417E+00 5.029E+01  0.2131 0.85794
  1.200E+02 1.994E+02 1.367E+00 9.503E-05 0.000E+00 0.000E+00 9.503E-05 1.367E+00 6.466E+01  0.2505 0.88361
  1.400E+02 2.218E+02 1.335E+00 1.096E-04 0.000E+00 0.000E+00 1.096E-04 1.335E+00 7.946E+01  0.2885 0.90278
  1.700E+02 2.546E+02 1.308E+00 1.326E-04 0.000E+00 0.000E+00 1.326E-04 1.308E+00 1.022E+02  0.3453 0.92363
  2.000E+02 2.868E+02 1.295E+00 1.569E-04 0.000E+00 0.000E+00 1.569E-04 1.295E+00 1.252E+02  0.4009 0.93835
  2.500E+02 3.396E+02 1.289E+00 1.998E-04 0.000E+00 0.000E+00 1.998E-04 1.289E+00 1.639E+02  0.4904 0.95485
  3.000E+02 3.917E+02 1.292E+00 2.458E-04 0.000E+00 0.000E+00 2.458E-04 1.292E+00 2.026E+02  0.5752 0.96548
  3.500E+02 4.432E+02 1.300E+00 2.944E-04 0.000E+00 0.000E+00 2.944E-04 1.300E+00 2.412E+02  0.6557 0.97274
  4.000E+02 4.945E+02 1.309E+00 3.456E-04 1.875E-05 0.000E+00 3.644E-04 1.310E+00 2.795E+02  0.7320 0.97793
  4.500E+02 5.455E+02 1.320E+00 3.992E-04 3.332E-05 0.000E+00 4.325E-04 1.321E+00 3.176E+02  0.8046 0.98176
  5.000E+02 5.964E+02 1.331E+00 4.548E-04 4.997E-05 0.000E+00 5.048E-04 1.332E+00 3.553E+02  0.8739 0.98467
  5.500E+02 6.471E+02 1.342E+00 5.125E-04 6.957E-05 0.000E+00 5.821E-04 1.343E+00 3.927E+02  0.9400 0.98693
  6.000E+02 6.977E+02 1.353E+00 5.721E-04 9.210E-05 0.000E+00 6.642E-04 1.353E+00 4.298E+02  1.0033 0.98873
  7.000E+02 7.987E+02 1.373E+00 6.965E-04 1.456E-04 0.000E+00 8.420E-04 1.374E+00 5.031E+02  1.1224 0.99136
  8.000E+02 8.995E+02 1.392E+00 8.272E-04 2.096E-04 0.000E+00 1.037E-03 1.393E+00 5.754E+02  1.2327 0.99317
  9.000E+02 1.000E+03 1.409E+00 9.638E-04 2.835E-04 0.000E+00 1.247E-03 1.410E+00 6.467E+02  1.3356 0.99447
  1.000E+03 1.101E+03 1.425E+00 1.106E-03 3.668E-04 0.000E+00 1.472E-03 1.427E+00 7.172E+02  1.4320 0.99542
  1.200E+03 1.301E+03 1.454E+00 1.403E-03 5.592E-04 2.247E-05 1.985E-03 1.455E+00 8.560E+02  1.6086 0.99672
  1.400E+03 1.502E+03 1.478E+00 1.718E-03 7.829E-04 6.105E-05 2.562E-03 1.481E+00 9.923E+02  1.7675 0.99753
  1.700E+03 1.803E+03 1.509E+00 2.217E-03 1.171E-03 1.296E-04 3.518E-03 1.513E+00 1.193E+03  1.9798 0.99829
  2.000E+03 2.103E+03 1.535E+00 2.745E-03 1.614E-03 2.095E-04 4.568E-03 1.540E+00 1.389E+03  2.1678 0.99874
  2.500E+03 2.604E+03 1.571E+00 3.677E-03 2.460E-03 3.623E-04 6.499E-03 1.578E+00 1.710E+03  2.4407 0.99918
  3.000E+03 3.104E+03 1.600E+00 4.665E-03 3.420E-03 5.208E-04 8.606E-03 1.609E+00 2.024E+03  2.6761 0.99942
  3.500E+03 3.604E+03 1.624E+00 5.701E-03 4.478E-03 6.874E-04 1.087E-02 1.635E+00 2.332E+03  2.8834 0.99957
  4.000E+03 4.104E+03 1.645E+00 6.778E-03 5.633E-03 8.643E-04 1.328E-02 1.658E+00 2.636E+03  3.0690 0.99967
  4.500E+03 4.604E+03 1.663E+00 7.891E-03 6.870E-03 1.047E-03 1.581E-02 1.678E+00 2.936E+03  3.2373 0.99974
  5.000E+03 5.105E+03 1.678E+00 9.037E-03 8.177E-03 1.222E-03 1.844E-02 1.697E+00 3.232E+03  3.3912 0.99979
  5.500E+03 5.605E+03 1.692E+00 1.021E-02 9.546E-03 1.411E-03 2.117E-02 1.714E+00 3.525E+03  3.5332 0.99982
  6.000E+03 6.105E+03 1.705E+00 1.141E-02 1.097E-02 1.585E-03 2.397E-02 1.729E+00 3.816E+03  3.6651 0.99985
  7.000E+03 7.105E+03 1.727E+00 1.389E-02 1.398E-02 1.955E-03 2.983E-02 1.757E+00 4.389E+03  3.9038 0.99989
  8.000E+03 8.105E+03 1.746E+00 1.645E-02 1.718E-02 2.320E-03 3.594E-02 1.782E+00 4.955E+03  4.1156 0.99992
  9.000E+03 9.105E+03 1.762E+00 1.908E-02 2.053E-02 2.662E-03 4.227E-02 1.804E+00 5.512E+03  4.3063 0.99993
  1.000E+04 1.011E+04 1.776E+00 2.178E-02 2.403E-02 3.015E-03 4.882E-02 1.825E+00 6.064E+03  4.4797 0.99995
  1.200E+04 1.211E+04 1.800E+00 2.735E-02 3.138E-02 3.727E-03 6.246E-02 1.862E+00 7.149E+03  4.7860 0.99996
  1.400E+04 1.411E+04 1.819E+00 3.312E-02 3.916E-02 4.438E-03 7.672E-02 1.896E+00 8.213E+03  5.0508 0.99997
  1.700E+04 1.711E+04 1.843E+00 4.207E-02 5.148E-02 5.487E-03 9.904E-02 1.942E+00 9.777E+03  5.3915 0.99998
  2.000E+04 2.011E+04 1.862E+00 5.134E-02 6.443E-02 6.512E-03 1.223E-01 1.985E+00 1.130E+04  5.6825 0.99999
  2.500E+04 2.511E+04 1.888E+00 6.734E-02 8.717E-02 8.191E-03 1.627E-01 2.050E+00 1.378E+04  6.0899 0.99999
  3.000E+04 3.011E+04 1.908E+00 8.391E-02 1.110E-01 9.833E-03 2.048E-01 2.112E+00 1.619E+04  6.4290 0.99999
  3.500E+04 3.511E+04 1.924E+00 1.009E-01 1.358E-01 1.149E-02 2.483E-01 2.172E+00 1.852E+04  6.7198 1.00000
  4.000E+04 4.011E+04 1.938E+00 1.184E-01 1.614E-01 1.312E-02 2.929E-01 2.231E+00 2.079E+04  6.9744 1.00000
  4.500E+04 4.511E+04 1.950E+00 1.361E-01 1.875E-01 1.473E-02 3.384E-01 2.288E+00 2.301E+04  7.2008 1.00000
  5.000E+04 5.011E+04 1.960E+00 1.542E-01 2.142E-01 1.634E-02 3.848E-01 2.345E+00 2.516E+04  7.4048 1.00000
  5.500E+04 5.511E+04 1.970E+00 1.725E-01 2.414E-01 1.795E-02 4.319E-01 2.401E+00 2.727E+04  7.5904 1.00000
  6.000E+04 6.011E+04 1.978E+00 1.911E-01 2.690E-01 1.955E-02 4.796E-01 2.458E+00 2.933E+04  7.7606 1.00000
  7.000E+04 7.011E+04 1.993E+00 2.288E-01 3.253E-01 2.272E-02 5.768E-01 2.569E+00 3.331E+04  8.0639 1.00000
  8.000E+04 8.011E+04 2.005E+00 2.672E-01 3.827E-01 2.589E-02 6.758E-01 2.681E+00 3.712E+04  8.3281 1.00000
  9.000E+04 9.011E+04 2.016E+00 3.063E-01 4.411E-01 2.905E-02 7.764E-01 2.792E+00 4.078E+04  8.5621 1.00000
  1.000E+05 1.001E+05 2.025E+00 3.458E-01 5.004E-01 3.216E-02 8.783E-01 2.904E+00 4.429E+04  8.7720 1.00000
  1.200E+05 1.201E+05 2.042E+00 4.263E-01 6.209E-01 3.847E-02 1.086E+00 3.128E+00 5.093E+04  9.1360 1.00000
  1.400E+05 1.401E+05 2.056E+00 5.082E-01 7.437E-01 4.478E-02 1.297E+00 3.352E+00 5.711E+04  9.4441 1.00000
  1.700E+05 1.701E+05 2.073E+00 6.334E-01 9.310E-01 5.424E-02 1.619E+00 3.692E+00 6.565E+04  9.8321 1.00000
  2.000E+05 2.001E+05 2.087E+00 7.607E-01 1.121E+00 6.374E-02 1.946E+00 4.033E+00 7.343E+04 10.1570 1.00000
  2.500E+05 2.501E+05 2.107E+00 9.767E-01 1.443E+00 7.960E-02 2.499E+00 4.607E+00 8.506E+04 10.6031 1.00000
  3.000E+05 3.001E+05 2.123E+00 1.196E+00 1.769E+00 9.557E-02 3.061E+00 5.185E+00 9.531E+04 10.9676 1.00000
  3.500E+05 3.501E+05 2.137E+00 1.419E+00 2.099E+00 1.117E-01 3.630E+00 5.767E+00 1.045E+05 11.2758 1.00000
  4.000E+05 4.001E+05 2.149E+00 1.644E+00 2.431E+00 1.279E-01 4.203E+00 6.352E+00 1.127E+05 11.5427 1.00000
  4.500E+05 4.501E+05 2.159E+00 1.870E+00 2.766E+00 1.442E-01 4.780E+00 6.939E+00 1.203E+05 11.7783 1.00000
  5.000E+05 5.001E+05 2.169E+00 2.099E+00 3.102E+00 1.607E-01 5.361E+00 7.530E+00 1.272E+05 11.9889 1.00000
  5.500E+05 5.501E+05 2.177E+00 2.328E+00 3.439E+00 1.770E-01 5.944E+00 8.121E+00 1.336E+05 12.1795 1.00000
  6.000E+05 6.001E+05 2.185E+00 2.559E+00 3.778E+00 1.933E-01 6.530E+00 8.715E+00 1.395E+05 12.3535 1.00000
  7.000E+05 7.001E+05 2.199E+00 3.025E+00 4.458E+00 2.264E-01 7.709E+00 9.907E+00 1.503E+05 12.6618 1.00000
  8.000E+05 8.001E+05 2.211E+00 3.493E+00 5.141E+00 2.598E-01 8.894E+00 1.110E+01 1.599E+05 12.9288 1.00000
  9.000E+05 9.001E+05 2.221E+00 3.965E+00 5.827E+00 2.935E-01 1.009E+01 1.231E+01 1.684E+05 13.1643 1.00000
  1.000E+06 1.000E+06 2.231E+00 4.439E+00 6.515E+00 3.275E-01 1.128E+01 1.351E+01 1.762E+05 13.3750 1.00000
  1.200E+06 1.200E+06 2.247E+00 5.392E+00 7.896E+00 3.963E-01 1.369E+01 1.593E+01 1.899E+05 13.7396 1.00000
  1.400E+06 1.400E+06 2.261E+00 6.352E+00 9.283E+00 4.661E-01 1.610E+01 1.836E+01 2.016E+05 14.0479 1.00000
  1.700E+06 1.700E+06 2.279E+00 7.801E+00 1.137E+01 5.724E-01 1.974E+01 2.202E+01 2.166E+05 14.4362 1.00000
  2.000E+06 2.000E+06 2.294E+00 9.258E+00 1.346E+01 6.804E-01 2.340E+01 2.570E+01 2.292E+05 14.7612 1.00000
  2.500E+06 2.500E+06 2.315E+00 1.170E+01 1.696E+01 8.636E-01 2.952E+01 3.184E+01 2.468E+05 15.2075 1.00000
  3.000E+06 3.000E+06 2.332E+00 1.415E+01 2.047E+01 1.050E+00 3.567E+01 3.800E+01 2.612E+05 15.5721 1.00000
  3.500E+06 3.500E+06 2.347E+00 1.662E+01 2.398E+01 1.240E+00 4.184E+01 4.419E+01 2.735E+05 15.8804 1.00000
  4.000E+06 4.000E+06 2.359E+00 1.909E+01 2.750E+01 1.433E+00 4.802E+01 5.038E+01 2.841E+05 16.1474 1.00000
  4.500E+06 4.500E+06 2.371E+00 2.156E+01 3.102E+01 1.627E+00 5.421E+01 5.658E+01 2.935E+05 16.3830 1.00000
  5.000E+06 5.000E+06 2.381E+00 2.404E+01 3.455E+01 1.824E+00 6.041E+01 6.280E+01 3.019E+05 16.5937 1.00000
  5.500E+06 5.500E+06 2.390E+00 2.653E+01 3.807E+01 2.023E+00 6.662E+01 6.901E+01 3.095E+05 16.7843 1.00000
  6.000E+06 6.000E+06 2.398E+00 2.902E+01 4.160E+01 2.224E+00 7.284E+01 7.524E+01 3.164E+05 16.9584 1.00000
  7.000E+06 7.000E+06 2.413E+00 3.400E+01 4.867E+01 2.631E+00 8.530E+01 8.771E+01 3.288E+05 17.2666 1.00000
  8.000E+06 8.000E+06 2.426E+00 3.899E+01 5.574E+01 3.044E+00 9.777E+01 1.002E+02 3.395E+05 17.5337 1.00000
  9.000E+06 9.000E+06 2.438E+00 4.399E+01 6.281E+01 3.462E+00 1.103E+02 1.127E+02 3.489E+05 17.7693 1.00000
  1.000E+07 1.000E+07 2.449E+00 4.899E+01 6.989E+01 3.885E+00 1.228E+02 1.252E+02 3.573E+05 17.9800 1.00000
  1.200E+07 1.200E+07 2.467E+00 5.901E+01 8.405E+01 4.744E+00 1.478E+02 1.503E+02 3.720E+05 18.3446 1.00000
  1.400E+07 1.400E+07 2.482E+00 6.904E+01 9.822E+01 5.619E+00 1.729E+02 1.754E+02 3.843E+05 18.6529 1.00000
  1.700E+07 1.700E+07 2.502E+00 8.411E+01 1.195E+02 6.955E+00 2.106E+02 2.131E+02 3.999E+05 19.0412 1.00000
  2.000E+07 2.000E+07 2.518E+00 9.920E+01 1.408E+02 8.317E+00 2.483E+02 2.508E+02 4.129E+05 19.3663 1.00000
  2.500E+07 2.500E+07 2.541E+00 1.244E+02 1.762E+02 1.064E+01 3.112E+02 3.138E+02 4.309E+05 19.8126 1.00000
  3.000E+07 3.000E+07 2.560E+00 1.495E+02 2.117E+02 1.301E+01 3.743E+02 3.768E+02 4.455E+05 20.1772 1.00000
  3.500E+07 3.500E+07 2.576E+00 1.747E+02 2.472E+02 1.542E+01 4.374E+02 4.399E+02 4.578E+05 20.4855 1.00000
  4.000E+07 4.000E+07 2.591E+00 2.000E+02 2.827E+02 1.787E+01 5.005E+02 5.031E+02 4.684E+05 20.7526 1.00000
  4.500E+07 4.500E+07 2.603E+00 2.252E+02 3.182E+02 2.036E+01 5.637E+02 5.663E+02 4.778E+05 20.9881 1.00000
  5.000E+07 5.000E+07 2.614E+00 2.504E+02 3.537E+02 2.287E+01 6.270E+02 6.296E+02 4.862E+05 21.1988 1.00000
  5.500E+07 5.500E+07 2.624E+00 2.756E+02 3.892E+02 2.542E+01 6.903E+02 6.929E+02 4.938E+05 21.3895 1.00000
  6.000E+07 6.000E+07 2.634E+00 3.009E+02 4.247E+02 2.799E+01 7.536E+02 7.562E+02 5.007E+05 21.5635 1.00000
  7.000E+07 7.000E+07 2.651E+00 3.514E+02 4.957E+02 3.320E+01 8.803E+02 8.829E+02 5.130E+05 21.8718 1.00000
  8.000E+07 8.000E+07 2.665E+00 4.019E+02 5.668E+02 3.850E+01 1.007E+03 1.010E+03 5.236E+05 22.1389 1.00000
  9.000E+07 9.000E+07 2.678E+00 4.524E+02 6.378E+02 4.387E+01 1.134E+03 1.137E+03 5.329E+05 22.3744 1.00000
  1.000E+08 1.000E+08 2.690E+00 5.029E+02 7.088E+02 4.931E+01 1.261E+03 1.264E+03 5.413E+05 22.5851 1.00000
  1.200E+08 1.200E+08 2.710E+00 6.039E+02 8.509E+02 6.037E+01 1.515E+03 1.518E+03 5.558E+05 22.9498 1.00000
  1.400E+08 1.400E+08 2.727E+00 7.050E+02 9.930E+02 7.164E+01 1.770E+03 1.772E+03 5.680E+05 23.2581 1.00000
  1.700E+08 1.700E+08 2.749E+00 8.566E+02 1.206E+03 8.889E+01 2.152E+03 2.154E+03 5.835E+05 23.6464 1.00000
  2.000E+08 2.000E+08 2.767E+00 1.008E+03 1.419E+03 1.065E+02 2.534E+03 2.537E+03 5.963E+05 23.9714 1.00000
  2.500E+08 2.500E+08 2.793E+00 1.261E+03 1.775E+03 1.365E+02 3.172E+03 3.175E+03 6.141E+05 24.4177 1.00000
  3.000E+08 3.000E+08 2.814E+00 1.514E+03 2.130E+03 1.672E+02 3.811E+03 3.814E+03 6.285E+05 24.7824 1.00000
  3.500E+08 3.500E+08 2.832E+00 1.767E+03 2.485E+03 1.985E+02 4.450E+03 4.453E+03 6.407E+05 25.0907 1.00000
  4.000E+08 4.000E+08 2.848E+00 2.019E+03 2.840E+03 2.303E+02 5.090E+03 5.093E+03 6.512E+05 25.3577 1.00000
  4.500E+08 4.500E+08 2.862E+00 2.272E+03 3.195E+03 2.626E+02 5.730E+03 5.733E+03 6.605E+05 25.5933 1.00000
  5.000E+08 5.000E+08 2.874E+00 2.525E+03 3.551E+03 2.954E+02 6.371E+03 6.374E+03 6.687E+05 25.8040 1.00000
  5.500E+08 5.500E+08 2.886E+00 2.778E+03 3.906E+03 3.285E+02 7.012E+03 7.015E+03 6.762E+05 25.9946 1.00000
  6.000E+08 6.000E+08 2.896E+00 3.031E+03 4.261E+03 3.619E+02 7.654E+03 7.657E+03 6.831E+05 26.1687 1.00000
  7.000E+08 7.000E+08 2.915E+00 3.536E+03 4.972E+03 4.298E+02 8.938E+03 8.940E+03 6.952E+05 26.4770 1.00000
  8.000E+08 8.000E+08 2.931E+00 4.042E+03 5.682E+03 4.989E+02 1.022E+04 1.023E+04 7.057E+05 26.7440 1.00000
  9.000E+08 9.000E+08 2.946E+00 4.547E+03 6.392E+03 5.690E+02 1.151E+04 1.151E+04 7.149E+05 26.9796 1.00000
  1.000E+09 1.000E+09 2.959E+00 5.053E+03 7.103E+03 6.400E+02 1.280E+04 1.280E+04 7.231E+05 27.1903 1.00000
