 Incident particle is a Muon with M = 105.65839 MeV
 Index = 0: Paraffin
      Absorber with <Z/A> = 0.57264
 Sternheimer coef:  a     k=m_s   x_0    x_1    I[eV]   Cbar  delta0
                 0.1209  3.4288  0.1289  2.5084   55.9  2.9551 0.00

 *** Table generated with PUMAS v1.00 ***

      T         p     Ionization  brems     pair     photonuc  Radloss    dE/dx   CSDA Range  delta   beta
    [MeV]    [MeV/c]  -----------------------[MeV cm^2/g]------------------------  [g/cm^2]
  1.000E+00 1.457E+01 5.491E+01 6.069E-07 0.000E+00 0.000E+00 6.069E-07 5.491E+01 9.106E-03  0.0000 0.13661
  1.200E+00 1.597E+01 4.730E+01 6.939E-07 0.000E+00 0.000E+00 6.939E-07 4.730E+01 1.304E-02  0.0000 0.14944
  1.400E+00 1.726E+01 4.168E+01 7.771E-07 0.000E+00 0.000E+00 7.771E-07 4.168E+01 1.755E-02  0.0000 0.16119
  1.700E+00 1.903E+01 3.553E+01 8.959E-07 0.000E+00 0.000E+00 8.959E-07 3.553E+01 2.537E-02  0.0000 0.17725
  2.000E+00 2.066E+01 3.109E+01 1.009E-06 0.000E+00 0.000E+00 1.009E-06 3.109E+01 3.442E-02  0.0000 0.19186
  2.500E+00 2.312E+01 2.588E+01 1.186E-06 0.000E+00 0.000E+00 1.186E-06 2.588E+01 5.212E-02  0.0000 0.21376
  3.000E+00 2.536E+01 2.228E+01 1.351E-06 0.000E+00 0.000E+00 1.351E-06 2.228E+01 7.301E-02  0.0000 0.23336
  3.500E+00 2.742E+01 1.964E+01 1.508E-06 0.000E+00 0.000E+00 1.508E-06 1.964E+01 9.696E-02  0.0000 0.25120
  4.000E+00 2.935E+01 1.762E+01 1.657E-06 0.000E+00 0.000E+00 1.657E-06 1.762E+01 1.239E-01  0.0000 0.26763
  4.500E+00 3.116E+01 1.601E+01 1.800E-06 0.000E+00 0.000E+00 1.800E-06 1.601E+01 1.537E-01  0.0000 0.28290
  5.000E+00 3.289E+01 1.470E+01 1.936E-06 0.000E+00 0.000E+00 1.936E-06 1.470E+01 1.863E-01  0.0000 0.29720
  5.500E+00 3.453E+01 1.362E+01 2.068E-06 0.000E+00 0.000E+00 2.068E-06 1.362E+01 2.217E-01  0.0000 0.31066
  6.000E+00 3.611E+01 1.271E+01 2.195E-06 0.000E+00 0.000E+00 2.195E-06 1.271E+01 2.597E-01  0.0000 0.32339
  7.000E+00 3.909E+01 1.124E+01 2.437E-06 0.000E+00 0.000E+00 2.437E-06 1.124E+01 3.435E-01  0.0000 0.34700
  8.000E+00 4.189E+01 1.013E+01 2.666E-06 0.000E+00 0.000E+00 2.666E-06 1.013E+01 4.373E-01  0.0000 0.36854
  9.000E+00 4.453E+01 9.245E+00 2.883E-06 0.000E+00 0.000E+00 2.883E-06 9.245E+00 5.408E-01  0.0000 0.38836
  1.000E+01 4.704E+01 8.529E+00 3.091E-06 0.000E+00 0.000E+00 3.091E-06 8.529E+00 6.535E-01  0.0000 0.40675
  1.200E+01 5.177E+01 7.438E+00 3.481E-06 0.000E+00 0.000E+00 3.481E-06 7.438E+00 9.052E-01  0.0000 0.43998
  1.400E+01 5.616E+01 6.644E+00 3.846E-06 0.000E+00 0.000E+00 3.846E-06 6.644E+00 1.190E+00  0.0000 0.46937
  1.700E+01 6.230E+01 5.789E+00 4.355E-06 0.000E+00 0.000E+00 4.355E-06 5.789E+00 1.675E+00  0.0000 0.50792
  2.000E+01 6.802E+01 5.182E+00 4.831E-06 0.000E+00 0.000E+00 4.831E-06 5.182E+00 2.224E+00  0.0000 0.54129
  2.500E+01 7.686E+01 4.484E+00 5.570E-06 0.000E+00 0.000E+00 5.570E-06 4.484E+00 3.264E+00  0.0000 0.58827
  3.000E+01 8.509E+01 4.015E+00 6.263E-06 0.000E+00 0.000E+00 6.263E-06 4.015E+00 4.444E+00  0.0000 0.62720
  3.500E+01 9.285E+01 3.678E+00 6.925E-06 0.000E+00 0.000E+00 6.925E-06 3.678E+00 5.746E+00  0.0000 0.66011
  4.000E+01 1.003E+02 3.425E+00 7.567E-06 0.000E+00 0.000E+00 7.567E-06 3.425E+00 7.156E+00  0.0000 0.68834
  4.500E+01 1.074E+02 3.229E+00 8.196E-06 0.000E+00 0.000E+00 8.196E-06 3.229E+00 8.660E+00  0.0000 0.71286
  5.000E+01 1.143E+02 3.073E+00 8.816E-06 0.000E+00 0.000E+00 8.816E-06 3.073E+00 1.025E+01  0.0000 0.73434
  5.500E+01 1.210E+02 2.947E+00 9.430E-06 0.000E+00 0.000E+00 9.430E-06 2.947E+00 1.191E+01  0.0000 0.75332
  6.000E+01 1.276E+02 2.843E+00 1.004E-05 0.000E+00 0.000E+00 1.004E-05 2.843E+00 1.364E+01  0.0000 0.77019
  7.000E+01 1.403E+02 2.683E+00 1.127E-05 0.000E+00 0.000E+00 1.127E-05 2.683E+00 1.726E+01  0.0000 0.79887
  8.000E+01 1.527E+02 2.561E+00 1.250E-05 0.000E+00 0.000E+00 1.250E-05 2.561E+00 2.108E+01  0.0395 0.82227
  9.000E+01 1.647E+02 2.468E+00 1.375E-05 0.000E+00 0.000E+00 1.375E-05 2.468E+00 2.505E+01  0.0844 0.84166
  1.000E+02 1.764E+02 2.396E+00 1.501E-05 0.000E+00 0.000E+00 1.501E-05 2.396E+00 2.917E+01  0.1284 0.85794
  1.200E+02 1.994E+02 2.294E+00 1.760E-05 0.000E+00 0.000E+00 1.760E-05 2.295E+00 3.770E+01  0.2136 0.88361
  1.400E+02 2.218E+02 2.228E+00 2.028E-05 0.000E+00 0.000E+00 2.028E-05 2.228E+00 4.654E+01  0.2950 0.90278
  1.700E+02 2.546E+02 2.165E+00 2.446E-05 3.553E-14 0.000E+00 2.446E-05 2.165E+00 6.021E+01  0.4104 0.92363
  2.000E+02 2.868E+02 2.129E+00 2.885E-05 7.932E-12 0.000E+00 2.885E-05 2.129E+00 7.418E+01  0.5186 0.93835
  2.500E+02 3.396E+02 2.099E+00 3.659E-05 6.544E-08 0.000E+00 3.666E-05 2.099E+00 9.783E+01  0.6850 0.95485
  3.000E+02 3.917E+02 2.089E+00 4.482E-05 5.718E-07 0.000E+00 4.539E-05 2.089E+00 1.217E+02  0.8368 0.96548
  3.500E+02 4.432E+02 2.088E+00 5.350E-05 1.567E-06 0.000E+00 5.507E-05 2.088E+00 1.457E+02  0.9767 0.97274
  4.000E+02 4.945E+02 2.092E+00 6.259E-05 3.028E-06 0.000E+00 6.561E-05 2.092E+00 1.696E+02  1.1064 0.97793
  4.500E+02 5.455E+02 2.099E+00 7.205E-05 4.936E-06 0.000E+00 7.699E-05 2.099E+00 1.934E+02  1.2274 0.98176
  5.000E+02 5.964E+02 2.107E+00 8.187E-05 7.277E-06 0.000E+00 8.915E-05 2.107E+00 2.172E+02  1.3409 0.98467
  5.500E+02 6.471E+02 2.116E+00 9.202E-05 1.004E-05 0.000E+00 1.021E-04 2.117E+00 2.409E+02  1.4478 0.98693
  6.000E+02 6.977E+02 2.126E+00 1.025E-04 1.320E-05 0.000E+00 1.157E-04 2.126E+00 2.645E+02  1.5489 0.98873
  7.000E+02 7.987E+02 2.145E+00 1.242E-04 2.067E-05 0.000E+00 1.449E-04 2.145E+00 3.113E+02  1.7360 0.99136
  8.000E+02 8.995E+02 2.163E+00 1.470E-04 2.961E-05 0.000E+00 1.766E-04 2.164E+00 3.577E+02  1.9062 0.99317
  9.000E+02 1.000E+03 2.181E+00 1.708E-04 3.991E-05 0.000E+00 2.107E-04 2.181E+00 4.037E+02  2.0624 0.99447
  1.000E+03 1.101E+03 2.197E+00 1.954E-04 5.148E-05 0.000E+00 2.468E-04 2.197E+00 4.494E+02  2.2069 0.99542
  1.200E+03 1.301E+03 2.226E+00 2.468E-04 7.820E-05 2.257E-05 3.476E-04 2.227E+00 5.398E+02  2.4671 0.99672
  1.400E+03 1.502E+03 2.252E+00 3.011E-04 1.092E-04 6.193E-05 4.722E-04 2.253E+00 6.291E+02  2.6967 0.99753
  1.700E+03 1.803E+03 2.285E+00 3.869E-04 1.630E-04 1.332E-04 6.831E-04 2.286E+00 7.613E+02  2.9976 0.99829
  2.000E+03 2.103E+03 2.313E+00 4.774E-04 2.245E-04 2.176E-04 9.194E-04 2.314E+00 8.918E+02  3.2588 0.99874
  2.500E+03 2.604E+03 2.352E+00 6.370E-04 3.416E-04 3.816E-04 1.360E-03 2.353E+00 1.106E+03  3.6303 0.99918
  3.000E+03 3.104E+03 2.383E+00 8.060E-04 4.747E-04 5.549E-04 1.836E-03 2.385E+00 1.317E+03  3.9438 0.99942
  3.500E+03 3.604E+03 2.409E+00 9.830E-04 6.215E-04 7.394E-04 2.344E-03 2.412E+00 1.526E+03  4.2152 0.99957
  4.000E+03 4.104E+03 2.432E+00 1.167E-03 7.964E-04 9.372E-04 2.901E-03 2.435E+00 1.732E+03  4.4546 0.99967
  4.500E+03 4.604E+03 2.451E+00 1.357E-03 9.891E-04 1.144E-03 3.490E-03 2.455E+00 1.936E+03  4.6688 0.99974
  5.000E+03 5.105E+03 2.469E+00 1.553E-03 1.194E-03 1.342E-03 4.089E-03 2.473E+00 2.139E+03  4.8626 0.99979
  5.500E+03 5.605E+03 2.484E+00 1.754E-03 1.409E-03 1.557E-03 4.720E-03 2.489E+00 2.341E+03  5.0396 0.99982
  6.000E+03 6.105E+03 2.498E+00 1.960E-03 1.634E-03 1.758E-03 5.351E-03 2.503E+00 2.541E+03  5.2025 0.99985
  7.000E+03 7.105E+03 2.523E+00 2.384E-03 2.111E-03 2.184E-03 6.678E-03 2.529E+00 2.939E+03  5.4939 0.99989
  8.000E+03 8.105E+03 2.544E+00 2.823E-03 2.619E-03 2.608E-03 8.050E-03 2.552E+00 3.332E+03  5.7489 0.99992
  9.000E+03 9.105E+03 2.562E+00 3.276E-03 3.156E-03 3.008E-03 9.439E-03 2.571E+00 3.723E+03  5.9756 0.99993
  1.000E+04 1.011E+04 2.578E+00 3.740E-03 3.717E-03 3.422E-03 1.088E-02 2.589E+00 4.110E+03  6.1796 0.99995
  1.200E+04 1.211E+04 2.605E+00 4.701E-03 4.906E-03 4.263E-03 1.387E-02 2.619E+00 4.879E+03  6.5350 0.99996
  1.400E+04 1.411E+04 2.627E+00 5.698E-03 6.171E-03 5.109E-03 1.698E-02 2.644E+00 5.639E+03  6.8376 0.99997
  1.700E+04 1.711E+04 2.655E+00 7.252E-03 8.186E-03 6.366E-03 2.180E-02 2.677E+00 6.766E+03  7.2207 0.99998
  2.000E+04 2.011E+04 2.678E+00 8.864E-03 1.032E-02 7.603E-03 2.679E-02 2.705E+00 7.881E+03  7.5427 0.99999
  2.500E+04 2.511E+04 2.708E+00 1.166E-02 1.409E-02 9.642E-03 3.539E-02 2.744E+00 9.716E+03  7.9863 0.99999
  3.000E+04 3.011E+04 2.733E+00 1.456E-02 1.808E-02 1.165E-02 4.430E-02 2.777E+00 1.153E+04  8.3494 0.99999
  3.500E+04 3.511E+04 2.753E+00 1.756E-02 2.225E-02 1.368E-02 5.350E-02 2.807E+00 1.332E+04  8.6567 1.00000
  4.000E+04 4.011E+04 2.770E+00 2.063E-02 2.657E-02 1.570E-02 6.291E-02 2.833E+00 1.509E+04  8.9230 1.00000
  4.500E+04 4.511E+04 2.785E+00 2.378E-02 3.102E-02 1.769E-02 7.249E-02 2.858E+00 1.685E+04  9.1580 1.00000
  5.000E+04 5.011E+04 2.799E+00 2.698E-02 3.558E-02 1.969E-02 8.225E-02 2.881E+00 1.859E+04  9.3683 1.00000
  5.500E+04 5.511E+04 2.811E+00 3.023E-02 4.024E-02 2.170E-02 9.217E-02 2.903E+00 2.032E+04  9.5585 1.00000
  6.000E+04 6.011E+04 2.821E+00 3.354E-02 4.498E-02 2.370E-02 1.022E-01 2.924E+00 2.204E+04  9.7322 1.00000
  7.000E+04 7.011E+04 2.840E+00 4.027E-02 5.470E-02 2.766E-02 1.226E-01 2.963E+00 2.543E+04 10.0400 1.00000
  8.000E+04 8.011E+04 2.857E+00 4.715E-02 6.469E-02 3.164E-02 1.435E-01 3.000E+00 2.879E+04 10.3067 1.00000
  9.000E+04 9.011E+04 2.871E+00 5.416E-02 7.489E-02 3.563E-02 1.647E-01 3.036E+00 3.210E+04 10.5420 1.00000
  1.000E+05 1.001E+05 2.884E+00 6.128E-02 8.528E-02 3.955E-02 1.861E-01 3.070E+00 3.538E+04 10.7524 1.00000
  1.200E+05 1.201E+05 2.905E+00 7.581E-02 1.065E-01 4.753E-02 2.299E-01 3.135E+00 4.183E+04 11.1167 1.00000
  1.400E+05 1.401E+05 2.924E+00 9.066E-02 1.283E-01 5.552E-02 2.745E-01 3.198E+00 4.814E+04 11.4248 1.00000
  1.700E+05 1.701E+05 2.947E+00 1.134E-01 1.618E-01 6.754E-02 3.427E-01 3.289E+00 5.739E+04 11.8128 1.00000
  2.000E+05 2.001E+05 2.966E+00 1.367E-01 1.959E-01 7.964E-02 4.122E-01 3.378E+00 6.639E+04 12.1377 1.00000
  2.500E+05 2.501E+05 2.992E+00 1.763E-01 2.541E-01 9.990E-02 5.303E-01 3.522E+00 8.089E+04 12.5838 1.00000
  3.000E+05 3.001E+05 3.013E+00 2.168E-01 3.134E-01 1.203E-01 6.505E-01 3.664E+00 9.481E+04 12.9483 1.00000
  3.500E+05 3.501E+05 3.031E+00 2.579E-01 3.737E-01 1.410E-01 7.726E-01 3.804E+00 1.082E+05 13.2565 1.00000
  4.000E+05 4.001E+05 3.047E+00 2.996E-01 4.346E-01 1.618E-01 8.960E-01 3.943E+00 1.211E+05 13.5234 1.00000
  4.500E+05 4.501E+05 3.061E+00 3.417E-01 4.961E-01 1.828E-01 1.021E+00 4.081E+00 1.336E+05 13.7590 1.00000
  5.000E+05 5.001E+05 3.073E+00 3.843E-01 5.581E-01 2.039E-01 1.146E+00 4.220E+00 1.456E+05 13.9696 1.00000
  5.500E+05 5.501E+05 3.084E+00 4.272E-01 6.205E-01 2.248E-01 1.273E+00 4.357E+00 1.573E+05 14.1602 1.00000
  6.000E+05 6.001E+05 3.095E+00 4.705E-01 6.832E-01 2.459E-01 1.400E+00 4.494E+00 1.686E+05 14.3342 1.00000
  7.000E+05 7.001E+05 3.113E+00 5.578E-01 8.096E-01 2.885E-01 1.656E+00 4.769E+00 1.902E+05 14.6425 1.00000
  8.000E+05 8.001E+05 3.129E+00 6.460E-01 9.370E-01 3.316E-01 1.915E+00 5.043E+00 2.106E+05 14.9095 1.00000
  9.000E+05 9.001E+05 3.143E+00 7.349E-01 1.065E+00 3.751E-01 2.175E+00 5.318E+00 2.299E+05 15.1450 1.00000
  1.000E+06 1.000E+06 3.156E+00 8.245E-01 1.194E+00 4.189E-01 2.437E+00 5.593E+00 2.483E+05 15.3557 1.00000
  1.200E+06 1.200E+06 3.177E+00 1.005E+00 1.453E+00 5.078E-01 2.966E+00 6.143E+00 2.824E+05 15.7203 1.00000
  1.400E+06 1.400E+06 3.196E+00 1.188E+00 1.714E+00 5.979E-01 3.499E+00 6.695E+00 3.136E+05 16.0286 1.00000
  1.700E+06 1.700E+06 3.220E+00 1.464E+00 2.107E+00 7.352E-01 4.306E+00 7.526E+00 3.560E+05 16.4169 1.00000
  2.000E+06 2.000E+06 3.240E+00 1.743E+00 2.502E+00 8.748E-01 5.120E+00 8.359E+00 3.938E+05 16.7419 1.00000
  2.500E+06 2.500E+06 3.267E+00 2.211E+00 3.164E+00 1.112E+00 6.487E+00 9.754E+00 4.494E+05 17.1882 1.00000
  3.000E+06 3.000E+06 3.290E+00 2.683E+00 3.829E+00 1.353E+00 7.866E+00 1.116E+01 4.974E+05 17.5528 1.00000
  3.500E+06 3.500E+06 3.309E+00 3.158E+00 4.496E+00 1.599E+00 9.254E+00 1.256E+01 5.397E+05 17.8611 1.00000
  4.000E+06 4.000E+06 3.326E+00 3.636E+00 5.165E+00 1.848E+00 1.065E+01 1.397E+01 5.775E+05 18.1281 1.00000
  4.500E+06 4.500E+06 3.341E+00 4.115E+00 5.835E+00 2.100E+00 1.205E+01 1.539E+01 6.117E+05 18.3637 1.00000
  5.000E+06 5.000E+06 3.354E+00 4.596E+00 6.506E+00 2.355E+00 1.346E+01 1.681E+01 6.428E+05 18.5744 1.00000
  5.500E+06 5.500E+06 3.366E+00 5.078E+00 7.177E+00 2.613E+00 1.487E+01 1.823E+01 6.713E+05 18.7650 1.00000
  6.000E+06 6.000E+06 3.378E+00 5.561E+00 7.850E+00 2.873E+00 1.628E+01 1.966E+01 6.978E+05 18.9391 1.00000
  7.000E+06 7.000E+06 3.398E+00 6.530E+00 9.196E+00 3.399E+00 1.913E+01 2.252E+01 7.454E+05 19.2473 1.00000
  8.000E+06 8.000E+06 3.415E+00 7.502E+00 1.054E+01 3.934E+00 2.198E+01 2.540E+01 7.873E+05 19.5144 1.00000
  9.000E+06 9.000E+06 3.430E+00 8.477E+00 1.189E+01 4.475E+00 2.485E+01 2.828E+01 8.247E+05 19.7500 1.00000
  1.000E+07 1.000E+07 3.444E+00 9.454E+00 1.324E+01 5.023E+00 2.772E+01 3.117E+01 8.584E+05 19.9607 1.00000
  1.200E+07 1.200E+07 3.468E+00 1.141E+01 1.595E+01 6.136E+00 3.350E+01 3.696E+01 9.175E+05 20.3253 1.00000
  1.400E+07 1.400E+07 3.489E+00 1.337E+01 1.866E+01 7.269E+00 3.930E+01 4.279E+01 9.680E+05 20.6336 1.00000
  1.700E+07 1.700E+07 3.515E+00 1.633E+01 2.272E+01 9.000E+00 4.804E+01 5.156E+01 1.032E+06 21.0219 1.00000
  2.000E+07 2.000E+07 3.537E+00 1.928E+01 2.679E+01 1.076E+01 5.683E+01 6.037E+01 1.086E+06 21.3470 1.00000
  2.500E+07 2.500E+07 3.567E+00 2.422E+01 3.357E+01 1.377E+01 7.156E+01 7.512E+01 1.161E+06 21.7933 1.00000
  3.000E+07 3.000E+07 3.592E+00 2.917E+01 4.035E+01 1.684E+01 8.636E+01 8.995E+01 1.222E+06 22.1579 1.00000
  3.500E+07 3.500E+07 3.614E+00 3.412E+01 4.714E+01 1.997E+01 1.012E+02 1.048E+02 1.273E+06 22.4662 1.00000
  4.000E+07 4.000E+07 3.632E+00 3.908E+01 5.393E+01 2.314E+01 1.162E+02 1.198E+02 1.318E+06 22.7333 1.00000
  4.500E+07 4.500E+07 3.649E+00 4.405E+01 6.073E+01 2.636E+01 1.311E+02 1.348E+02 1.358E+06 22.9688 1.00000
  5.000E+07 5.000E+07 3.664E+00 4.901E+01 6.752E+01 2.962E+01 1.462E+02 1.498E+02 1.393E+06 23.1795 1.00000
  5.500E+07 5.500E+07 3.677E+00 5.398E+01 7.431E+01 3.292E+01 1.612E+02 1.649E+02 1.425E+06 23.3702 1.00000
  6.000E+07 6.000E+07 3.690E+00 5.895E+01 8.111E+01 3.625E+01 1.763E+02 1.800E+02 1.454E+06 23.5442 1.00000
  7.000E+07 7.000E+07 3.712E+00 6.890E+01 9.470E+01 4.301E+01 2.066E+02 2.103E+02 1.505E+06 23.8525 1.00000
  8.000E+07 8.000E+07 3.731E+00 7.885E+01 1.083E+02 4.987E+01 2.370E+02 2.407E+02 1.550E+06 24.1196 1.00000
  9.000E+07 9.000E+07 3.748E+00 8.880E+01 1.219E+02 5.683E+01 2.675E+02 2.713E+02 1.589E+06 24.3551 1.00000
  1.000E+08 1.000E+08 3.763E+00 9.876E+01 1.355E+02 6.388E+01 2.981E+02 3.019E+02 1.624E+06 24.5658 1.00000
  1.200E+08 1.200E+08 3.790E+00 1.187E+02 1.627E+02 7.821E+01 3.596E+02 3.634E+02 1.685E+06 24.9305 1.00000
  1.400E+08 1.400E+08 3.813E+00 1.386E+02 1.899E+02 9.282E+01 4.213E+02 4.251E+02 1.736E+06 25.2388 1.00000
  1.700E+08 1.700E+08 3.842E+00 1.685E+02 2.307E+02 1.152E+02 5.144E+02 5.182E+02 1.800E+06 25.6271 1.00000
  2.000E+08 2.000E+08 3.867E+00 1.985E+02 2.715E+02 1.380E+02 6.079E+02 6.118E+02 1.853E+06 25.9521 1.00000
  2.500E+08 2.500E+08 3.900E+00 2.483E+02 3.395E+02 1.769E+02 7.647E+02 7.686E+02 1.927E+06 26.3984 1.00000
  3.000E+08 3.000E+08 3.928E+00 2.982E+02 4.075E+02 2.166E+02 9.224E+02 9.263E+02 1.986E+06 26.7631 1.00000
  3.500E+08 3.500E+08 3.952E+00 3.481E+02 4.756E+02 2.572E+02 1.081E+03 1.085E+03 2.036E+06 27.0714 1.00000
  4.000E+08 4.000E+08 3.973E+00 3.980E+02 5.436E+02 2.985E+02 1.240E+03 1.244E+03 2.079E+06 27.3384 1.00000
  4.500E+08 4.500E+08 3.992E+00 4.480E+02 6.116E+02 3.403E+02 1.400E+03 1.404E+03 2.117E+06 27.5740 1.00000
  5.000E+08 5.000E+08 4.008E+00 4.979E+02 6.796E+02 3.827E+02 1.560E+03 1.564E+03 2.151E+06 27.7847 1.00000
  5.500E+08 5.500E+08 4.023E+00 5.478E+02 7.476E+02 4.256E+02 1.721E+03 1.725E+03 2.182E+06 27.9753 1.00000
  6.000E+08 6.000E+08 4.037E+00 5.977E+02 8.157E+02 4.690E+02 1.882E+03 1.886E+03 2.209E+06 28.1494 1.00000
  7.000E+08 7.000E+08 4.062E+00 6.976E+02 9.517E+02 5.569E+02 2.206E+03 2.210E+03 2.258E+06 28.4577 1.00000
  8.000E+08 8.000E+08 4.083E+00 7.974E+02 1.088E+03 6.464E+02 2.532E+03 2.536E+03 2.301E+06 28.7247 1.00000
  9.000E+08 9.000E+08 4.103E+00 8.973E+02 1.224E+03 7.372E+02 2.858E+03 2.862E+03 2.338E+06 28.9603 1.00000
  1.000E+09 1.000E+09 4.120E+00 9.972E+02 1.360E+03 8.293E+02 3.186E+03 3.190E+03 2.371E+06 29.1710 1.00000
