 Incident particle is a Muon with M = 105.65839 MeV
 Index = 0: Phosphorus
      Absorber with <Z/A> = 0.48428
 Sternheimer coef:  a     k=m_s   x_0    x_1    I[eV]   Cbar  delta0
                 0.2361  2.9158  0.1696  2.7815  173.0  4.5214 0.14

 *** Table generated with PUMAS v1.00 ***

      T         p     Ionization  brems     pair     photonuc  Radloss    dE/dx   CSDA Range  delta   beta
    [MeV]    [MeV/c]  -----------------------[MeV cm^2/g]------------------------  [g/cm^2]
  1.000E+00 1.457E+01 3.743E+01 1.447E-06 0.000E+00 0.000E+00 1.447E-06 3.743E+01 1.336E-02  0.0012 0.13661
  1.200E+00 1.597E+01 3.247E+01 1.663E-06 0.000E+00 0.000E+00 1.663E-06 3.247E+01 1.911E-02  0.0015 0.14944
  1.400E+00 1.726E+01 2.878E+01 1.868E-06 0.000E+00 0.000E+00 1.868E-06 2.878E+01 2.566E-02  0.0017 0.16119
  1.700E+00 1.903E+01 2.470E+01 2.161E-06 0.000E+00 0.000E+00 2.161E-06 2.470E+01 3.695E-02  0.0021 0.17725
  2.000E+00 2.066E+01 2.172E+01 2.438E-06 0.000E+00 0.000E+00 2.438E-06 2.172E+01 4.993E-02  0.0025 0.19186
  2.500E+00 2.312E+01 1.820E+01 2.870E-06 0.000E+00 0.000E+00 2.870E-06 1.820E+01 7.517E-02  0.0031 0.21376
  3.000E+00 2.536E+01 1.575E+01 3.273E-06 0.000E+00 0.000E+00 3.273E-06 1.575E+01 1.048E-01  0.0037 0.23336
  3.500E+00 2.742E+01 1.394E+01 3.652E-06 0.000E+00 0.000E+00 3.652E-06 1.394E+01 1.386E-01  0.0043 0.25120
  4.000E+00 2.935E+01 1.255E+01 4.012E-06 0.000E+00 0.000E+00 4.012E-06 1.255E+01 1.764E-01  0.0049 0.26763
  4.500E+00 3.116E+01 1.144E+01 4.354E-06 0.000E+00 0.000E+00 4.354E-06 1.144E+01 2.182E-01  0.0056 0.28290
  5.000E+00 3.289E+01 1.053E+01 4.681E-06 0.000E+00 0.000E+00 4.681E-06 1.053E+01 2.638E-01  0.0062 0.29720
  5.500E+00 3.453E+01 9.773E+00 4.995E-06 0.000E+00 0.000E+00 4.995E-06 9.773E+00 3.132E-01  0.0068 0.31066
  6.000E+00 3.611E+01 9.133E+00 5.297E-06 0.000E+00 0.000E+00 5.297E-06 9.133E+00 3.661E-01  0.0075 0.32339
  7.000E+00 3.909E+01 8.109E+00 5.871E-06 0.000E+00 0.000E+00 5.871E-06 8.109E+00 4.825E-01  0.0088 0.34700
  8.000E+00 4.189E+01 7.322E+00 6.411E-06 0.000E+00 0.000E+00 6.411E-06 7.322E+00 6.125E-01  0.0101 0.36854
  9.000E+00 4.453E+01 6.699E+00 6.921E-06 0.000E+00 0.000E+00 6.921E-06 6.699E+00 7.554E-01  0.0114 0.38836
  1.000E+01 4.704E+01 6.192E+00 7.408E-06 0.000E+00 0.000E+00 7.408E-06 6.192E+00 9.108E-01  0.0127 0.40675
  1.200E+01 5.177E+01 5.416E+00 8.319E-06 0.000E+00 0.000E+00 8.319E-06 5.416E+00 1.257E+00  0.0154 0.43998
  1.400E+01 5.616E+01 4.850E+00 9.166E-06 0.000E+00 0.000E+00 9.166E-06 4.850E+00 1.648E+00  0.0181 0.46937
  1.700E+01 6.230E+01 4.238E+00 1.034E-05 0.000E+00 0.000E+00 1.034E-05 4.238E+00 2.311E+00  0.0223 0.50792
  2.000E+01 6.802E+01 3.802E+00 1.144E-05 0.000E+00 0.000E+00 1.144E-05 3.802E+00 3.059E+00  0.0266 0.54129
  2.500E+01 7.686E+01 3.300E+00 1.314E-05 0.000E+00 0.000E+00 1.314E-05 3.300E+00 4.474E+00  0.0339 0.58827
  3.000E+01 8.509E+01 2.960E+00 1.473E-05 0.000E+00 0.000E+00 1.473E-05 2.960E+00 6.077E+00  0.0416 0.62720
  3.500E+01 9.285E+01 2.716E+00 1.625E-05 0.000E+00 0.000E+00 1.625E-05 2.716E+00 7.842E+00  0.0495 0.66011
  4.000E+01 1.003E+02 2.533E+00 1.773E-05 0.000E+00 0.000E+00 1.773E-05 2.533E+00 9.749E+00  0.0577 0.68834
  4.500E+01 1.074E+02 2.391E+00 1.917E-05 0.000E+00 0.000E+00 1.917E-05 2.391E+00 1.178E+01  0.0662 0.71286
  5.000E+01 1.143E+02 2.277E+00 2.060E-05 0.000E+00 0.000E+00 2.060E-05 2.277E+00 1.393E+01  0.0750 0.73434
  5.500E+01 1.210E+02 2.185E+00 2.202E-05 0.000E+00 0.000E+00 2.202E-05 2.185E+00 1.617E+01  0.0841 0.75332
  6.000E+01 1.276E+02 2.109E+00 2.343E-05 0.000E+00 0.000E+00 2.343E-05 2.109E+00 1.850E+01  0.0935 0.77019
  7.000E+01 1.403E+02 1.992E+00 2.626E-05 0.000E+00 0.000E+00 2.626E-05 1.992E+00 2.338E+01  0.1131 0.79887
  8.000E+01 1.527E+02 1.907E+00 2.912E-05 0.000E+00 0.000E+00 2.912E-05 1.907E+00 2.851E+01  0.1338 0.82227
  9.000E+01 1.647E+02 1.844E+00 3.202E-05 0.000E+00 0.000E+00 3.202E-05 1.844E+00 3.384E+01  0.1470 0.84166
  1.000E+02 1.764E+02 1.795E+00 3.496E-05 0.000E+00 0.000E+00 3.496E-05 1.795E+00 3.934E+01  0.1588 0.85794
  1.200E+02 1.994E+02 1.728E+00 4.100E-05 0.000E+00 0.000E+00 4.100E-05 1.728E+00 5.070E+01  0.1866 0.88361
  1.400E+02 2.218E+02 1.685E+00 4.726E-05 0.000E+00 0.000E+00 4.726E-05 1.685E+00 6.242E+01  0.2178 0.90278
  1.700E+02 2.546E+02 1.647E+00 5.708E-05 0.000E+00 0.000E+00 5.708E-05 1.647E+00 8.043E+01  0.2678 0.92363
  2.000E+02 2.868E+02 1.627E+00 6.740E-05 0.000E+00 0.000E+00 6.740E-05 1.627E+00 9.876E+01  0.3195 0.93835
  2.500E+02 3.396E+02 1.614E+00 8.563E-05 1.449E-07 0.000E+00 8.578E-05 1.614E+00 1.296E+02  0.4059 0.95485
  3.000E+02 3.917E+02 1.614E+00 1.051E-04 1.429E-06 0.000E+00 1.065E-04 1.614E+00 1.606E+02  0.4906 0.96548
  3.500E+02 4.432E+02 1.620E+00 1.256E-04 4.018E-06 0.000E+00 1.296E-04 1.620E+00 1.915E+02  0.5726 0.97274
  4.000E+02 4.945E+02 1.629E+00 1.471E-04 7.855E-06 0.000E+00 1.550E-04 1.629E+00 2.223E+02  0.6516 0.97793
  4.500E+02 5.455E+02 1.639E+00 1.696E-04 1.290E-05 0.000E+00 1.825E-04 1.639E+00 2.529E+02  0.7275 0.98176
  5.000E+02 5.964E+02 1.650E+00 1.929E-04 1.909E-05 0.000E+00 2.120E-04 1.651E+00 2.833E+02  0.8004 0.98467
  5.500E+02 6.471E+02 1.661E+00 2.171E-04 2.641E-05 0.000E+00 2.435E-04 1.662E+00 3.135E+02  0.8705 0.98693
  6.000E+02 6.977E+02 1.673E+00 2.420E-04 3.481E-05 0.000E+00 2.768E-04 1.673E+00 3.435E+02  0.9379 0.98873
  7.000E+02 7.987E+02 1.694E+00 2.938E-04 5.470E-05 0.000E+00 3.485E-04 1.694E+00 4.029E+02  1.0655 0.99136
  8.000E+02 8.995E+02 1.714E+00 3.482E-04 7.849E-05 0.000E+00 4.267E-04 1.714E+00 4.616E+02  1.1844 0.99317
  9.000E+02 1.000E+03 1.732E+00 4.048E-04 1.059E-04 0.000E+00 5.107E-04 1.733E+00 5.196E+02  1.2957 0.99447
  1.000E+03 1.101E+03 1.749E+00 4.635E-04 1.368E-04 0.000E+00 6.004E-04 1.750E+00 5.770E+02  1.4004 0.99542
  1.200E+03 1.301E+03 1.779E+00 5.866E-04 2.081E-04 2.252E-05 8.172E-04 1.780E+00 6.904E+02  1.5928 0.99672
  1.400E+03 1.502E+03 1.805E+00 7.163E-04 2.909E-04 6.147E-05 1.069E-03 1.806E+00 8.019E+02  1.7663 0.99753
  1.700E+03 1.803E+03 1.839E+00 9.216E-04 4.345E-04 1.313E-04 1.487E-03 1.840E+00 9.664E+02  1.9987 0.99829
  2.000E+03 2.103E+03 1.867E+00 1.138E-03 5.986E-04 2.132E-04 1.950E-03 1.868E+00 1.128E+03  2.2047 0.99874
  2.500E+03 2.604E+03 1.905E+00 1.520E-03 9.115E-04 3.712E-04 2.802E-03 1.907E+00 1.393E+03  2.5039 0.99918
  3.000E+03 3.104E+03 1.935E+00 1.923E-03 1.267E-03 5.365E-04 3.727E-03 1.939E+00 1.653E+03  2.7619 0.99942
  3.500E+03 3.604E+03 1.961E+00 2.346E-03 1.659E-03 7.113E-04 4.715E-03 1.965E+00 1.909E+03  2.9889 0.99957
  4.000E+03 4.104E+03 1.982E+00 2.784E-03 2.095E-03 8.977E-04 5.777E-03 1.988E+00 2.162E+03  3.1919 0.99967
  4.500E+03 4.604E+03 2.001E+00 3.237E-03 2.567E-03 1.091E-03 6.895E-03 2.008E+00 2.412E+03  3.3757 0.99974
  5.000E+03 5.105E+03 2.018E+00 3.703E-03 3.065E-03 1.277E-03 8.046E-03 2.026E+00 2.660E+03  3.5436 0.99979
  5.500E+03 5.605E+03 2.033E+00 4.180E-03 3.589E-03 1.478E-03 9.247E-03 2.042E+00 2.906E+03  3.6983 0.99982
  6.000E+03 6.105E+03 2.046E+00 4.668E-03 4.135E-03 1.664E-03 1.047E-02 2.056E+00 3.150E+03  3.8418 0.99985
  7.000E+03 7.105E+03 2.069E+00 5.673E-03 5.289E-03 2.059E-03 1.302E-02 2.082E+00 3.634E+03  4.1010 0.99989
  8.000E+03 8.105E+03 2.089E+00 6.711E-03 6.515E-03 2.451E-03 1.568E-02 2.104E+00 4.111E+03  4.3304 0.99992
  9.000E+03 9.105E+03 2.105E+00 7.779E-03 7.804E-03 2.819E-03 1.840E-02 2.124E+00 4.584E+03  4.5364 0.99993
  1.000E+04 1.011E+04 2.120E+00 8.874E-03 9.150E-03 3.199E-03 2.122E-02 2.141E+00 5.053E+03  4.7233 0.99995
  1.200E+04 1.211E+04 2.145E+00 1.113E-02 1.199E-02 3.969E-03 2.709E-02 2.172E+00 5.981E+03  5.0524 0.99996
  1.400E+04 1.411E+04 2.166E+00 1.347E-02 1.500E-02 4.740E-03 3.321E-02 2.199E+00 6.896E+03  5.3359 0.99997
  1.700E+04 1.711E+04 2.191E+00 1.710E-02 1.978E-02 5.883E-03 4.276E-02 2.233E+00 8.249E+03  5.6988 0.99998
  2.000E+04 2.011E+04 2.211E+00 2.086E-02 2.482E-02 7.003E-03 5.268E-02 2.264E+00 9.584E+03  6.0073 0.99999
  2.500E+04 2.511E+04 2.238E+00 2.735E-02 3.369E-02 8.843E-03 6.988E-02 2.308E+00 1.177E+04  6.4369 0.99999
  3.000E+04 3.011E+04 2.259E+00 3.407E-02 4.305E-02 1.065E-02 8.776E-02 2.347E+00 1.392E+04  6.7922 0.99999
  3.500E+04 3.511E+04 2.276E+00 4.098E-02 5.278E-02 1.247E-02 1.062E-01 2.383E+00 1.603E+04  7.0951 1.00000
  4.000E+04 4.011E+04 2.291E+00 4.806E-02 6.284E-02 1.428E-02 1.252E-01 2.416E+00 1.812E+04  7.3589 1.00000
  4.500E+04 4.511E+04 2.304E+00 5.528E-02 7.316E-02 1.606E-02 1.445E-01 2.448E+00 2.017E+04  7.5927 1.00000
  5.000E+04 5.011E+04 2.315E+00 6.262E-02 8.372E-02 1.784E-02 1.642E-01 2.479E+00 2.220E+04  7.8023 1.00000
  5.500E+04 5.511E+04 2.325E+00 7.007E-02 9.449E-02 1.963E-02 1.842E-01 2.510E+00 2.421E+04  7.9923 1.00000
  6.000E+04 6.011E+04 2.335E+00 7.763E-02 1.054E-01 2.141E-02 2.045E-01 2.539E+00 2.619E+04  8.1659 1.00000
  7.000E+04 7.011E+04 2.351E+00 9.299E-02 1.278E-01 2.493E-02 2.457E-01 2.596E+00 3.008E+04  8.4737 1.00000
  8.000E+04 8.011E+04 2.364E+00 1.087E-01 1.507E-01 2.846E-02 2.878E-01 2.652E+00 3.390E+04  8.7404 1.00000
  9.000E+04 9.011E+04 2.376E+00 1.246E-01 1.740E-01 3.199E-02 3.306E-01 2.707E+00 3.763E+04  8.9757 1.00000
  1.000E+05 1.001E+05 2.387E+00 1.407E-01 1.978E-01 3.546E-02 3.740E-01 2.761E+00 4.129E+04  9.1861 1.00000
  1.200E+05 1.201E+05 2.406E+00 1.736E-01 2.462E-01 4.252E-02 4.623E-01 2.868E+00 4.839E+04  9.5504 1.00000
  1.400E+05 1.401E+05 2.421E+00 2.071E-01 2.956E-01 4.958E-02 5.523E-01 2.973E+00 5.524E+04  9.8585 1.00000
  1.700E+05 1.701E+05 2.440E+00 2.584E-01 3.712E-01 6.018E-02 6.897E-01 3.130E+00 6.508E+04 10.2465 1.00000
  2.000E+05 2.001E+05 2.457E+00 3.106E-01 4.481E-01 7.084E-02 8.295E-01 3.286E+00 7.444E+04 10.5714 1.00000
  2.500E+05 2.501E+05 2.479E+00 3.993E-01 5.787E-01 8.865E-02 1.067E+00 3.545E+00 8.910E+04 11.0175 1.00000
  3.000E+05 3.001E+05 2.497E+00 4.896E-01 7.114E-01 1.066E-01 1.308E+00 3.804E+00 1.027E+05 11.3820 1.00000
  3.500E+05 3.501E+05 2.512E+00 5.812E-01 8.458E-01 1.248E-01 1.552E+00 4.064E+00 1.154E+05 11.6902 1.00000
  4.000E+05 4.001E+05 2.525E+00 6.739E-01 9.814E-01 1.430E-01 1.798E+00 4.324E+00 1.274E+05 11.9571 1.00000
  4.500E+05 4.501E+05 2.537E+00 7.674E-01 1.118E+00 1.614E-01 2.047E+00 4.584E+00 1.386E+05 12.1927 1.00000
  5.000E+05 5.001E+05 2.547E+00 8.618E-01 1.256E+00 1.799E-01 2.297E+00 4.845E+00 1.492E+05 12.4033 1.00000
  5.500E+05 5.501E+05 2.557E+00 9.568E-01 1.394E+00 1.983E-01 2.549E+00 5.106E+00 1.593E+05 12.5939 1.00000
  6.000E+05 6.001E+05 2.566E+00 1.052E+00 1.532E+00 2.168E-01 2.802E+00 5.367E+00 1.688E+05 12.7679 1.00000
  7.000E+05 7.001E+05 2.581E+00 1.245E+00 1.812E+00 2.541E-01 3.311E+00 5.892E+00 1.866E+05 13.0762 1.00000
  8.000E+05 8.001E+05 2.595E+00 1.439E+00 2.092E+00 2.917E-01 3.823E+00 6.418E+00 2.029E+05 13.3432 1.00000
  9.000E+05 9.001E+05 2.606E+00 1.635E+00 2.374E+00 3.298E-01 4.339E+00 6.945E+00 2.179E+05 13.5787 1.00000
  1.000E+06 1.000E+06 2.617E+00 1.832E+00 2.657E+00 3.682E-01 4.857E+00 7.474E+00 2.318E+05 13.7894 1.00000
  1.200E+06 1.200E+06 2.636E+00 2.228E+00 3.226E+00 4.459E-01 5.900E+00 8.536E+00 2.569E+05 14.1540 1.00000
  1.400E+06 1.400E+06 2.651E+00 2.627E+00 3.798E+00 5.247E-01 6.950E+00 9.601E+00 2.790E+05 14.4623 1.00000
  1.700E+06 1.700E+06 2.671E+00 3.231E+00 4.658E+00 6.448E-01 8.534E+00 1.121E+01 3.080E+05 14.8506 1.00000
  2.000E+06 2.000E+06 2.688E+00 3.839E+00 5.522E+00 7.669E-01 1.013E+01 1.282E+01 3.331E+05 15.1756 1.00000
  2.500E+06 2.500E+06 2.712E+00 4.858E+00 6.967E+00 9.740E-01 1.280E+01 1.551E+01 3.687E+05 15.6219 1.00000
  3.000E+06 3.000E+06 2.731E+00 5.885E+00 8.417E+00 1.185E+00 1.549E+01 1.822E+01 3.986E+05 15.9865 1.00000
  3.500E+06 3.500E+06 2.747E+00 6.915E+00 9.870E+00 1.400E+00 1.819E+01 2.093E+01 4.243E+05 16.2948 1.00000
  4.000E+06 4.000E+06 2.761E+00 7.950E+00 1.133E+01 1.617E+00 2.089E+01 2.365E+01 4.468E+05 16.5618 1.00000
  4.500E+06 4.500E+06 2.774E+00 8.987E+00 1.278E+01 1.837E+00 2.361E+01 2.638E+01 4.668E+05 16.7974 1.00000
  5.000E+06 5.000E+06 2.785E+00 1.003E+01 1.424E+01 2.060E+00 2.633E+01 2.912E+01 4.849E+05 17.0081 1.00000
  5.500E+06 5.500E+06 2.795E+00 1.107E+01 1.570E+01 2.285E+00 2.906E+01 3.185E+01 5.013E+05 17.1987 1.00000
  6.000E+06 6.000E+06 2.805E+00 1.211E+01 1.716E+01 2.512E+00 3.179E+01 3.459E+01 5.164E+05 17.3728 1.00000
  7.000E+06 7.000E+06 2.822E+00 1.420E+01 2.009E+01 2.972E+00 3.727E+01 4.009E+01 5.433E+05 17.6810 1.00000
  8.000E+06 8.000E+06 2.836E+00 1.630E+01 2.302E+01 3.439E+00 4.276E+01 4.560E+01 5.667E+05 17.9481 1.00000
  9.000E+06 9.000E+06 2.849E+00 1.840E+01 2.595E+01 3.912E+00 4.826E+01 5.111E+01 5.875E+05 18.1837 1.00000
  1.000E+07 1.000E+07 2.861E+00 2.050E+01 2.888E+01 4.391E+00 5.378E+01 5.664E+01 6.061E+05 18.3944 1.00000
  1.200E+07 1.200E+07 2.881E+00 2.472E+01 3.475E+01 5.362E+00 6.483E+01 6.771E+01 6.385E+05 18.7590 1.00000
  1.400E+07 1.400E+07 2.899E+00 2.894E+01 4.063E+01 6.352E+00 7.591E+01 7.881E+01 6.660E+05 19.0673 1.00000
  1.700E+07 1.700E+07 2.921E+00 3.528E+01 4.944E+01 7.863E+00 9.258E+01 9.550E+01 7.007E+05 19.4556 1.00000
  2.000E+07 2.000E+07 2.939E+00 4.163E+01 5.826E+01 9.404E+00 1.093E+02 1.122E+02 7.298E+05 19.7807 1.00000
  2.500E+07 2.500E+07 2.965E+00 5.222E+01 7.297E+01 1.203E+01 1.372E+02 1.402E+02 7.699E+05 20.2270 1.00000
  3.000E+07 3.000E+07 2.986E+00 6.283E+01 8.769E+01 1.471E+01 1.652E+02 1.682E+02 8.026E+05 20.5916 1.00000
  3.500E+07 3.500E+07 3.004E+00 7.345E+01 1.024E+02 1.744E+01 1.933E+02 1.963E+02 8.302E+05 20.8999 1.00000
  4.000E+07 4.000E+07 3.020E+00 8.408E+01 1.171E+02 2.021E+01 2.214E+02 2.244E+02 8.541E+05 21.1670 1.00000
  4.500E+07 4.500E+07 3.034E+00 9.471E+01 1.319E+02 2.303E+01 2.496E+02 2.526E+02 8.751E+05 21.4025 1.00000
  5.000E+07 5.000E+07 3.047E+00 1.053E+02 1.466E+02 2.587E+01 2.778E+02 2.808E+02 8.939E+05 21.6132 1.00000
  5.500E+07 5.500E+07 3.058E+00 1.160E+02 1.613E+02 2.875E+01 3.060E+02 3.091E+02 9.109E+05 21.8039 1.00000
  6.000E+07 6.000E+07 3.069E+00 1.266E+02 1.760E+02 3.166E+01 3.343E+02 3.374E+02 9.264E+05 21.9779 1.00000
  7.000E+07 7.000E+07 3.087E+00 1.479E+02 2.055E+02 3.756E+01 3.910E+02 3.941E+02 9.539E+05 22.2862 1.00000
  8.000E+07 8.000E+07 3.104E+00 1.692E+02 2.350E+02 4.355E+01 4.477E+02 4.508E+02 9.777E+05 22.5533 1.00000
  9.000E+07 9.000E+07 3.118E+00 1.905E+02 2.644E+02 4.963E+01 5.046E+02 5.077E+02 9.986E+05 22.7888 1.00000
  1.000E+08 1.000E+08 3.131E+00 2.118E+02 2.939E+02 5.578E+01 5.615E+02 5.646E+02 1.017E+06 22.9995 1.00000
  1.200E+08 1.200E+08 3.154E+00 2.544E+02 3.529E+02 6.830E+01 6.756E+02 6.787E+02 1.050E+06 23.3642 1.00000
  1.400E+08 1.400E+08 3.173E+00 2.970E+02 4.118E+02 8.105E+01 7.899E+02 7.931E+02 1.077E+06 23.6725 1.00000
  1.700E+08 1.700E+08 3.198E+00 3.610E+02 5.002E+02 1.006E+02 9.618E+02 9.650E+02 1.112E+06 24.0608 1.00000
  2.000E+08 2.000E+08 3.218E+00 4.250E+02 5.887E+02 1.205E+02 1.134E+03 1.137E+03 1.140E+06 24.3858 1.00000
  2.500E+08 2.500E+08 3.247E+00 5.316E+02 7.361E+02 1.544E+02 1.422E+03 1.425E+03 1.180E+06 24.8321 1.00000
  3.000E+08 3.000E+08 3.271E+00 6.382E+02 8.835E+02 1.892E+02 1.711E+03 1.714E+03 1.212E+06 25.1968 1.00000
  3.500E+08 3.500E+08 3.291E+00 7.449E+02 1.031E+03 2.246E+02 2.000E+03 2.004E+03 1.239E+06 25.5051 1.00000
  4.000E+08 4.000E+08 3.309E+00 8.516E+02 1.178E+03 2.606E+02 2.290E+03 2.294E+03 1.262E+06 25.7721 1.00000
  4.500E+08 4.500E+08 3.324E+00 9.582E+02 1.326E+03 2.971E+02 2.581E+03 2.584E+03 1.283E+06 26.0077 1.00000
  5.000E+08 5.000E+08 3.338E+00 1.065E+03 1.473E+03 3.342E+02 2.872E+03 2.875E+03 1.301E+06 26.2184 1.00000
  5.500E+08 5.500E+08 3.351E+00 1.172E+03 1.620E+03 3.716E+02 3.164E+03 3.167E+03 1.318E+06 26.4090 1.00000
  6.000E+08 6.000E+08 3.363E+00 1.278E+03 1.768E+03 4.095E+02 3.456E+03 3.459E+03 1.333E+06 26.5831 1.00000
  7.000E+08 7.000E+08 3.384E+00 1.492E+03 2.063E+03 4.863E+02 4.041E+03 4.044E+03 1.360E+06 26.8914 1.00000
  8.000E+08 8.000E+08 3.402E+00 1.705E+03 2.357E+03 5.644E+02 4.627E+03 4.630E+03 1.383E+06 27.1584 1.00000
  9.000E+08 9.000E+08 3.418E+00 1.918E+03 2.652E+03 6.437E+02 5.214E+03 5.218E+03 1.403E+06 27.3940 1.00000
  1.000E+09 1.000E+09 3.432E+00 2.132E+03 2.947E+03 7.241E+02 5.803E+03 5.806E+03 1.422E+06 27.6047 1.00000
