 Incident particle is a Muon with M = 105.65839 MeV
 Index = 0: PhotographicEmulsion
      Absorber with <Z/A> = 0.45452
 Sternheimer coef:  a     k=m_s   x_0    x_1    I[eV]   Cbar  delta0
                 0.1240  3.0094  0.1009  3.4866  331.0  5.3319 0.00

 *** Table generated with PUMAS v1.00 ***

      T         p     Ionization  brems     pair     photonuc  Radloss    dE/dx   CSDA Range  delta   beta
    [MeV]    [MeV/c]  -----------------------[MeV cm^2/g]------------------------  [g/cm^2]
  1.000E+00 1.457E+01 3.028E+01 2.874E-06 0.000E+00 0.000E+00 2.874E-06 3.028E+01 1.651E-02  0.0000 0.13661
  1.200E+00 1.597E+01 2.643E+01 3.303E-06 0.000E+00 0.000E+00 3.303E-06 2.643E+01 2.360E-02  0.0000 0.14944
  1.400E+00 1.726E+01 2.353E+01 3.709E-06 0.000E+00 0.000E+00 3.709E-06 2.353E+01 3.163E-02  0.0000 0.16119
  1.700E+00 1.903E+01 2.030E+01 4.286E-06 0.000E+00 0.000E+00 4.286E-06 2.030E+01 4.539E-02  0.0000 0.17725
  2.000E+00 2.066E+01 1.793E+01 4.829E-06 0.000E+00 0.000E+00 4.829E-06 1.793E+01 6.115E-02  0.0000 0.19186
  2.500E+00 2.312E+01 1.511E+01 5.673E-06 0.000E+00 0.000E+00 5.673E-06 1.511E+01 9.164E-02  0.0000 0.21376
  3.000E+00 2.536E+01 1.313E+01 6.456E-06 0.000E+00 0.000E+00 6.456E-06 1.313E+01 1.272E-01  0.0000 0.23336
  3.500E+00 2.742E+01 1.166E+01 7.189E-06 0.000E+00 0.000E+00 7.189E-06 1.166E+01 1.677E-01  0.0000 0.25120
  4.000E+00 2.935E+01 1.052E+01 7.880E-06 0.000E+00 0.000E+00 7.880E-06 1.052E+01 2.130E-01  0.0000 0.26763
  4.500E+00 3.116E+01 9.606E+00 8.536E-06 0.000E+00 0.000E+00 8.536E-06 9.606E+00 2.627E-01  0.0000 0.28290
  5.000E+00 3.289E+01 8.861E+00 9.161E-06 0.000E+00 0.000E+00 9.161E-06 8.861E+00 3.170E-01  0.0000 0.29720
  5.500E+00 3.453E+01 8.239E+00 9.759E-06 0.000E+00 0.000E+00 9.759E-06 8.239E+00 3.755E-01  0.0000 0.31066
  6.000E+00 3.611E+01 7.711E+00 1.033E-05 0.000E+00 0.000E+00 1.033E-05 7.711E+00 4.383E-01  0.0000 0.32339
  7.000E+00 3.909E+01 6.863E+00 1.142E-05 0.000E+00 0.000E+00 1.142E-05 6.863E+00 5.760E-01  0.0000 0.34700
  8.000E+00 4.189E+01 6.211E+00 1.244E-05 0.000E+00 0.000E+00 1.244E-05 6.211E+00 7.294E-01  0.0000 0.36854
  9.000E+00 4.453E+01 5.692E+00 1.339E-05 0.000E+00 0.000E+00 1.339E-05 5.692E+00 8.977E-01  0.0000 0.38836
  1.000E+01 4.704E+01 5.269E+00 1.430E-05 0.000E+00 0.000E+00 1.430E-05 5.269E+00 1.080E+00  0.0000 0.40675
  1.200E+01 5.177E+01 4.621E+00 1.600E-05 0.000E+00 0.000E+00 1.600E-05 4.621E+00 1.487E+00  0.0000 0.43998
  1.400E+01 5.616E+01 4.147E+00 1.758E-05 0.000E+00 0.000E+00 1.758E-05 4.147E+00 1.944E+00  0.0000 0.46937
  1.700E+01 6.230E+01 3.633E+00 1.976E-05 0.000E+00 0.000E+00 1.976E-05 3.633E+00 2.719E+00  0.0000 0.50792
  2.000E+01 6.802E+01 3.266E+00 2.178E-05 0.000E+00 0.000E+00 2.178E-05 3.266E+00 3.591E+00  0.0000 0.54129
  2.500E+01 7.686E+01 2.842E+00 2.491E-05 0.000E+00 0.000E+00 2.491E-05 2.842E+00 5.236E+00  0.0000 0.58827
  3.000E+01 8.509E+01 2.555E+00 2.784E-05 0.000E+00 0.000E+00 2.784E-05 2.556E+00 7.094E+00  0.0000 0.62720
  3.500E+01 9.285E+01 2.349E+00 3.065E-05 0.000E+00 0.000E+00 3.065E-05 2.349E+00 9.136E+00  0.0000 0.66011
  4.000E+01 1.003E+02 2.195E+00 3.338E-05 0.000E+00 0.000E+00 3.338E-05 2.195E+00 1.134E+01  0.0000 0.68834
  4.500E+01 1.074E+02 2.075E+00 3.605E-05 0.000E+00 0.000E+00 3.605E-05 2.075E+00 1.368E+01  0.0000 0.71286
  5.000E+01 1.143E+02 1.979E+00 3.870E-05 0.000E+00 0.000E+00 3.870E-05 1.979E+00 1.615E+01  0.0000 0.73434
  5.500E+01 1.210E+02 1.902E+00 4.133E-05 0.000E+00 0.000E+00 4.133E-05 1.902E+00 1.873E+01  0.0000 0.75332
  6.000E+01 1.276E+02 1.838E+00 4.396E-05 0.000E+00 0.000E+00 4.396E-05 1.838E+00 2.140E+01  0.0000 0.77019
  7.000E+01 1.403E+02 1.739E+00 4.924E-05 0.000E+00 0.000E+00 4.924E-05 1.739E+00 2.700E+01  0.0076 0.79887
  8.000E+01 1.527E+02 1.667E+00 5.458E-05 0.000E+00 0.000E+00 5.458E-05 1.667E+00 3.287E+01  0.0215 0.82227
  9.000E+01 1.647E+02 1.613E+00 6.001E-05 0.000E+00 0.000E+00 6.001E-05 1.613E+00 3.897E+01  0.0370 0.84166
  1.000E+02 1.764E+02 1.572E+00 6.553E-05 0.000E+00 0.000E+00 6.553E-05 1.572E+00 4.525E+01  0.0534 0.85794
  1.200E+02 1.994E+02 1.515E+00 7.689E-05 0.000E+00 0.000E+00 7.689E-05 1.515E+00 5.821E+01  0.0880 0.88361
  1.400E+02 2.218E+02 1.478E+00 8.870E-05 0.000E+00 0.000E+00 8.870E-05 1.478E+00 7.158E+01  0.1236 0.90278
  1.700E+02 2.546E+02 1.447E+00 1.073E-04 7.245E-15 0.000E+00 1.073E-04 1.447E+00 9.209E+01  0.1775 0.92363
  2.000E+02 2.868E+02 1.431E+00 1.268E-04 1.619E-12 0.000E+00 1.268E-04 1.431E+00 1.129E+02  0.2308 0.93835
  2.500E+02 3.396E+02 1.422E+00 1.615E-04 1.361E-08 0.000E+00 1.615E-04 1.422E+00 1.480E+02  0.3170 0.95485
  3.000E+02 3.917E+02 1.424E+00 1.986E-04 1.208E-07 0.000E+00 1.987E-04 1.424E+00 1.831E+02  0.3992 0.96548
  3.500E+02 4.432E+02 1.432E+00 2.378E-04 2.808E-06 0.000E+00 2.406E-04 1.432E+00 2.181E+02  0.4774 0.97274
  4.000E+02 4.945E+02 1.441E+00 2.791E-04 1.517E-05 0.000E+00 2.943E-04 1.442E+00 2.529E+02  0.5518 0.97793
  4.500E+02 5.455E+02 1.452E+00 3.222E-04 2.654E-05 0.000E+00 3.488E-04 1.453E+00 2.875E+02  0.6227 0.98176
  5.000E+02 5.964E+02 1.463E+00 3.671E-04 3.973E-05 0.000E+00 4.068E-04 1.464E+00 3.218E+02  0.6903 0.98467
  5.500E+02 6.471E+02 1.475E+00 4.135E-04 5.526E-05 0.000E+00 4.688E-04 1.475E+00 3.558E+02  0.7550 0.98693
  6.000E+02 6.977E+02 1.486E+00 4.615E-04 7.310E-05 0.000E+00 5.346E-04 1.486E+00 3.896E+02  0.8169 0.98873
  7.000E+02 7.987E+02 1.507E+00 5.616E-04 1.154E-04 0.000E+00 6.770E-04 1.508E+00 4.564E+02  0.9335 0.99136
  8.000E+02 8.995E+02 1.527E+00 6.668E-04 1.661E-04 0.000E+00 8.330E-04 1.528E+00 5.223E+02  1.0416 0.99317
  9.000E+02 1.000E+03 1.545E+00 7.767E-04 2.247E-04 0.000E+00 1.001E-03 1.546E+00 5.874E+02  1.1424 0.99447
  1.000E+03 1.101E+03 1.562E+00 8.907E-04 2.906E-04 0.000E+00 1.181E-03 1.563E+00 6.517E+02  1.2368 0.99542
  1.200E+03 1.301E+03 1.592E+00 1.130E-03 4.428E-04 2.249E-05 1.596E-03 1.593E+00 7.784E+02  1.4099 0.99672
  1.400E+03 1.502E+03 1.618E+00 1.383E-03 6.199E-04 6.121E-05 2.064E-03 1.620E+00 9.029E+02  1.5656 0.99753
  1.700E+03 1.803E+03 1.651E+00 1.784E-03 9.269E-04 1.303E-04 2.841E-03 1.653E+00 1.086E+03  1.7737 0.99829
  2.000E+03 2.103E+03 1.678E+00 2.208E-03 1.278E-03 2.110E-04 3.697E-03 1.682E+00 1.266E+03  1.9578 0.99874
  2.500E+03 2.604E+03 1.716E+00 2.956E-03 1.947E-03 3.658E-04 5.269E-03 1.722E+00 1.560E+03  2.2250 0.99918
  3.000E+03 3.104E+03 1.747E+00 3.750E-03 2.707E-03 5.271E-04 6.984E-03 1.754E+00 1.848E+03  2.4552 0.99942
  3.500E+03 3.604E+03 1.773E+00 4.581E-03 3.544E-03 6.970E-04 8.822E-03 1.781E+00 2.131E+03  2.6579 0.99957
  4.000E+03 4.104E+03 1.795E+00 5.445E-03 4.462E-03 8.778E-04 1.078E-02 1.805E+00 2.409E+03  2.8392 0.99967
  4.500E+03 4.604E+03 1.814E+00 6.338E-03 5.445E-03 1.065E-03 1.285E-02 1.826E+00 2.685E+03  3.0035 0.99974
  5.000E+03 5.105E+03 1.830E+00 7.257E-03 6.484E-03 1.245E-03 1.499E-02 1.845E+00 2.957E+03  3.1537 0.99979
  5.500E+03 5.605E+03 1.845E+00 8.200E-03 7.574E-03 1.438E-03 1.721E-02 1.863E+00 3.227E+03  3.2923 0.99982
  6.000E+03 6.105E+03 1.859E+00 9.164E-03 8.710E-03 1.617E-03 1.949E-02 1.878E+00 3.494E+03  3.4209 0.99985
  7.000E+03 7.105E+03 1.882E+00 1.115E-02 1.111E-02 1.997E-03 2.425E-02 1.907E+00 4.023E+03  3.6536 0.99989
  8.000E+03 8.105E+03 1.902E+00 1.320E-02 1.365E-02 2.373E-03 2.922E-02 1.932E+00 4.544E+03  3.8600 0.99992
  9.000E+03 9.105E+03 1.920E+00 1.531E-02 1.632E-02 2.726E-03 3.436E-02 1.954E+00 5.058E+03  4.0456 0.99993
  1.000E+04 1.011E+04 1.935E+00 1.748E-02 1.910E-02 3.089E-03 3.967E-02 1.975E+00 5.567E+03  4.2144 0.99995
  1.200E+04 1.211E+04 1.961E+00 2.195E-02 2.497E-02 3.825E-03 5.074E-02 2.011E+00 6.571E+03  4.5124 0.99996
  1.400E+04 1.411E+04 1.982E+00 2.657E-02 3.116E-02 4.561E-03 6.230E-02 2.044E+00 7.558E+03  4.7699 0.99997
  1.700E+04 1.711E+04 2.007E+00 3.376E-02 4.098E-02 5.648E-03 8.039E-02 2.088E+00 9.010E+03  5.1010 0.99998
  2.000E+04 2.011E+04 2.028E+00 4.119E-02 5.132E-02 6.712E-03 9.923E-02 2.127E+00 1.043E+04  5.3837 0.99999
  2.500E+04 2.511E+04 2.056E+00 5.403E-02 6.947E-02 8.456E-03 1.320E-01 2.188E+00 1.275E+04  5.7794 0.99999
  3.000E+04 3.011E+04 2.077E+00 6.733E-02 8.853E-02 1.017E-02 1.660E-01 2.243E+00 1.501E+04  6.1089 0.99999
  3.500E+04 3.511E+04 2.095E+00 8.100E-02 1.083E-01 1.189E-02 2.012E-01 2.296E+00 1.721E+04  6.3913 1.00000
  4.000E+04 4.011E+04 2.110E+00 9.498E-02 1.287E-01 1.359E-02 2.373E-01 2.347E+00 1.937E+04  6.6387 1.00000
  4.500E+04 4.511E+04 2.123E+00 1.092E-01 1.497E-01 1.527E-02 2.742E-01 2.397E+00 2.147E+04  6.8589 1.00000
  5.000E+04 5.011E+04 2.134E+00 1.237E-01 1.710E-01 1.695E-02 3.117E-01 2.446E+00 2.354E+04  7.0574 1.00000
  5.500E+04 5.511E+04 2.145E+00 1.384E-01 1.928E-01 1.864E-02 3.498E-01 2.494E+00 2.556E+04  7.2380 1.00000
  6.000E+04 6.011E+04 2.154E+00 1.533E-01 2.148E-01 2.031E-02 3.885E-01 2.542E+00 2.755E+04  7.4038 1.00000
  7.000E+04 7.011E+04 2.170E+00 1.836E-01 2.598E-01 2.362E-02 4.671E-01 2.637E+00 3.141E+04  7.6995 1.00000
  8.000E+04 8.011E+04 2.183E+00 2.145E-01 3.058E-01 2.694E-02 5.473E-01 2.730E+00 3.514E+04  7.9575 1.00000
  9.000E+04 9.011E+04 2.195E+00 2.459E-01 3.526E-01 3.025E-02 6.287E-01 2.824E+00 3.874E+04  8.1863 1.00000
  1.000E+05 1.001E+05 2.205E+00 2.776E-01 4.001E-01 3.351E-02 7.112E-01 2.917E+00 4.223E+04  8.3920 1.00000
  1.200E+05 1.201E+05 2.223E+00 3.423E-01 4.967E-01 4.013E-02 8.791E-01 3.102E+00 4.888E+04  8.7498 1.00000
  1.400E+05 1.401E+05 2.238E+00 4.081E-01 5.952E-01 4.674E-02 1.050E+00 3.288E+00 5.514E+04  9.0539 1.00000
  1.700E+05 1.701E+05 2.256E+00 5.087E-01 7.454E-01 5.666E-02 1.311E+00 3.567E+00 6.391E+04  9.4387 1.00000
  2.000E+05 2.001E+05 2.272E+00 6.111E-01 8.981E-01 6.664E-02 1.576E+00 3.847E+00 7.201E+04  9.7620 1.00000
  2.500E+05 2.501E+05 2.292E+00 7.848E-01 1.157E+00 8.330E-02 2.025E+00 4.317E+00 8.430E+04 10.2071 1.00000
  3.000E+05 3.001E+05 2.309E+00 9.614E-01 1.419E+00 1.001E-01 2.480E+00 4.789E+00 9.531E+04 10.5715 1.00000
  3.500E+05 3.501E+05 2.324E+00 1.140E+00 1.683E+00 1.171E-01 2.941E+00 5.265E+00 1.053E+05 10.8797 1.00000
  4.000E+05 4.001E+05 2.336E+00 1.321E+00 1.950E+00 1.341E-01 3.406E+00 5.742E+00 1.144E+05 11.1466 1.00000
  4.500E+05 4.501E+05 2.347E+00 1.504E+00 2.219E+00 1.513E-01 3.874E+00 6.221E+00 1.228E+05 11.3822 1.00000
  5.000E+05 5.001E+05 2.357E+00 1.688E+00 2.489E+00 1.685E-01 4.345E+00 6.702E+00 1.305E+05 11.5928 1.00000
  5.500E+05 5.501E+05 2.366E+00 1.873E+00 2.760E+00 1.857E-01 4.819E+00 7.185E+00 1.377E+05 11.7834 1.00000
  6.000E+05 6.001E+05 2.374E+00 2.059E+00 3.033E+00 2.029E-01 5.294E+00 7.668E+00 1.445E+05 11.9574 1.00000
  7.000E+05 7.001E+05 2.389E+00 2.433E+00 3.580E+00 2.377E-01 6.251E+00 8.639E+00 1.568E+05 12.2657 1.00000
  8.000E+05 8.001E+05 2.401E+00 2.811E+00 4.129E+00 2.729E-01 7.213E+00 9.614E+00 1.678E+05 12.5327 1.00000
  9.000E+05 9.001E+05 2.412E+00 3.190E+00 4.681E+00 3.084E-01 8.180E+00 1.059E+01 1.777E+05 12.7682 1.00000
  1.000E+06 1.000E+06 2.422E+00 3.572E+00 5.235E+00 3.442E-01 9.151E+00 1.157E+01 1.867E+05 12.9789 1.00000
  1.200E+06 1.200E+06 2.440E+00 4.341E+00 6.347E+00 4.166E-01 1.110E+01 1.354E+01 2.027E+05 13.3435 1.00000
  1.400E+06 1.400E+06 2.455E+00 5.114E+00 7.462E+00 4.901E-01 1.307E+01 1.552E+01 2.166E+05 13.6518 1.00000
  1.700E+06 1.700E+06 2.473E+00 6.282E+00 9.142E+00 6.021E-01 1.603E+01 1.850E+01 2.343E+05 14.0401 1.00000
  2.000E+06 2.000E+06 2.489E+00 7.457E+00 1.083E+01 7.158E-01 1.900E+01 2.149E+01 2.494E+05 14.3651 1.00000
  2.500E+06 2.500E+06 2.511E+00 9.426E+00 1.364E+01 9.088E-01 2.398E+01 2.649E+01 2.705E+05 14.8114 1.00000
  3.000E+06 3.000E+06 2.529E+00 1.141E+01 1.647E+01 1.106E+00 2.898E+01 3.151E+01 2.879E+05 15.1760 1.00000
  3.500E+06 3.500E+06 2.544E+00 1.339E+01 1.930E+01 1.305E+00 3.399E+01 3.654E+01 3.026E+05 15.4843 1.00000
  4.000E+06 4.000E+06 2.558E+00 1.538E+01 2.213E+01 1.508E+00 3.902E+01 4.158E+01 3.155E+05 15.7513 1.00000
  4.500E+06 4.500E+06 2.569E+00 1.738E+01 2.497E+01 1.713E+00 4.406E+01 4.663E+01 3.269E+05 15.9869 1.00000
  5.000E+06 5.000E+06 2.580E+00 1.938E+01 2.781E+01 1.921E+00 4.911E+01 5.169E+01 3.371E+05 16.1976 1.00000
  5.500E+06 5.500E+06 2.590E+00 2.139E+01 3.065E+01 2.131E+00 5.417E+01 5.676E+01 3.463E+05 16.3882 1.00000
  6.000E+06 6.000E+06 2.599E+00 2.340E+01 3.349E+01 2.342E+00 5.923E+01 6.183E+01 3.548E+05 16.5623 1.00000
  7.000E+06 7.000E+06 2.614E+00 2.742E+01 3.918E+01 2.771E+00 6.937E+01 7.198E+01 3.698E+05 16.8705 1.00000
  8.000E+06 8.000E+06 2.628E+00 3.145E+01 4.488E+01 3.206E+00 7.953E+01 8.216E+01 3.828E+05 17.1376 1.00000
  9.000E+06 9.000E+06 2.640E+00 3.548E+01 5.057E+01 3.646E+00 8.970E+01 9.234E+01 3.943E+05 17.3732 1.00000
  1.000E+07 1.000E+07 2.651E+00 3.952E+01 5.628E+01 4.092E+00 9.989E+01 1.025E+02 4.046E+05 17.5839 1.00000
  1.200E+07 1.200E+07 2.670E+00 4.761E+01 6.768E+01 4.997E+00 1.203E+02 1.230E+02 4.225E+05 17.9485 1.00000
  1.400E+07 1.400E+07 2.687E+00 5.571E+01 7.910E+01 5.919E+00 1.407E+02 1.434E+02 4.376E+05 18.2568 1.00000
  1.700E+07 1.700E+07 2.707E+00 6.788E+01 9.623E+01 7.327E+00 1.714E+02 1.741E+02 4.567E+05 18.6451 1.00000
  2.000E+07 2.000E+07 2.725E+00 8.006E+01 1.134E+02 8.762E+00 2.022E+02 2.049E+02 4.726E+05 18.9702 1.00000
  2.500E+07 2.500E+07 2.749E+00 1.004E+02 1.419E+02 1.121E+01 2.535E+02 2.563E+02 4.946E+05 19.4165 1.00000
  3.000E+07 3.000E+07 2.769E+00 1.207E+02 1.705E+02 1.370E+01 3.050E+02 3.077E+02 5.124E+05 19.7811 1.00000
  3.500E+07 3.500E+07 2.786E+00 1.411E+02 1.991E+02 1.625E+01 3.564E+02 3.592E+02 5.275E+05 20.0894 1.00000
  4.000E+07 4.000E+07 2.801E+00 1.614E+02 2.277E+02 1.883E+01 4.080E+02 4.108E+02 5.406E+05 20.3565 1.00000
  4.500E+07 4.500E+07 2.814E+00 1.818E+02 2.563E+02 2.145E+01 4.596E+02 4.624E+02 5.521E+05 20.5920 1.00000
  5.000E+07 5.000E+07 2.826E+00 2.022E+02 2.849E+02 2.410E+01 5.112E+02 5.140E+02 5.623E+05 20.8027 1.00000
  5.500E+07 5.500E+07 2.836E+00 2.226E+02 3.135E+02 2.678E+01 5.629E+02 5.657E+02 5.716E+05 20.9934 1.00000
  6.000E+07 6.000E+07 2.846E+00 2.429E+02 3.422E+02 2.949E+01 6.146E+02 6.174E+02 5.801E+05 21.1674 1.00000
  7.000E+07 7.000E+07 2.864E+00 2.837E+02 3.994E+02 3.499E+01 7.181E+02 7.210E+02 5.951E+05 21.4757 1.00000
  8.000E+07 8.000E+07 2.879E+00 3.245E+02 4.566E+02 4.057E+01 8.217E+02 8.246E+02 6.081E+05 21.7428 1.00000
  9.000E+07 9.000E+07 2.893E+00 3.653E+02 5.139E+02 4.623E+01 9.254E+02 9.283E+02 6.196E+05 21.9783 1.00000
  1.000E+08 1.000E+08 2.905E+00 4.061E+02 5.711E+02 5.196E+01 1.029E+03 1.032E+03 6.298E+05 22.1890 1.00000
  1.200E+08 1.200E+08 2.926E+00 4.877E+02 6.856E+02 6.362E+01 1.237E+03 1.240E+03 6.476E+05 22.5537 1.00000
  1.400E+08 1.400E+08 2.944E+00 5.694E+02 8.001E+02 7.550E+01 1.445E+03 1.448E+03 6.625E+05 22.8620 1.00000
  1.700E+08 1.700E+08 2.967E+00 6.918E+02 9.718E+02 9.367E+01 1.757E+03 1.760E+03 6.814E+05 23.2503 1.00000
  2.000E+08 2.000E+08 2.987E+00 8.143E+02 1.144E+03 1.122E+02 2.070E+03 2.073E+03 6.972E+05 23.5753 1.00000
  2.500E+08 2.500E+08 3.014E+00 1.018E+03 1.430E+03 1.438E+02 2.592E+03 2.595E+03 7.189E+05 24.0216 1.00000
  3.000E+08 3.000E+08 3.036E+00 1.223E+03 1.716E+03 1.762E+02 3.115E+03 3.118E+03 7.365E+05 24.3863 1.00000
  3.500E+08 3.500E+08 3.055E+00 1.427E+03 2.002E+03 2.092E+02 3.638E+03 3.641E+03 7.514E+05 24.6946 1.00000
  4.000E+08 4.000E+08 3.071E+00 1.631E+03 2.288E+03 2.427E+02 4.162E+03 4.165E+03 7.643E+05 24.9616 1.00000
  4.500E+08 4.500E+08 3.086E+00 1.835E+03 2.575E+03 2.768E+02 4.687E+03 4.690E+03 7.756E+05 25.1972 1.00000
  5.000E+08 5.000E+08 3.099E+00 2.039E+03 2.861E+03 3.113E+02 5.212E+03 5.215E+03 7.857E+05 25.4079 1.00000
  5.500E+08 5.500E+08 3.111E+00 2.244E+03 3.147E+03 3.462E+02 5.737E+03 5.740E+03 7.949E+05 25.5985 1.00000
  6.000E+08 6.000E+08 3.122E+00 2.448E+03 3.433E+03 3.814E+02 6.263E+03 6.266E+03 8.032E+05 25.7726 1.00000
  7.000E+08 7.000E+08 3.142E+00 2.856E+03 4.006E+03 4.530E+02 7.315E+03 7.318E+03 8.180E+05 26.0809 1.00000
  8.000E+08 8.000E+08 3.159E+00 3.265E+03 4.578E+03 5.257E+02 8.369E+03 8.372E+03 8.308E+05 26.3479 1.00000
  9.000E+08 9.000E+08 3.174E+00 3.673E+03 5.151E+03 5.996E+02 9.424E+03 9.427E+03 8.421E+05 26.5835 1.00000
  1.000E+09 1.000E+09 3.188E+00 4.082E+03 5.723E+03 6.744E+02 1.048E+04 1.048E+04 8.522E+05 26.7942 1.00000
