 Incident particle is a Muon with M = 105.65839 MeV
 Index = 0: PlateGlass
      Absorber with <Z/A> = 0.49732
 Sternheimer coef:  a     k=m_s   x_0    x_1    I[eV]   Cbar  delta0
                 0.0768  3.5381  0.1237  3.0649  145.4  4.0602 0.00

 *** Table generated with PUMAS v1.00 ***

      T         p     Ionization  brems     pair     photonuc  Radloss    dE/dx   CSDA Range  delta   beta
    [MeV]    [MeV/c]  -----------------------[MeV cm^2/g]------------------------  [g/cm^2]
  1.000E+00 1.457E+01 3.987E+01 1.174E-06 0.000E+00 0.000E+00 1.174E-06 3.987E+01 1.254E-02  0.0000 0.13661
  1.200E+00 1.597E+01 3.454E+01 1.348E-06 0.000E+00 0.000E+00 1.348E-06 3.454E+01 1.795E-02  0.0000 0.14944
  1.400E+00 1.726E+01 3.058E+01 1.515E-06 0.000E+00 0.000E+00 1.515E-06 3.058E+01 2.411E-02  0.0000 0.16119
  1.700E+00 1.903E+01 2.621E+01 1.751E-06 0.000E+00 0.000E+00 1.751E-06 2.621E+01 3.474E-02  0.0000 0.17725
  2.000E+00 2.066E+01 2.303E+01 1.975E-06 0.000E+00 0.000E+00 1.975E-06 2.303E+01 4.697E-02  0.0000 0.19186
  2.500E+00 2.312E+01 1.928E+01 2.326E-06 0.000E+00 0.000E+00 2.326E-06 1.928E+01 7.080E-02  0.0000 0.21376
  3.000E+00 2.536E+01 1.667E+01 2.653E-06 0.000E+00 0.000E+00 2.653E-06 1.667E+01 9.876E-02  0.0000 0.23336
  3.500E+00 2.742E+01 1.474E+01 2.961E-06 0.000E+00 0.000E+00 2.961E-06 1.474E+01 1.307E-01  0.0000 0.25120
  4.000E+00 2.935E+01 1.326E+01 3.253E-06 0.000E+00 0.000E+00 3.253E-06 1.326E+01 1.665E-01  0.0000 0.26763
  4.500E+00 3.116E+01 1.208E+01 3.531E-06 0.000E+00 0.000E+00 3.531E-06 1.208E+01 2.061E-01  0.0000 0.28290
  5.000E+00 3.289E+01 1.112E+01 3.798E-06 0.000E+00 0.000E+00 3.798E-06 1.112E+01 2.493E-01  0.0000 0.29720
  5.500E+00 3.453E+01 1.032E+01 4.054E-06 0.000E+00 0.000E+00 4.054E-06 1.032E+01 2.960E-01  0.0000 0.31066
  6.000E+00 3.611E+01 9.639E+00 4.300E-06 0.000E+00 0.000E+00 4.300E-06 9.639E+00 3.461E-01  0.0000 0.32339
  7.000E+00 3.909E+01 8.553E+00 4.769E-06 0.000E+00 0.000E+00 4.769E-06 8.553E+00 4.565E-01  0.0000 0.34700
  8.000E+00 4.189E+01 7.720E+00 5.209E-06 0.000E+00 0.000E+00 5.209E-06 7.720E+00 5.797E-01  0.0000 0.36854
  9.000E+00 4.453E+01 7.061E+00 5.627E-06 0.000E+00 0.000E+00 5.627E-06 7.061E+00 7.153E-01  0.0000 0.38836
  1.000E+01 4.704E+01 6.525E+00 6.024E-06 0.000E+00 0.000E+00 6.024E-06 6.525E+00 8.627E-01  0.0000 0.40675
  1.200E+01 5.177E+01 5.705E+00 6.771E-06 0.000E+00 0.000E+00 6.771E-06 5.705E+00 1.191E+00  0.0000 0.43998
  1.400E+01 5.616E+01 5.107E+00 7.465E-06 0.000E+00 0.000E+00 7.465E-06 5.107E+00 1.562E+00  0.0000 0.46937
  1.700E+01 6.230E+01 4.462E+00 8.432E-06 0.000E+00 0.000E+00 8.432E-06 4.462E+00 2.192E+00  0.0000 0.50792
  2.000E+01 6.802E+01 4.002E+00 9.331E-06 0.000E+00 0.000E+00 9.331E-06 4.002E+00 2.903E+00  0.0000 0.54129
  2.500E+01 7.686E+01 3.473E+00 1.073E-05 0.000E+00 0.000E+00 1.073E-05 3.473E+00 4.248E+00  0.0000 0.58827
  3.000E+01 8.509E+01 3.115E+00 1.203E-05 0.000E+00 0.000E+00 1.203E-05 3.115E+00 5.770E+00  0.0000 0.62720
  3.500E+01 9.285E+01 2.859E+00 1.328E-05 0.000E+00 0.000E+00 1.328E-05 2.859E+00 7.447E+00  0.0000 0.66011
  4.000E+01 1.003E+02 2.666E+00 1.449E-05 0.000E+00 0.000E+00 1.449E-05 2.666E+00 9.259E+00  0.0000 0.68834
  4.500E+01 1.074E+02 2.517E+00 1.568E-05 0.000E+00 0.000E+00 1.568E-05 2.517E+00 1.119E+01  0.0000 0.71286
  5.000E+01 1.143E+02 2.398E+00 1.685E-05 0.000E+00 0.000E+00 1.685E-05 2.398E+00 1.323E+01  0.0000 0.73434
  5.500E+01 1.210E+02 2.302E+00 1.802E-05 0.000E+00 0.000E+00 1.802E-05 2.302E+00 1.535E+01  0.0000 0.75332
  6.000E+01 1.276E+02 2.223E+00 1.918E-05 0.000E+00 0.000E+00 1.918E-05 2.223E+00 1.756E+01  0.0000 0.77019
  7.000E+01 1.403E+02 2.101E+00 2.150E-05 0.000E+00 0.000E+00 2.150E-05 2.101E+00 2.219E+01  0.0000 0.79887
  8.000E+01 1.527E+02 2.010E+00 2.384E-05 0.000E+00 0.000E+00 2.384E-05 2.010E+00 2.706E+01  0.0182 0.82227
  9.000E+01 1.647E+02 1.942E+00 2.621E-05 0.000E+00 0.000E+00 2.621E-05 1.942E+00 3.212E+01  0.0377 0.84166
  1.000E+02 1.764E+02 1.890E+00 2.862E-05 0.000E+00 0.000E+00 2.862E-05 1.890E+00 3.734E+01  0.0588 0.85794
  1.200E+02 1.994E+02 1.816E+00 3.356E-05 0.000E+00 0.000E+00 3.356E-05 1.817E+00 4.814E+01  0.1036 0.88361
  1.400E+02 2.218E+02 1.769E+00 3.868E-05 0.000E+00 0.000E+00 3.868E-05 1.769E+00 5.929E+01  0.1503 0.90278
  1.700E+02 2.546E+02 1.726E+00 4.671E-05 2.324E-14 0.000E+00 4.671E-05 1.726E+00 7.646E+01  0.2213 0.92363
  2.000E+02 2.868E+02 1.703E+00 5.513E-05 6.584E-12 0.000E+00 5.513E-05 1.703E+00 9.396E+01  0.2916 0.93835
  2.500E+02 3.396E+02 1.686E+00 7.002E-05 1.023E-07 0.000E+00 7.012E-05 1.686E+00 1.235E+02  0.4053 0.95485
  3.000E+02 3.917E+02 1.684E+00 8.587E-05 1.152E-06 0.000E+00 8.703E-05 1.684E+00 1.531E+02  0.5135 0.96548
  3.500E+02 4.432E+02 1.688E+00 1.026E-04 3.223E-06 0.000E+00 1.058E-04 1.688E+00 1.828E+02  0.6162 0.97274
  4.000E+02 4.945E+02 1.695E+00 1.202E-04 6.284E-06 0.000E+00 1.265E-04 1.696E+00 2.123E+02  0.7136 0.97793
  4.500E+02 5.455E+02 1.705E+00 1.385E-04 1.030E-05 0.000E+00 1.488E-04 1.705E+00 2.418E+02  0.8061 0.98176
  5.000E+02 5.964E+02 1.715E+00 1.575E-04 1.524E-05 0.000E+00 1.727E-04 1.715E+00 2.710E+02  0.8940 0.98467
  5.500E+02 6.471E+02 1.725E+00 1.771E-04 2.106E-05 0.000E+00 1.982E-04 1.725E+00 3.001E+02  0.9779 0.98693
  6.000E+02 6.977E+02 1.735E+00 1.974E-04 2.775E-05 0.000E+00 2.251E-04 1.736E+00 3.290E+02  1.0580 0.98873
  7.000E+02 7.987E+02 1.755E+00 2.396E-04 4.357E-05 0.000E+00 2.832E-04 1.756E+00 3.863E+02  1.2082 0.99136
  8.000E+02 8.995E+02 1.774E+00 2.838E-04 6.250E-05 0.000E+00 3.463E-04 1.775E+00 4.429E+02  1.3468 0.99317
  9.000E+02 1.000E+03 1.792E+00 3.299E-04 8.432E-05 0.000E+00 4.142E-04 1.792E+00 4.990E+02  1.4754 0.99447
  1.000E+03 1.101E+03 1.808E+00 3.777E-04 1.089E-04 0.000E+00 4.865E-04 1.808E+00 5.545E+02  1.5955 0.99542
  1.200E+03 1.301E+03 1.837E+00 4.777E-04 1.655E-04 2.253E-05 6.658E-04 1.838E+00 6.643E+02  1.8141 0.99672
  1.400E+03 1.502E+03 1.862E+00 5.831E-04 2.314E-04 6.158E-05 8.761E-04 1.863E+00 7.724E+02  2.0095 0.99753
  1.700E+03 1.803E+03 1.894E+00 7.499E-04 3.455E-04 1.318E-04 1.227E-03 1.895E+00 9.320E+02  2.2685 0.99829
  2.000E+03 2.103E+03 1.921E+00 9.257E-04 4.760E-04 2.143E-04 1.616E-03 1.923E+00 1.089E+03  2.4960 0.99874
  2.500E+03 2.604E+03 1.958E+00 1.236E-03 7.248E-04 3.738E-04 2.334E-03 1.960E+00 1.347E+03  2.8232 0.99918
  3.000E+03 3.104E+03 1.988E+00 1.563E-03 1.007E-03 5.411E-04 3.112E-03 1.991E+00 1.600E+03  3.1025 0.99942
  3.500E+03 3.604E+03 2.013E+00 1.906E-03 1.319E-03 7.182E-04 3.943E-03 2.017E+00 1.849E+03  3.3464 0.99957
  4.000E+03 4.104E+03 2.034E+00 2.263E-03 1.669E-03 9.074E-04 4.839E-03 2.039E+00 2.096E+03  3.5632 0.99967
  4.500E+03 4.604E+03 2.052E+00 2.631E-03 2.049E-03 1.104E-03 5.783E-03 2.058E+00 2.340E+03  3.7582 0.99974
  5.000E+03 5.105E+03 2.069E+00 3.009E-03 2.450E-03 1.293E-03 6.752E-03 2.075E+00 2.582E+03  3.9357 0.99979
  5.500E+03 5.605E+03 2.083E+00 3.397E-03 2.872E-03 1.497E-03 7.766E-03 2.091E+00 2.822E+03  4.0985 0.99982
  6.000E+03 6.105E+03 2.096E+00 3.793E-03 3.312E-03 1.687E-03 8.792E-03 2.105E+00 3.060E+03  4.2490 0.99985
  7.000E+03 7.105E+03 2.119E+00 4.609E-03 4.242E-03 2.089E-03 1.094E-02 2.130E+00 3.533E+03  4.5196 0.99989
  8.000E+03 8.105E+03 2.139E+00 5.453E-03 5.231E-03 2.489E-03 1.317E-02 2.152E+00 4.000E+03  4.7578 0.99992
  9.000E+03 9.105E+03 2.155E+00 6.321E-03 6.272E-03 2.865E-03 1.546E-02 2.171E+00 4.462E+03  4.9707 0.99993
  1.000E+04 1.011E+04 2.170E+00 7.211E-03 7.359E-03 3.253E-03 1.782E-02 2.188E+00 4.921E+03  5.1632 0.99995
  1.200E+04 1.211E+04 2.195E+00 9.047E-03 9.654E-03 4.041E-03 2.274E-02 2.218E+00 5.829E+03  5.5006 0.99996
  1.400E+04 1.411E+04 2.216E+00 1.095E-02 1.209E-02 4.830E-03 2.786E-02 2.244E+00 6.726E+03  5.7896 0.99997
  1.700E+04 1.711E+04 2.241E+00 1.390E-02 1.595E-02 6.000E-03 3.585E-02 2.277E+00 8.053E+03  6.1579 0.99998
  2.000E+04 2.011E+04 2.262E+00 1.696E-02 2.003E-02 7.149E-03 4.414E-02 2.306E+00 9.362E+03  6.4695 0.99999
  2.500E+04 2.511E+04 2.289E+00 2.224E-02 2.722E-02 9.037E-03 5.850E-02 2.348E+00 1.151E+04  6.9016 0.99999
  3.000E+04 3.011E+04 2.311E+00 2.772E-02 3.480E-02 1.089E-02 7.341E-02 2.384E+00 1.362E+04  7.2577 0.99999
  3.500E+04 3.511E+04 2.329E+00 3.335E-02 4.270E-02 1.277E-02 8.882E-02 2.417E+00 1.571E+04  7.5605 1.00000
  4.000E+04 4.011E+04 2.344E+00 3.912E-02 5.086E-02 1.462E-02 1.046E-01 2.448E+00 1.776E+04  7.8239 1.00000
  4.500E+04 4.511E+04 2.357E+00 4.501E-02 5.924E-02 1.645E-02 1.207E-01 2.478E+00 1.979E+04  8.0569 1.00000
  5.000E+04 5.011E+04 2.369E+00 5.100E-02 6.782E-02 1.829E-02 1.371E-01 2.506E+00 2.180E+04  8.2659 1.00000
  5.500E+04 5.511E+04 2.379E+00 5.708E-02 7.657E-02 2.013E-02 1.538E-01 2.533E+00 2.378E+04  8.4552 1.00000
  6.000E+04 6.011E+04 2.389E+00 6.324E-02 8.547E-02 2.196E-02 1.707E-01 2.559E+00 2.575E+04  8.6283 1.00000
  7.000E+04 7.011E+04 2.405E+00 7.578E-02 1.037E-01 2.559E-02 2.050E-01 2.610E+00 2.962E+04  8.9354 1.00000
  8.000E+04 8.011E+04 2.419E+00 8.857E-02 1.223E-01 2.923E-02 2.401E-01 2.659E+00 3.341E+04  9.2018 1.00000
  9.000E+04 9.011E+04 2.432E+00 1.016E-01 1.413E-01 3.287E-02 2.757E-01 2.707E+00 3.714E+04  9.4369 1.00000
  1.000E+05 1.001E+05 2.443E+00 1.148E-01 1.606E-01 3.645E-02 3.118E-01 2.755E+00 4.080E+04  9.6474 1.00000
  1.200E+05 1.201E+05 2.462E+00 1.416E-01 2.001E-01 4.373E-02 3.854E-01 2.847E+00 4.794E+04 10.0116 1.00000
  1.400E+05 1.401E+05 2.478E+00 1.690E-01 2.403E-01 5.101E-02 4.604E-01 2.938E+00 5.486E+04 10.3197 1.00000
  1.700E+05 1.701E+05 2.497E+00 2.110E-01 3.020E-01 6.195E-02 5.749E-01 3.072E+00 6.485E+04 10.7077 1.00000
  2.000E+05 2.001E+05 2.514E+00 2.537E-01 3.649E-01 7.296E-02 6.915E-01 3.206E+00 7.441E+04 11.0326 1.00000
  2.500E+05 2.501E+05 2.537E+00 3.263E-01 4.716E-01 9.136E-02 8.892E-01 3.426E+00 8.951E+04 11.4787 1.00000
  3.000E+05 3.001E+05 2.555E+00 4.002E-01 5.801E-01 1.099E-01 1.090E+00 3.646E+00 1.037E+05 11.8432 1.00000
  3.500E+05 3.501E+05 2.571E+00 4.753E-01 6.900E-01 1.287E-01 1.294E+00 3.865E+00 1.170E+05 12.1514 1.00000
  4.000E+05 4.001E+05 2.585E+00 5.513E-01 8.010E-01 1.476E-01 1.500E+00 4.084E+00 1.296E+05 12.4183 1.00000
  4.500E+05 4.501E+05 2.597E+00 6.279E-01 9.128E-01 1.665E-01 1.707E+00 4.304E+00 1.415E+05 12.6539 1.00000
  5.000E+05 5.001E+05 2.607E+00 7.053E-01 1.025E+00 1.857E-01 1.916E+00 4.524E+00 1.528E+05 12.8645 1.00000
  5.500E+05 5.501E+05 2.617E+00 7.832E-01 1.139E+00 2.047E-01 2.126E+00 4.744E+00 1.636E+05 13.0551 1.00000
  6.000E+05 6.001E+05 2.626E+00 8.616E-01 1.252E+00 2.238E-01 2.338E+00 4.964E+00 1.739E+05 13.2291 1.00000
  7.000E+05 7.001E+05 2.642E+00 1.020E+00 1.481E+00 2.623E-01 2.763E+00 5.405E+00 1.933E+05 13.5374 1.00000
  8.000E+05 8.001E+05 2.656E+00 1.179E+00 1.711E+00 3.013E-01 3.192E+00 5.847E+00 2.111E+05 13.8044 1.00000
  9.000E+05 9.001E+05 2.668E+00 1.340E+00 1.942E+00 3.407E-01 3.623E+00 6.291E+00 2.276E+05 14.0399 1.00000
  1.000E+06 1.000E+06 2.679E+00 1.501E+00 2.175E+00 3.804E-01 4.056E+00 6.735E+00 2.429E+05 14.2506 1.00000
  1.200E+06 1.200E+06 2.698E+00 1.827E+00 2.641E+00 4.608E-01 4.929E+00 7.627E+00 2.709E+05 14.6152 1.00000
  1.400E+06 1.400E+06 2.714E+00 2.155E+00 3.110E+00 5.423E-01 5.808E+00 8.522E+00 2.957E+05 14.9235 1.00000
  1.700E+06 1.700E+06 2.735E+00 2.651E+00 3.817E+00 6.666E-01 7.135E+00 9.869E+00 3.285E+05 15.3118 1.00000
  2.000E+06 2.000E+06 2.752E+00 3.151E+00 4.526E+00 7.928E-01 8.470E+00 1.122E+01 3.571E+05 15.6368 1.00000
  2.500E+06 2.500E+06 2.776E+00 3.990E+00 5.713E+00 1.007E+00 1.071E+01 1.349E+01 3.979E+05 16.0831 1.00000
  3.000E+06 3.000E+06 2.796E+00 4.834E+00 6.904E+00 1.225E+00 1.296E+01 1.576E+01 4.323E+05 16.4477 1.00000
  3.500E+06 3.500E+06 2.812E+00 5.683E+00 8.097E+00 1.447E+00 1.523E+01 1.804E+01 4.621E+05 16.7560 1.00000
  4.000E+06 4.000E+06 2.827E+00 6.534E+00 9.293E+00 1.673E+00 1.750E+01 2.033E+01 4.882E+05 17.0230 1.00000
  4.500E+06 4.500E+06 2.840E+00 7.388E+00 1.049E+01 1.901E+00 1.978E+01 2.262E+01 5.116E+05 17.2586 1.00000
  5.000E+06 5.000E+06 2.851E+00 8.245E+00 1.169E+01 2.131E+00 2.207E+01 2.492E+01 5.326E+05 17.4693 1.00000
  5.500E+06 5.500E+06 2.862E+00 9.103E+00 1.289E+01 2.364E+00 2.436E+01 2.722E+01 5.519E+05 17.6599 1.00000
  6.000E+06 6.000E+06 2.872E+00 9.963E+00 1.409E+01 2.599E+00 2.665E+01 2.952E+01 5.695E+05 17.8340 1.00000
  7.000E+06 7.000E+06 2.889E+00 1.169E+01 1.650E+01 3.075E+00 3.126E+01 3.415E+01 6.011E+05 18.1422 1.00000
  8.000E+06 8.000E+06 2.904E+00 1.341E+01 1.890E+01 3.558E+00 3.587E+01 3.878E+01 6.286E+05 18.4093 1.00000
  9.000E+06 9.000E+06 2.917E+00 1.514E+01 2.131E+01 4.048E+00 4.050E+01 4.342E+01 6.530E+05 18.6449 1.00000
  1.000E+07 1.000E+07 2.929E+00 1.688E+01 2.372E+01 4.543E+00 4.514E+01 4.807E+01 6.750E+05 18.8556 1.00000
  1.200E+07 1.200E+07 2.950E+00 2.035E+01 2.855E+01 5.548E+00 5.445E+01 5.740E+01 7.132E+05 19.2202 1.00000
  1.400E+07 1.400E+07 2.968E+00 2.383E+01 3.338E+01 6.572E+00 6.378E+01 6.674E+01 7.456E+05 19.5285 1.00000
  1.700E+07 1.700E+07 2.991E+00 2.906E+01 4.062E+01 8.136E+00 7.782E+01 8.081E+01 7.866E+05 19.9168 1.00000
  2.000E+07 2.000E+07 3.010E+00 3.429E+01 4.788E+01 9.731E+00 9.190E+01 9.491E+01 8.210E+05 20.2419 1.00000
  2.500E+07 2.500E+07 3.036E+00 4.303E+01 5.997E+01 1.245E+01 1.154E+02 1.185E+02 8.684E+05 20.6882 1.00000
  3.000E+07 3.000E+07 3.058E+00 5.178E+01 7.207E+01 1.522E+01 1.391E+02 1.421E+02 9.071E+05 21.0528 1.00000
  3.500E+07 3.500E+07 3.077E+00 6.054E+01 8.417E+01 1.805E+01 1.628E+02 1.658E+02 9.398E+05 21.3611 1.00000
  4.000E+07 4.000E+07 3.093E+00 6.931E+01 9.627E+01 2.092E+01 1.865E+02 1.896E+02 9.681E+05 21.6282 1.00000
  4.500E+07 4.500E+07 3.107E+00 7.807E+01 1.084E+02 2.383E+01 2.103E+02 2.134E+02 9.930E+05 21.8637 1.00000
  5.000E+07 5.000E+07 3.120E+00 8.685E+01 1.205E+02 2.677E+01 2.341E+02 2.372E+02 1.015E+06 22.0744 1.00000
  5.500E+07 5.500E+07 3.132E+00 9.562E+01 1.326E+02 2.975E+01 2.580E+02 2.611E+02 1.035E+06 22.2651 1.00000
  6.000E+07 6.000E+07 3.143E+00 1.044E+02 1.447E+02 3.276E+01 2.819E+02 2.850E+02 1.054E+06 22.4391 1.00000
  7.000E+07 7.000E+07 3.162E+00 1.220E+02 1.689E+02 3.887E+01 3.298E+02 3.329E+02 1.086E+06 22.7474 1.00000
  8.000E+07 8.000E+07 3.179E+00 1.395E+02 1.932E+02 4.507E+01 3.778E+02 3.809E+02 1.114E+06 23.0145 1.00000
  9.000E+07 9.000E+07 3.193E+00 1.571E+02 2.174E+02 5.136E+01 4.259E+02 4.291E+02 1.139E+06 23.2500 1.00000
  1.000E+08 1.000E+08 3.207E+00 1.747E+02 2.416E+02 5.773E+01 4.740E+02 4.772E+02 1.161E+06 23.4607 1.00000
  1.200E+08 1.200E+08 3.230E+00 2.099E+02 2.901E+02 7.068E+01 5.706E+02 5.739E+02 1.200E+06 23.8254 1.00000
  1.400E+08 1.400E+08 3.250E+00 2.450E+02 3.386E+02 8.388E+01 6.675E+02 6.707E+02 1.232E+06 24.1337 1.00000
  1.700E+08 1.700E+08 3.275E+00 2.978E+02 4.113E+02 1.041E+02 8.132E+02 8.164E+02 1.273E+06 24.5220 1.00000
  2.000E+08 2.000E+08 3.296E+00 3.506E+02 4.840E+02 1.247E+02 9.593E+02 9.626E+02 1.307E+06 24.8470 1.00000
  2.500E+08 2.500E+08 3.326E+00 4.386E+02 6.052E+02 1.598E+02 1.204E+03 1.207E+03 1.353E+06 25.2933 1.00000
  3.000E+08 3.000E+08 3.350E+00 5.266E+02 7.264E+02 1.958E+02 1.449E+03 1.452E+03 1.391E+06 25.6580 1.00000
  3.500E+08 3.500E+08 3.371E+00 6.146E+02 8.476E+02 2.324E+02 1.695E+03 1.698E+03 1.423E+06 25.9663 1.00000
  4.000E+08 4.000E+08 3.389E+00 7.026E+02 9.688E+02 2.697E+02 1.941E+03 1.944E+03 1.451E+06 26.2333 1.00000
  4.500E+08 4.500E+08 3.405E+00 7.907E+02 1.090E+03 3.075E+02 2.188E+03 2.192E+03 1.475E+06 26.4689 1.00000
  5.000E+08 5.000E+08 3.419E+00 8.787E+02 1.211E+03 3.458E+02 2.436E+03 2.439E+03 1.497E+06 26.6796 1.00000
  5.500E+08 5.500E+08 3.433E+00 9.667E+02 1.332E+03 3.846E+02 2.684E+03 2.687E+03 1.516E+06 26.8702 1.00000
  6.000E+08 6.000E+08 3.445E+00 1.055E+03 1.454E+03 4.238E+02 2.932E+03 2.936E+03 1.534E+06 27.0443 1.00000
  7.000E+08 7.000E+08 3.466E+00 1.231E+03 1.696E+03 5.033E+02 3.430E+03 3.434E+03 1.566E+06 27.3526 1.00000
  8.000E+08 8.000E+08 3.485E+00 1.407E+03 1.938E+03 5.841E+02 3.929E+03 3.933E+03 1.593E+06 27.6196 1.00000
  9.000E+08 9.000E+08 3.501E+00 1.583E+03 2.181E+03 6.662E+02 4.430E+03 4.433E+03 1.617E+06 27.8552 1.00000
  1.000E+09 1.000E+09 3.516E+00 1.759E+03 2.423E+03 7.493E+02 4.932E+03 4.935E+03 1.638E+06 28.0659 1.00000
