 Incident particle is a Muon with M = 105.65839 MeV
 Index = 0: PlutoniumDioxide
      Absorber with <Z/A> = 0.39871
 Sternheimer coef:  a     k=m_s   x_0    x_1    I[eV]   Cbar  delta0
                 0.2059  2.6522  0.2311  3.5554  746.5  5.9719 0.00

 *** Table generated with PUMAS v1.00 ***

      T         p     Ionization  brems     pair     photonuc  Radloss    dE/dx   CSDA Range  delta   beta
    [MeV]    [MeV/c]  -----------------------[MeV cm^2/g]------------------------  [g/cm^2]
  1.000E+00 1.457E+01 2.123E+01 5.506E-06 0.000E+00 0.000E+00 5.506E-06 2.123E+01 2.355E-02  0.0000 0.13661
  1.200E+00 1.597E+01 1.872E+01 6.320E-06 0.000E+00 0.000E+00 6.320E-06 1.872E+01 3.360E-02  0.0000 0.14944
  1.400E+00 1.726E+01 1.681E+01 7.091E-06 0.000E+00 0.000E+00 7.091E-06 1.681E+01 4.489E-02  0.0000 0.16119
  1.700E+00 1.903E+01 1.464E+01 8.178E-06 0.000E+00 0.000E+00 8.178E-06 1.464E+01 6.406E-02  0.0000 0.17725
  2.000E+00 2.066E+01 1.302E+01 9.198E-06 0.000E+00 0.000E+00 9.198E-06 1.302E+01 8.582E-02  0.0000 0.19186
  2.500E+00 2.312E+01 1.107E+01 1.078E-05 0.000E+00 0.000E+00 1.078E-05 1.107E+01 1.276E-01  0.0000 0.21376
  3.000E+00 2.536E+01 9.686E+00 1.223E-05 0.000E+00 0.000E+00 1.223E-05 9.686E+00 1.760E-01  0.0000 0.23336
  3.500E+00 2.742E+01 8.646E+00 1.359E-05 0.000E+00 0.000E+00 1.359E-05 8.646E+00 2.307E-01  0.0000 0.25120
  4.000E+00 2.935E+01 7.835E+00 1.486E-05 0.000E+00 0.000E+00 1.486E-05 7.835E+00 2.915E-01  0.0000 0.26763
  4.500E+00 3.116E+01 7.182E+00 1.606E-05 0.000E+00 0.000E+00 1.606E-05 7.182E+00 3.583E-01  0.0000 0.28290
  5.000E+00 3.289E+01 6.646E+00 1.721E-05 0.000E+00 0.000E+00 1.721E-05 6.646E+00 4.307E-01  0.0000 0.29720
  5.500E+00 3.453E+01 6.196E+00 1.830E-05 0.000E+00 0.000E+00 1.830E-05 6.196E+00 5.087E-01  0.0000 0.31066
  6.000E+00 3.611E+01 5.812E+00 1.934E-05 0.000E+00 0.000E+00 1.934E-05 5.812E+00 5.920E-01  0.0000 0.32339
  7.000E+00 3.909E+01 5.194E+00 2.131E-05 0.000E+00 0.000E+00 2.131E-05 5.194E+00 7.743E-01  0.0000 0.34700
  8.000E+00 4.189E+01 4.715E+00 2.315E-05 0.000E+00 0.000E+00 2.315E-05 4.715E+00 9.766E-01  0.0000 0.36854
  9.000E+00 4.453E+01 4.333E+00 2.487E-05 0.000E+00 0.000E+00 2.487E-05 4.333E+00 1.198E+00  0.0000 0.38836
  1.000E+01 4.704E+01 4.020E+00 2.650E-05 0.000E+00 0.000E+00 2.650E-05 4.020E+00 1.438E+00  0.0000 0.40675
  1.200E+01 5.177E+01 3.539E+00 2.954E-05 0.000E+00 0.000E+00 2.954E-05 3.539E+00 1.969E+00  0.0000 0.43998
  1.400E+01 5.616E+01 3.186E+00 3.234E-05 0.000E+00 0.000E+00 3.234E-05 3.186E+00 2.566E+00  0.0000 0.46937
  1.700E+01 6.230E+01 2.801E+00 3.622E-05 0.000E+00 0.000E+00 3.622E-05 2.801E+00 3.572E+00  0.0000 0.50792
  2.000E+01 6.802E+01 2.525E+00 3.981E-05 0.000E+00 0.000E+00 3.981E-05 2.525E+00 4.702E+00  0.0000 0.54129
  2.500E+01 7.686E+01 2.205E+00 4.536E-05 0.000E+00 0.000E+00 4.536E-05 2.205E+00 6.825E+00  0.0000 0.58827
  3.000E+01 8.509E+01 1.989E+00 5.056E-05 0.000E+00 0.000E+00 5.056E-05 1.989E+00 9.216E+00  0.0000 0.62720
  3.500E+01 9.285E+01 1.832E+00 5.555E-05 0.000E+00 0.000E+00 5.555E-05 1.832E+00 1.184E+01  0.0000 0.66011
  4.000E+01 1.003E+02 1.715E+00 6.040E-05 0.000E+00 0.000E+00 6.040E-05 1.715E+00 1.466E+01  0.0000 0.68834
  4.500E+01 1.074E+02 1.624E+00 6.517E-05 0.000E+00 0.000E+00 6.517E-05 1.624E+00 1.766E+01  0.0000 0.71286
  5.000E+01 1.143E+02 1.551E+00 6.989E-05 0.000E+00 0.000E+00 6.989E-05 1.552E+00 2.081E+01  0.0000 0.73434
  5.500E+01 1.210E+02 1.493E+00 7.461E-05 0.000E+00 0.000E+00 7.461E-05 1.493E+00 2.409E+01  0.0000 0.75332
  6.000E+01 1.276E+02 1.445E+00 7.932E-05 0.000E+00 0.000E+00 7.932E-05 1.445E+00 2.750E+01  0.0000 0.77019
  7.000E+01 1.403E+02 1.371E+00 8.880E-05 0.000E+00 0.000E+00 8.880E-05 1.371E+00 3.461E+01  0.0000 0.79887
  8.000E+01 1.527E+02 1.317E+00 9.840E-05 0.000E+00 0.000E+00 9.840E-05 1.317E+00 4.205E+01  0.0000 0.82227
  9.000E+01 1.647E+02 1.278E+00 1.082E-04 0.000E+00 0.000E+00 1.082E-04 1.278E+00 4.976E+01  0.0000 0.84166
  1.000E+02 1.764E+02 1.248E+00 1.182E-04 0.000E+00 0.000E+00 1.182E-04 1.248E+00 5.768E+01  0.0000 0.85794
  1.200E+02 1.994E+02 1.200E+00 1.387E-04 0.000E+00 0.000E+00 1.387E-04 1.200E+00 7.402E+01  0.1035 0.88361
  1.400E+02 2.218E+02 1.173E+00 1.602E-04 0.000E+00 0.000E+00 1.602E-04 1.174E+00 9.088E+01  0.1388 0.90278
  1.700E+02 2.546E+02 1.151E+00 1.939E-04 5.967E-15 0.000E+00 1.939E-04 1.152E+00 1.167E+02  0.1908 0.92363
  2.000E+02 2.868E+02 1.141E+00 2.296E-04 1.334E-12 0.000E+00 2.296E-04 1.142E+00 1.428E+02  0.2412 0.93835
  2.500E+02 3.396E+02 1.138E+00 2.930E-04 1.096E-08 0.000E+00 2.930E-04 1.138E+00 1.867E+02  0.3213 0.95485
  3.000E+02 3.917E+02 1.143E+00 3.610E-04 9.803E-08 0.000E+00 3.611E-04 1.143E+00 2.306E+02  0.3968 0.96548
  3.500E+02 4.432E+02 1.151E+00 4.331E-04 2.702E-07 0.000E+00 4.334E-04 1.152E+00 2.741E+02  0.4681 0.97274
  4.000E+02 4.945E+02 1.161E+00 5.092E-04 5.237E-07 0.000E+00 5.097E-04 1.162E+00 3.174E+02  0.5354 0.97793
  4.500E+02 5.455E+02 1.172E+00 5.887E-04 8.554E-07 0.000E+00 5.896E-04 1.173E+00 3.602E+02  0.5994 0.98176
  5.000E+02 5.964E+02 1.183E+00 6.716E-04 3.863E-05 0.000E+00 7.102E-04 1.184E+00 4.026E+02  0.6602 0.98467
  5.500E+02 6.471E+02 1.194E+00 7.576E-04 1.062E-04 0.000E+00 8.638E-04 1.195E+00 4.447E+02  0.7182 0.98693
  6.000E+02 6.977E+02 1.204E+00 8.465E-04 1.450E-04 0.000E+00 9.915E-04 1.205E+00 4.864E+02  0.7737 0.98873
  7.000E+02 7.987E+02 1.224E+00 1.032E-03 2.313E-04 0.000E+00 1.264E-03 1.225E+00 5.687E+02  0.8780 0.99136
  8.000E+02 8.995E+02 1.242E+00 1.228E-03 3.342E-04 0.000E+00 1.562E-03 1.244E+00 6.497E+02  0.9745 0.99317
  9.000E+02 1.000E+03 1.259E+00 1.433E-03 4.532E-04 0.000E+00 1.886E-03 1.261E+00 7.295E+02  1.0645 0.99447
  1.000E+03 1.101E+03 1.275E+00 1.646E-03 5.872E-04 0.000E+00 2.233E-03 1.277E+00 8.083E+02  1.1488 0.99542
  1.200E+03 1.301E+03 1.303E+00 2.094E-03 8.970E-04 2.245E-05 3.013E-03 1.306E+00 9.632E+02  1.3032 0.99672
  1.400E+03 1.502E+03 1.326E+00 2.568E-03 1.258E-03 6.088E-05 3.886E-03 1.330E+00 1.115E+03  1.4421 0.99753
  1.700E+03 1.803E+03 1.357E+00 3.322E-03 1.883E-03 1.289E-04 5.334E-03 1.362E+00 1.338E+03  1.6278 0.99829
  2.000E+03 2.103E+03 1.383E+00 4.120E-03 2.598E-03 2.080E-04 6.926E-03 1.389E+00 1.556E+03  1.7924 0.99874
  2.500E+03 2.604E+03 1.418E+00 5.534E-03 3.961E-03 3.589E-04 9.854E-03 1.427E+00 1.911E+03  2.0317 0.99918
  3.000E+03 3.104E+03 1.446E+00 7.035E-03 5.509E-03 5.149E-04 1.306E-02 1.459E+00 2.257E+03  2.2383 0.99942
  3.500E+03 3.604E+03 1.470E+00 8.611E-03 7.214E-03 6.785E-04 1.650E-02 1.486E+00 2.597E+03  2.4207 0.99957
  4.000E+03 4.104E+03 1.490E+00 1.025E-02 9.067E-03 8.520E-04 2.017E-02 1.510E+00 2.931E+03  2.5842 0.99967
  4.500E+03 4.604E+03 1.508E+00 1.195E-02 1.105E-02 1.031E-03 2.403E-02 1.532E+00 3.259E+03  2.7326 0.99974
  5.000E+03 5.105E+03 1.523E+00 1.370E-02 1.314E-02 1.202E-03 2.804E-02 1.551E+00 3.584E+03  2.8685 0.99979
  5.500E+03 5.605E+03 1.537E+00 1.549E-02 1.533E-02 1.386E-03 3.221E-02 1.570E+00 3.904E+03  2.9942 0.99982
  6.000E+03 6.105E+03 1.550E+00 1.733E-02 1.761E-02 1.557E-03 3.650E-02 1.587E+00 4.221E+03  3.1110 0.99985
  7.000E+03 7.105E+03 1.572E+00 2.111E-02 2.242E-02 1.917E-03 4.545E-02 1.617E+00 4.845E+03  3.3228 0.99989
  8.000E+03 8.105E+03 1.591E+00 2.503E-02 2.752E-02 2.273E-03 5.482E-02 1.645E+00 5.458E+03  3.5112 0.99992
  9.000E+03 9.105E+03 1.607E+00 2.907E-02 3.286E-02 2.606E-03 6.454E-02 1.671E+00 6.061E+03  3.6810 0.99993
  1.000E+04 1.011E+04 1.621E+00 3.321E-02 3.843E-02 2.948E-03 7.459E-02 1.695E+00 6.655E+03  3.8359 0.99995
  1.200E+04 1.211E+04 1.645E+00 4.175E-02 5.014E-02 3.640E-03 9.553E-02 1.740E+00 7.820E+03  4.1101 0.99996
  1.400E+04 1.411E+04 1.664E+00 5.060E-02 6.250E-02 4.329E-03 1.174E-01 1.782E+00 8.956E+03  4.3479 0.99997
  1.700E+04 1.711E+04 1.688E+00 6.436E-02 8.205E-02 5.345E-03 1.518E-01 1.840E+00 1.061E+04  4.6549 0.99998
  2.000E+04 2.011E+04 1.708E+00 7.860E-02 1.026E-01 6.337E-03 1.875E-01 1.895E+00 1.222E+04  4.9182 0.99999
  2.500E+04 2.511E+04 1.734E+00 1.032E-01 1.385E-01 7.959E-03 2.497E-01 1.983E+00 1.480E+04  5.2884 0.99999
  3.000E+04 3.011E+04 1.754E+00 1.287E-01 1.762E-01 9.543E-03 3.145E-01 2.068E+00 1.727E+04  5.5981 0.99999
  3.500E+04 3.511E+04 1.770E+00 1.549E-01 2.153E-01 1.114E-02 3.813E-01 2.152E+00 1.964E+04  5.8649 1.00000
  4.000E+04 4.011E+04 1.784E+00 1.817E-01 2.555E-01 1.271E-02 4.499E-01 2.234E+00 2.192E+04  6.0993 1.00000
  4.500E+04 4.511E+04 1.796E+00 2.090E-01 2.966E-01 1.426E-02 5.199E-01 2.316E+00 2.412E+04  6.3087 1.00000
  5.000E+04 5.011E+04 1.807E+00 2.368E-01 3.385E-01 1.580E-02 5.912E-01 2.398E+00 2.624E+04  6.4979 1.00000
  5.500E+04 5.511E+04 1.816E+00 2.650E-01 3.812E-01 1.736E-02 6.635E-01 2.480E+00 2.829E+04  6.6706 1.00000
  6.000E+04 6.011E+04 1.825E+00 2.936E-01 4.244E-01 1.889E-02 7.368E-01 2.562E+00 3.027E+04  6.8295 1.00000
  7.000E+04 7.011E+04 1.839E+00 3.516E-01 5.124E-01 2.193E-02 8.859E-01 2.725E+00 3.406E+04  7.1137 1.00000
  8.000E+04 8.011E+04 1.852E+00 4.107E-01 6.022E-01 2.498E-02 1.038E+00 2.890E+00 3.763E+04  7.3627 1.00000
  9.000E+04 9.011E+04 1.863E+00 4.707E-01 6.934E-01 2.802E-02 1.192E+00 3.055E+00 4.099E+04  7.5842 1.00000
  1.000E+05 1.001E+05 1.872E+00 5.316E-01 7.857E-01 3.100E-02 1.348E+00 3.220E+00 4.418E+04  7.7839 1.00000
  1.200E+05 1.201E+05 1.888E+00 6.552E-01 9.735E-01 3.705E-02 1.666E+00 3.554E+00 5.010E+04  8.1326 1.00000
  1.400E+05 1.401E+05 1.902E+00 7.812E-01 1.164E+00 4.310E-02 1.989E+00 3.890E+00 5.548E+04  8.4303 1.00000
  1.700E+05 1.701E+05 1.918E+00 9.734E-01 1.455E+00 5.215E-02 2.481E+00 4.399E+00 6.275E+04  8.8086 1.00000
  2.000E+05 2.001E+05 1.932E+00 1.169E+00 1.750E+00 6.125E-02 2.980E+00 4.912E+00 6.921E+04  9.1278 1.00000
  2.500E+05 2.501E+05 1.950E+00 1.500E+00 2.249E+00 7.643E-02 3.826E+00 5.776E+00 7.863E+04  9.5692 1.00000
  3.000E+05 3.001E+05 1.965E+00 1.837E+00 2.754E+00 9.171E-02 4.682E+00 6.648E+00 8.672E+04  9.9319 1.00000
  3.500E+05 3.501E+05 1.978E+00 2.178E+00 3.263E+00 1.071E-01 5.548E+00 7.526E+00 9.380E+04 10.2397 1.00000
  4.000E+05 4.001E+05 1.989E+00 2.522E+00 3.776E+00 1.227E-01 6.421E+00 8.410E+00 1.001E+05 10.5066 1.00000
  4.500E+05 4.501E+05 1.998E+00 2.869E+00 4.292E+00 1.382E-01 7.300E+00 9.298E+00 1.058E+05 10.7422 1.00000
  5.000E+05 5.001E+05 2.007E+00 3.219E+00 4.810E+00 1.539E-01 8.183E+00 1.019E+01 1.109E+05 10.9528 1.00000
  5.500E+05 5.501E+05 2.015E+00 3.571E+00 5.331E+00 1.695E-01 9.071E+00 1.109E+01 1.156E+05 11.1434 1.00000
  6.000E+05 6.001E+05 2.022E+00 3.924E+00 5.853E+00 1.852E-01 9.962E+00 1.198E+01 1.199E+05 11.3174 1.00000
  7.000E+05 7.001E+05 2.035E+00 4.635E+00 6.901E+00 2.168E-01 1.175E+01 1.379E+01 1.277E+05 11.6257 1.00000
  8.000E+05 8.001E+05 2.046E+00 5.351E+00 7.953E+00 2.487E-01 1.355E+01 1.560E+01 1.346E+05 11.8927 1.00000
  9.000E+05 9.001E+05 2.056E+00 6.072E+00 9.009E+00 2.809E-01 1.536E+01 1.742E+01 1.407E+05 12.1282 1.00000
  1.000E+06 1.000E+06 2.064E+00 6.795E+00 1.007E+01 3.133E-01 1.718E+01 1.924E+01 1.461E+05 12.3389 1.00000
  1.200E+06 1.200E+06 2.080E+00 8.251E+00 1.219E+01 3.791E-01 2.082E+01 2.290E+01 1.557E+05 12.7035 1.00000
  1.400E+06 1.400E+06 2.093E+00 9.716E+00 1.432E+01 4.457E-01 2.449E+01 2.658E+01 1.638E+05 13.0118 1.00000
  1.700E+06 1.700E+06 2.109E+00 1.192E+01 1.753E+01 5.472E-01 3.000E+01 3.211E+01 1.741E+05 13.4001 1.00000
  2.000E+06 2.000E+06 2.123E+00 1.415E+01 2.075E+01 6.503E-01 3.554E+01 3.767E+01 1.828E+05 13.7251 1.00000
  2.500E+06 2.500E+06 2.142E+00 1.787E+01 2.612E+01 8.253E-01 4.481E+01 4.695E+01 1.947E+05 14.1714 1.00000
  3.000E+06 3.000E+06 2.158E+00 2.160E+01 3.151E+01 1.004E+00 5.411E+01 5.627E+01 2.045E+05 14.5360 1.00000
  3.500E+06 3.500E+06 2.171E+00 2.535E+01 3.690E+01 1.185E+00 6.344E+01 6.561E+01 2.128E+05 14.8443 1.00000
  4.000E+06 4.000E+06 2.183E+00 2.911E+01 4.230E+01 1.368E+00 7.278E+01 7.496E+01 2.199E+05 15.1113 1.00000
  4.500E+06 4.500E+06 2.193E+00 3.288E+01 4.771E+01 1.554E+00 8.214E+01 8.433E+01 2.262E+05 15.3469 1.00000
  5.000E+06 5.000E+06 2.203E+00 3.665E+01 5.312E+01 1.742E+00 9.151E+01 9.371E+01 2.318E+05 15.5576 1.00000
  5.500E+06 5.500E+06 2.211E+00 4.043E+01 5.853E+01 1.932E+00 1.009E+02 1.031E+02 2.369E+05 15.7482 1.00000
  6.000E+06 6.000E+06 2.219E+00 4.421E+01 6.395E+01 2.124E+00 1.103E+02 1.125E+02 2.416E+05 15.9223 1.00000
  7.000E+06 7.000E+06 2.233E+00 5.178E+01 7.479E+01 2.512E+00 1.291E+02 1.313E+02 2.498E+05 16.2305 1.00000
  8.000E+06 8.000E+06 2.245E+00 5.937E+01 8.563E+01 2.906E+00 1.479E+02 1.502E+02 2.570E+05 16.4976 1.00000
  9.000E+06 9.000E+06 2.256E+00 6.697E+01 9.648E+01 3.305E+00 1.668E+02 1.690E+02 2.633E+05 16.7332 1.00000
  1.000E+07 1.000E+07 2.265E+00 7.457E+01 1.073E+02 3.709E+00 1.856E+02 1.879E+02 2.689E+05 16.9439 1.00000
  1.200E+07 1.200E+07 2.282E+00 8.979E+01 1.291E+02 4.529E+00 2.234E+02 2.257E+02 2.786E+05 17.3085 1.00000
  1.400E+07 1.400E+07 2.296E+00 1.050E+02 1.508E+02 5.364E+00 2.612E+02 2.635E+02 2.869E+05 17.6168 1.00000
  1.700E+07 1.700E+07 2.314E+00 1.279E+02 1.834E+02 6.639E+00 3.180E+02 3.203E+02 2.972E+05 18.0051 1.00000
  2.000E+07 2.000E+07 2.330E+00 1.508E+02 2.160E+02 7.939E+00 3.748E+02 3.771E+02 3.059E+05 18.3302 1.00000
  2.500E+07 2.500E+07 2.351E+00 1.890E+02 2.704E+02 1.015E+01 4.696E+02 4.719E+02 3.178E+05 18.7765 1.00000
  3.000E+07 3.000E+07 2.368E+00 2.273E+02 3.248E+02 1.241E+01 5.645E+02 5.669E+02 3.275E+05 19.1411 1.00000
  3.500E+07 3.500E+07 2.383E+00 2.655E+02 3.792E+02 1.472E+01 6.595E+02 6.619E+02 3.357E+05 19.4494 1.00000
  4.000E+07 4.000E+07 2.396E+00 3.038E+02 4.337E+02 1.706E+01 7.545E+02 7.569E+02 3.428E+05 19.7165 1.00000
  4.500E+07 4.500E+07 2.408E+00 3.421E+02 4.881E+02 1.943E+01 8.496E+02 8.520E+02 3.490E+05 19.9520 1.00000
  5.000E+07 5.000E+07 2.418E+00 3.804E+02 5.425E+02 2.183E+01 9.447E+02 9.471E+02 3.546E+05 20.1627 1.00000
  5.500E+07 5.500E+07 2.428E+00 4.187E+02 5.970E+02 2.426E+01 1.040E+03 1.042E+03 3.597E+05 20.3534 1.00000
  6.000E+07 6.000E+07 2.436E+00 4.570E+02 6.514E+02 2.672E+01 1.135E+03 1.138E+03 3.642E+05 20.5274 1.00000
  7.000E+07 7.000E+07 2.452E+00 5.336E+02 7.603E+02 3.169E+01 1.326E+03 1.328E+03 3.724E+05 20.8357 1.00000
  8.000E+07 8.000E+07 2.465E+00 6.102E+02 8.692E+02 3.674E+01 1.516E+03 1.519E+03 3.795E+05 21.1028 1.00000
  9.000E+07 9.000E+07 2.477E+00 6.869E+02 9.781E+02 4.187E+01 1.707E+03 1.709E+03 3.857E+05 21.3383 1.00000
  1.000E+08 1.000E+08 2.488E+00 7.635E+02 1.087E+03 4.706E+01 1.898E+03 1.900E+03 3.912E+05 21.5490 1.00000
  1.200E+08 1.200E+08 2.506E+00 9.169E+02 1.305E+03 5.762E+01 2.279E+03 2.282E+03 4.009E+05 21.9137 1.00000
  1.400E+08 1.400E+08 2.522E+00 1.070E+03 1.523E+03 6.838E+01 2.661E+03 2.664E+03 4.090E+05 22.2220 1.00000
  1.700E+08 1.700E+08 2.542E+00 1.300E+03 1.849E+03 8.484E+01 3.234E+03 3.237E+03 4.193E+05 22.6103 1.00000
  2.000E+08 2.000E+08 2.559E+00 1.530E+03 2.176E+03 1.016E+02 3.808E+03 3.811E+03 4.279E+05 22.9353 1.00000
  2.500E+08 2.500E+08 2.583E+00 1.914E+03 2.721E+03 1.303E+02 4.765E+03 4.767E+03 4.397E+05 23.3816 1.00000
  3.000E+08 3.000E+08 2.603E+00 2.297E+03 3.265E+03 1.596E+02 5.722E+03 5.725E+03 4.493E+05 23.7463 1.00000
  3.500E+08 3.500E+08 2.619E+00 2.681E+03 3.810E+03 1.895E+02 6.680E+03 6.683E+03 4.574E+05 24.0546 1.00000
  4.000E+08 4.000E+08 2.634E+00 3.064E+03 4.355E+03 2.198E+02 7.639E+03 7.641E+03 4.644E+05 24.3216 1.00000
  4.500E+08 4.500E+08 2.647E+00 3.448E+03 4.899E+03 2.507E+02 8.598E+03 8.600E+03 4.706E+05 24.5572 1.00000
  5.000E+08 5.000E+08 2.658E+00 3.832E+03 5.444E+03 2.819E+02 9.557E+03 9.560E+03 4.761E+05 24.7679 1.00000
  5.500E+08 5.500E+08 2.669E+00 4.215E+03 5.988E+03 3.135E+02 1.052E+04 1.052E+04 4.811E+05 24.9585 1.00000
  6.000E+08 6.000E+08 2.678E+00 4.599E+03 6.533E+03 3.454E+02 1.148E+04 1.148E+04 4.856E+05 25.1326 1.00000
  7.000E+08 7.000E+08 2.695E+00 5.366E+03 7.622E+03 4.102E+02 1.340E+04 1.340E+04 4.937E+05 25.4409 1.00000
  8.000E+08 8.000E+08 2.710E+00 6.133E+03 8.711E+03 4.761E+02 1.532E+04 1.532E+04 5.007E+05 25.7079 1.00000
  9.000E+08 9.000E+08 2.724E+00 6.900E+03 9.800E+03 5.430E+02 1.724E+04 1.725E+04 5.069E+05 25.9435 1.00000
  1.000E+09 1.000E+09 2.736E+00 7.667E+03 1.089E+04 6.108E+02 1.917E+04 1.917E+04 5.124E+05 26.1542 1.00000
