 Incident particle is a Muon with M = 105.65839 MeV
 Index = 0: Plutonium
      Absorber with <Z/A> = 0.38514
 Sternheimer coef:  a     k=m_s   x_0    x_1    I[eV]   Cbar  delta0
                 0.2042  2.7679  0.1557  3.3981  921.0  5.8748 0.14

 *** Table generated with PUMAS v1.00 ***

      T         p     Ionization  brems     pair     photonuc  Radloss    dE/dx   CSDA Range  delta   beta
    [MeV]    [MeV/c]  -----------------------[MeV cm^2/g]------------------------  [g/cm^2]
  1.000E+00 1.457E+01 1.917E+01 6.129E-06 0.000E+00 0.000E+00 6.129E-06 1.917E+01 2.608E-02  0.0013 0.13661
  1.200E+00 1.597E+01 1.697E+01 7.036E-06 0.000E+00 0.000E+00 7.036E-06 1.697E+01 3.719E-02  0.0016 0.14944
  1.400E+00 1.726E+01 1.528E+01 7.893E-06 0.000E+00 0.000E+00 7.893E-06 1.528E+01 4.963E-02  0.0018 0.16119
  1.700E+00 1.903E+01 1.335E+01 9.104E-06 0.000E+00 0.000E+00 9.104E-06 1.335E+01 7.068E-02  0.0022 0.17725
  2.000E+00 2.066E+01 1.190E+01 1.024E-05 0.000E+00 0.000E+00 1.024E-05 1.190E+01 9.452E-02  0.0026 0.19186
  2.500E+00 2.312E+01 1.015E+01 1.199E-05 0.000E+00 0.000E+00 1.199E-05 1.015E+01 1.402E-01  0.0033 0.21376
  3.000E+00 2.536E+01 8.896E+00 1.361E-05 0.000E+00 0.000E+00 1.361E-05 8.896E+00 1.929E-01  0.0039 0.23336
  3.500E+00 2.742E+01 7.954E+00 1.512E-05 0.000E+00 0.000E+00 1.512E-05 7.954E+00 2.524E-01  0.0046 0.25120
  4.000E+00 2.935E+01 7.217E+00 1.654E-05 0.000E+00 0.000E+00 1.654E-05 7.217E+00 3.185E-01  0.0053 0.26763
  4.500E+00 3.116E+01 6.623E+00 1.787E-05 0.000E+00 0.000E+00 1.787E-05 6.623E+00 3.909E-01  0.0059 0.28290
  5.000E+00 3.289E+01 6.134E+00 1.914E-05 0.000E+00 0.000E+00 1.914E-05 6.134E+00 4.694E-01  0.0066 0.29720
  5.500E+00 3.453E+01 5.723E+00 2.036E-05 0.000E+00 0.000E+00 2.036E-05 5.723E+00 5.538E-01  0.0073 0.31066
  6.000E+00 3.611E+01 5.373E+00 2.152E-05 0.000E+00 0.000E+00 2.152E-05 5.373E+00 6.441E-01  0.0080 0.32339
  7.000E+00 3.909E+01 4.806E+00 2.370E-05 0.000E+00 0.000E+00 2.370E-05 4.806E+00 8.412E-01  0.0094 0.34700
  8.000E+00 4.189E+01 4.367E+00 2.574E-05 0.000E+00 0.000E+00 2.574E-05 4.367E+00 1.060E+00  0.0107 0.36854
  9.000E+00 4.453E+01 4.016E+00 2.765E-05 0.000E+00 0.000E+00 2.765E-05 4.016E+00 1.299E+00  0.0121 0.38836
  1.000E+01 4.704E+01 3.729E+00 2.947E-05 0.000E+00 0.000E+00 2.947E-05 3.729E+00 1.557E+00  0.0135 0.40675
  1.200E+01 5.177E+01 3.286E+00 3.284E-05 0.000E+00 0.000E+00 3.284E-05 3.286E+00 2.130E+00  0.0164 0.43998
  1.400E+01 5.616E+01 2.959E+00 3.595E-05 0.000E+00 0.000E+00 3.595E-05 2.959E+00 2.772E+00  0.0193 0.46937
  1.700E+01 6.230E+01 2.604E+00 4.024E-05 0.000E+00 0.000E+00 4.024E-05 2.604E+00 3.855E+00  0.0238 0.50792
  2.000E+01 6.802E+01 2.349E+00 4.423E-05 0.000E+00 0.000E+00 4.423E-05 2.349E+00 5.070E+00  0.0283 0.54129
  2.500E+01 7.686E+01 2.052E+00 5.038E-05 0.000E+00 0.000E+00 5.038E-05 2.052E+00 7.352E+00  0.0362 0.58827
  3.000E+01 8.509E+01 1.851E+00 5.615E-05 0.000E+00 0.000E+00 5.615E-05 1.851E+00 9.921E+00  0.0443 0.62720
  3.500E+01 9.285E+01 1.706E+00 6.168E-05 0.000E+00 0.000E+00 6.168E-05 1.706E+00 1.274E+01  0.0528 0.66011
  4.000E+01 1.003E+02 1.596E+00 6.706E-05 0.000E+00 0.000E+00 6.706E-05 1.597E+00 1.577E+01  0.0615 0.68834
  4.500E+01 1.074E+02 1.512E+00 7.235E-05 0.000E+00 0.000E+00 7.235E-05 1.512E+00 1.899E+01  0.0706 0.71286
  5.000E+01 1.143E+02 1.444E+00 7.760E-05 0.000E+00 0.000E+00 7.760E-05 1.444E+00 2.237E+01  0.0800 0.73434
  5.500E+01 1.210E+02 1.389E+00 8.282E-05 0.000E+00 0.000E+00 8.282E-05 1.389E+00 2.590E+01  0.0897 0.75332
  6.000E+01 1.276E+02 1.344E+00 8.805E-05 0.000E+00 0.000E+00 8.805E-05 1.344E+00 2.957E+01  0.0997 0.77019
  7.000E+01 1.403E+02 1.274E+00 9.857E-05 0.000E+00 0.000E+00 9.857E-05 1.274E+00 3.721E+01  0.1206 0.79887
  8.000E+01 1.527E+02 1.223E+00 1.092E-04 0.000E+00 0.000E+00 1.092E-04 1.224E+00 4.522E+01  0.1402 0.82227
  9.000E+01 1.647E+02 1.187E+00 1.201E-04 0.000E+00 0.000E+00 1.201E-04 1.187E+00 5.352E+01  0.1446 0.84166
  1.000E+02 1.764E+02 1.160E+00 1.312E-04 0.000E+00 0.000E+00 1.312E-04 1.160E+00 6.204E+01  0.1509 0.85794
  1.200E+02 1.994E+02 1.122E+00 1.540E-04 0.000E+00 0.000E+00 1.540E-04 1.122E+00 7.957E+01  0.1674 0.88361
  1.400E+02 2.218E+02 1.100E+00 1.778E-04 0.000E+00 0.000E+00 1.778E-04 1.100E+00 9.757E+01  0.1873 0.90278
  1.700E+02 2.546E+02 1.081E+00 2.153E-04 0.000E+00 0.000E+00 2.153E-04 1.081E+00 1.251E+02  0.2206 0.92363
  2.000E+02 2.868E+02 1.073E+00 2.549E-04 0.000E+00 0.000E+00 2.549E-04 1.074E+00 1.529E+02  0.2561 0.93835
  2.500E+02 3.396E+02 1.072E+00 3.254E-04 0.000E+00 0.000E+00 3.254E-04 1.073E+00 1.995E+02  0.3169 0.95485
  3.000E+02 3.917E+02 1.078E+00 4.009E-04 0.000E+00 0.000E+00 4.009E-04 1.079E+00 2.460E+02  0.3778 0.96548
  3.500E+02 4.432E+02 1.088E+00 4.811E-04 0.000E+00 0.000E+00 4.811E-04 1.088E+00 2.922E+02  0.4375 0.97274
  4.000E+02 4.945E+02 1.098E+00 5.656E-04 0.000E+00 0.000E+00 5.656E-04 1.099E+00 3.379E+02  0.4955 0.97793
  4.500E+02 5.455E+02 1.109E+00 6.540E-04 0.000E+00 0.000E+00 6.540E-04 1.110E+00 3.832E+02  0.5518 0.98176
  5.000E+02 5.964E+02 1.120E+00 7.461E-04 4.236E-05 0.000E+00 7.885E-04 1.121E+00 4.280E+02  0.6062 0.98467
  5.500E+02 6.471E+02 1.131E+00 8.417E-04 1.184E-04 0.000E+00 9.601E-04 1.132E+00 4.724E+02  0.6588 0.98693
  6.000E+02 6.977E+02 1.142E+00 9.405E-04 1.618E-04 0.000E+00 1.102E-03 1.143E+00 5.163E+02  0.7097 0.98873
  7.000E+02 7.987E+02 1.161E+00 1.147E-03 2.582E-04 0.000E+00 1.405E-03 1.163E+00 6.031E+02  0.8065 0.99136
  8.000E+02 8.995E+02 1.180E+00 1.365E-03 3.731E-04 0.000E+00 1.738E-03 1.181E+00 6.884E+02  0.8975 0.99317
  9.000E+02 1.000E+03 1.196E+00 1.593E-03 5.060E-04 0.000E+00 2.099E-03 1.198E+00 7.725E+02  0.9831 0.99447
  1.000E+03 1.101E+03 1.211E+00 1.829E-03 6.556E-04 0.000E+00 2.485E-03 1.214E+00 8.554E+02  1.0640 0.99542
  1.200E+03 1.301E+03 1.239E+00 2.328E-03 1.002E-03 2.244E-05 3.352E-03 1.242E+00 1.018E+03  1.2137 0.99672
  1.400E+03 1.502E+03 1.262E+00 2.855E-03 1.404E-03 6.077E-05 4.320E-03 1.266E+00 1.178E+03  1.3497 0.99753
  1.700E+03 1.803E+03 1.291E+00 3.694E-03 2.103E-03 1.285E-04 5.925E-03 1.297E+00 1.412E+03  1.5333 0.99829
  2.000E+03 2.103E+03 1.316E+00 4.582E-03 2.901E-03 2.070E-04 7.690E-03 1.324E+00 1.641E+03  1.6972 0.99874
  2.500E+03 2.604E+03 1.350E+00 6.154E-03 4.424E-03 3.565E-04 1.093E-02 1.361E+00 2.013E+03  1.9373 0.99918
  3.000E+03 3.104E+03 1.377E+00 7.825E-03 6.152E-03 5.109E-04 1.449E-02 1.392E+00 2.377E+03  2.1460 0.99942
  3.500E+03 3.604E+03 1.400E+00 9.579E-03 8.057E-03 6.723E-04 1.831E-02 1.419E+00 2.732E+03  2.3310 0.99957
  4.000E+03 4.104E+03 1.420E+00 1.140E-02 1.012E-02 8.433E-04 2.237E-02 1.442E+00 3.082E+03  2.4974 0.99967
  4.500E+03 4.604E+03 1.437E+00 1.329E-02 1.233E-02 1.020E-03 2.665E-02 1.463E+00 3.426E+03  2.6489 0.99974
  5.000E+03 5.105E+03 1.452E+00 1.524E-02 1.467E-02 1.188E-03 3.109E-02 1.483E+00 3.766E+03  2.7880 0.99979
  5.500E+03 5.605E+03 1.465E+00 1.724E-02 1.711E-02 1.369E-03 3.572E-02 1.501E+00 4.101E+03  2.9167 0.99982
  6.000E+03 6.105E+03 1.477E+00 1.928E-02 1.965E-02 1.537E-03 4.047E-02 1.517E+00 4.432E+03  3.0365 0.99985
  7.000E+03 7.105E+03 1.498E+00 2.349E-02 2.502E-02 1.890E-03 5.040E-02 1.548E+00 5.085E+03  3.2541 0.99989
  8.000E+03 8.105E+03 1.515E+00 2.786E-02 3.070E-02 2.239E-03 6.080E-02 1.576E+00 5.725E+03  3.4480 0.99992
  9.000E+03 9.105E+03 1.531E+00 3.235E-02 3.666E-02 2.565E-03 7.158E-02 1.602E+00 6.354E+03  3.6230 0.99993
  1.000E+04 1.011E+04 1.544E+00 3.695E-02 4.287E-02 2.901E-03 8.273E-02 1.627E+00 6.974E+03  3.7827 0.99995
  1.200E+04 1.211E+04 1.567E+00 4.646E-02 5.593E-02 3.577E-03 1.060E-01 1.673E+00 8.186E+03  4.0657 0.99996
  1.400E+04 1.411E+04 1.585E+00 5.632E-02 6.971E-02 4.250E-03 1.303E-01 1.715E+00 9.367E+03  4.3114 0.99997
  1.700E+04 1.711E+04 1.608E+00 7.163E-02 9.150E-02 5.242E-03 1.684E-01 1.776E+00 1.109E+04  4.6287 0.99998
  2.000E+04 2.011E+04 1.626E+00 8.748E-02 1.144E-01 6.210E-03 2.081E-01 1.834E+00 1.275E+04  4.9008 0.99999
  2.500E+04 2.511E+04 1.650E+00 1.149E-01 1.545E-01 7.790E-03 2.771E-01 1.927E+00 1.541E+04  5.2835 0.99999
  3.000E+04 3.011E+04 1.669E+00 1.432E-01 1.965E-01 9.331E-03 3.490E-01 2.018E+00 1.794E+04  5.6035 0.99999
  3.500E+04 3.511E+04 1.685E+00 1.724E-01 2.400E-01 1.088E-02 4.233E-01 2.108E+00 2.037E+04  5.8788 1.00000
  4.000E+04 4.011E+04 1.698E+00 2.022E-01 2.848E-01 1.241E-02 4.994E-01 2.197E+00 2.269E+04  6.1207 1.00000
  4.500E+04 4.511E+04 1.709E+00 2.326E-01 3.306E-01 1.391E-02 5.771E-01 2.286E+00 2.493E+04  6.3366 1.00000
  5.000E+04 5.011E+04 1.719E+00 2.636E-01 3.773E-01 1.541E-02 6.563E-01 2.375E+00 2.707E+04  6.5315 1.00000
  5.500E+04 5.511E+04 1.727E+00 2.949E-01 4.248E-01 1.692E-02 7.366E-01 2.464E+00 2.914E+04  6.7092 1.00000
  6.000E+04 6.011E+04 1.735E+00 3.267E-01 4.729E-01 1.841E-02 8.180E-01 2.553E+00 3.113E+04  6.8727 1.00000
  7.000E+04 7.011E+04 1.749E+00 3.913E-01 5.709E-01 2.136E-02 9.836E-01 2.733E+00 3.492E+04  7.1647 1.00000
  8.000E+04 8.011E+04 1.761E+00 4.570E-01 6.709E-01 2.431E-02 1.152E+00 2.913E+00 3.847E+04  7.4201 1.00000
  9.000E+04 9.011E+04 1.771E+00 5.238E-01 7.724E-01 2.726E-02 1.324E+00 3.094E+00 4.180E+04  7.6471 1.00000
  1.000E+05 1.001E+05 1.780E+00 5.915E-01 8.753E-01 3.014E-02 1.497E+00 3.277E+00 4.494E+04  7.8514 1.00000
  1.200E+05 1.201E+05 1.795E+00 7.291E-01 1.084E+00 3.600E-02 1.849E+00 3.644E+00 5.074E+04  8.2075 1.00000
  1.400E+05 1.401E+05 1.807E+00 8.692E-01 1.297E+00 4.185E-02 2.208E+00 4.015E+00 5.597E+04  8.5108 1.00000
  1.700E+05 1.701E+05 1.823E+00 1.083E+00 1.621E+00 5.061E-02 2.754E+00 4.577E+00 6.298E+04  8.8952 1.00000
  2.000E+05 2.001E+05 1.836E+00 1.300E+00 1.949E+00 5.941E-02 3.309E+00 5.145E+00 6.918E+04  9.2186 1.00000
  2.500E+05 2.501E+05 1.854E+00 1.669E+00 2.504E+00 7.408E-02 4.247E+00 6.101E+00 7.813E+04  9.6641 1.00000
  3.000E+05 3.001E+05 1.868E+00 2.044E+00 3.066E+00 8.885E-02 5.198E+00 7.066E+00 8.577E+04 10.0286 1.00000
  3.500E+05 3.501E+05 1.880E+00 2.423E+00 3.632E+00 1.038E-01 6.159E+00 8.039E+00 9.242E+04 10.3368 1.00000
  4.000E+05 4.001E+05 1.891E+00 2.806E+00 4.203E+00 1.187E-01 7.128E+00 9.018E+00 9.830E+04 10.6037 1.00000
  4.500E+05 4.501E+05 1.900E+00 3.192E+00 4.777E+00 1.338E-01 8.103E+00 1.000E+01 1.036E+05 10.8393 1.00000
  5.000E+05 5.001E+05 1.908E+00 3.580E+00 5.354E+00 1.490E-01 9.083E+00 1.099E+01 1.083E+05 11.0499 1.00000
  5.500E+05 5.501E+05 1.916E+00 3.971E+00 5.932E+00 1.640E-01 1.007E+01 1.198E+01 1.127E+05 11.2405 1.00000
  6.000E+05 6.001E+05 1.923E+00 4.364E+00 6.513E+00 1.791E-01 1.106E+01 1.298E+01 1.167E+05 11.4145 1.00000
  7.000E+05 7.001E+05 1.935E+00 5.155E+00 7.679E+00 2.096E-01 1.304E+01 1.498E+01 1.239E+05 11.7228 1.00000
  8.000E+05 8.001E+05 1.946E+00 5.951E+00 8.849E+00 2.404E-01 1.504E+01 1.699E+01 1.302E+05 11.9898 1.00000
  9.000E+05 9.001E+05 1.955E+00 6.752E+00 1.002E+01 2.714E-01 1.705E+01 1.900E+01 1.358E+05 12.2253 1.00000
  1.000E+06 1.000E+06 1.964E+00 7.557E+00 1.120E+01 3.028E-01 1.906E+01 2.102E+01 1.408E+05 12.4360 1.00000
  1.200E+06 1.200E+06 1.978E+00 9.175E+00 1.356E+01 3.662E-01 2.311E+01 2.508E+01 1.495E+05 12.8006 1.00000
  1.400E+06 1.400E+06 1.991E+00 1.080E+01 1.594E+01 4.305E-01 2.717E+01 2.916E+01 1.569E+05 13.1089 1.00000
  1.700E+06 1.700E+06 2.007E+00 1.326E+01 1.950E+01 5.284E-01 3.329E+01 3.530E+01 1.663E+05 13.4972 1.00000
  2.000E+06 2.000E+06 2.020E+00 1.573E+01 2.308E+01 6.279E-01 3.943E+01 4.145E+01 1.742E+05 13.8222 1.00000
  2.500E+06 2.500E+06 2.039E+00 1.986E+01 2.905E+01 7.967E-01 4.971E+01 5.175E+01 1.851E+05 14.2685 1.00000
  3.000E+06 3.000E+06 2.054E+00 2.401E+01 3.504E+01 9.687E-01 6.002E+01 6.208E+01 1.939E+05 14.6331 1.00000
  3.500E+06 3.500E+06 2.067E+00 2.818E+01 4.104E+01 1.143E+00 7.036E+01 7.243E+01 2.014E+05 14.9414 1.00000
  4.000E+06 4.000E+06 2.078E+00 3.236E+01 4.704E+01 1.321E+00 8.072E+01 8.280E+01 2.079E+05 15.2084 1.00000
  4.500E+06 4.500E+06 2.088E+00 3.654E+01 5.305E+01 1.500E+00 9.110E+01 9.319E+01 2.136E+05 15.4440 1.00000
  5.000E+06 5.000E+06 2.097E+00 4.074E+01 5.907E+01 1.681E+00 1.015E+02 1.036E+02 2.187E+05 15.6547 1.00000
  5.500E+06 5.500E+06 2.106E+00 4.493E+01 6.509E+01 1.865E+00 1.119E+02 1.140E+02 2.233E+05 15.8453 1.00000
  6.000E+06 6.000E+06 2.113E+00 4.914E+01 7.111E+01 2.050E+00 1.223E+02 1.244E+02 2.275E+05 16.0194 1.00000
  7.000E+06 7.000E+06 2.126E+00 5.755E+01 8.316E+01 2.424E+00 1.431E+02 1.453E+02 2.349E+05 16.3276 1.00000
  8.000E+06 8.000E+06 2.138E+00 6.598E+01 9.522E+01 2.804E+00 1.640E+02 1.661E+02 2.414E+05 16.5947 1.00000
  9.000E+06 9.000E+06 2.148E+00 7.442E+01 1.073E+02 3.189E+00 1.849E+02 1.870E+02 2.471E+05 16.8303 1.00000
  1.000E+07 1.000E+07 2.158E+00 8.287E+01 1.194E+02 3.578E+00 2.058E+02 2.080E+02 2.521E+05 17.0410 1.00000
  1.200E+07 1.200E+07 2.174E+00 9.979E+01 1.435E+02 4.369E+00 2.477E+02 2.498E+02 2.610E+05 17.4056 1.00000
  1.400E+07 1.400E+07 2.188E+00 1.167E+02 1.677E+02 5.174E+00 2.896E+02 2.917E+02 2.684E+05 17.7139 1.00000
  1.700E+07 1.700E+07 2.205E+00 1.421E+02 2.039E+02 6.404E+00 3.525E+02 3.547E+02 2.778E+05 18.1022 1.00000
  2.000E+07 2.000E+07 2.220E+00 1.676E+02 2.402E+02 7.658E+00 4.154E+02 4.177E+02 2.856E+05 18.4273 1.00000
  2.500E+07 2.500E+07 2.240E+00 2.100E+02 3.007E+02 9.792E+00 5.205E+02 5.227E+02 2.963E+05 18.8736 1.00000
  3.000E+07 3.000E+07 2.257E+00 2.525E+02 3.611E+02 1.197E+01 6.256E+02 6.279E+02 3.051E+05 19.2382 1.00000
  3.500E+07 3.500E+07 2.272E+00 2.950E+02 4.216E+02 1.419E+01 7.309E+02 7.331E+02 3.125E+05 19.5465 1.00000
  4.000E+07 4.000E+07 2.284E+00 3.375E+02 4.822E+02 1.645E+01 8.361E+02 8.384E+02 3.189E+05 19.8136 1.00000
  4.500E+07 4.500E+07 2.295E+00 3.801E+02 5.427E+02 1.874E+01 9.415E+02 9.438E+02 3.245E+05 20.0491 1.00000
  5.000E+07 5.000E+07 2.305E+00 4.226E+02 6.032E+02 2.106E+01 1.047E+03 1.049E+03 3.296E+05 20.2598 1.00000
  5.500E+07 5.500E+07 2.314E+00 4.652E+02 6.637E+02 2.340E+01 1.152E+03 1.155E+03 3.341E+05 20.4505 1.00000
  6.000E+07 6.000E+07 2.323E+00 5.077E+02 7.242E+02 2.576E+01 1.258E+03 1.260E+03 3.383E+05 20.6245 1.00000
  7.000E+07 7.000E+07 2.338E+00 5.928E+02 8.453E+02 3.056E+01 1.469E+03 1.471E+03 3.456E+05 20.9328 1.00000
  8.000E+07 8.000E+07 2.351E+00 6.780E+02 9.664E+02 3.544E+01 1.680E+03 1.682E+03 3.520E+05 21.1999 1.00000
  9.000E+07 9.000E+07 2.362E+00 7.631E+02 1.087E+03 4.038E+01 1.891E+03 1.893E+03 3.576E+05 21.4354 1.00000
  1.000E+08 1.000E+08 2.372E+00 8.483E+02 1.208E+03 4.539E+01 2.102E+03 2.105E+03 3.626E+05 21.6461 1.00000
  1.200E+08 1.200E+08 2.390E+00 1.019E+03 1.451E+03 5.557E+01 2.525E+03 2.527E+03 3.713E+05 22.0108 1.00000
  1.400E+08 1.400E+08 2.406E+00 1.189E+03 1.693E+03 6.594E+01 2.948E+03 2.950E+03 3.787E+05 22.3191 1.00000
  1.700E+08 1.700E+08 2.425E+00 1.445E+03 2.056E+03 8.182E+01 3.582E+03 3.585E+03 3.879E+05 22.7074 1.00000
  2.000E+08 2.000E+08 2.442E+00 1.700E+03 2.419E+03 9.802E+01 4.218E+03 4.220E+03 3.957E+05 23.0324 1.00000
  2.500E+08 2.500E+08 2.465E+00 2.126E+03 3.025E+03 1.256E+02 5.277E+03 5.279E+03 4.063E+05 23.4787 1.00000
  3.000E+08 3.000E+08 2.483E+00 2.552E+03 3.630E+03 1.539E+02 6.336E+03 6.339E+03 4.150E+05 23.8434 1.00000
  3.500E+08 3.500E+08 2.500E+00 2.978E+03 4.236E+03 1.827E+02 7.397E+03 7.399E+03 4.223E+05 24.1517 1.00000
  4.000E+08 4.000E+08 2.514E+00 3.404E+03 4.841E+03 2.120E+02 8.458E+03 8.460E+03 4.287E+05 24.4187 1.00000
  4.500E+08 4.500E+08 2.526E+00 3.831E+03 5.447E+03 2.417E+02 9.519E+03 9.521E+03 4.343E+05 24.6543 1.00000
  5.000E+08 5.000E+08 2.537E+00 4.257E+03 6.052E+03 2.718E+02 1.058E+04 1.058E+04 4.392E+05 24.8650 1.00000
  5.500E+08 5.500E+08 2.547E+00 4.683E+03 6.657E+03 3.023E+02 1.164E+04 1.165E+04 4.438E+05 25.0556 1.00000
  6.000E+08 6.000E+08 2.557E+00 5.109E+03 7.263E+03 3.331E+02 1.270E+04 1.271E+04 4.479E+05 25.2297 1.00000
  7.000E+08 7.000E+08 2.573E+00 5.961E+03 8.474E+03 3.956E+02 1.483E+04 1.483E+04 4.552E+05 25.5380 1.00000
  8.000E+08 8.000E+08 2.588E+00 6.813E+03 9.684E+03 4.592E+02 1.696E+04 1.696E+04 4.615E+05 25.8050 1.00000
  9.000E+08 9.000E+08 2.601E+00 7.666E+03 1.090E+04 5.237E+02 1.908E+04 1.909E+04 4.671E+05 26.0406 1.00000
  1.000E+09 1.000E+09 2.612E+00 8.518E+03 1.211E+04 5.890E+02 2.121E+04 2.122E+04 4.720E+05 26.2513 1.00000
