 Incident particle is a Muon with M = 105.65839 MeV
 Index = 0: Polyvinyltoluene
      Absorber with <Z/A> = 0.54136
 Sternheimer coef:  a     k=m_s   x_0    x_1    I[eV]   Cbar  delta0
                 0.1610  3.2393  0.1464  2.4855   64.7  3.1997 0.00

 *** Table generated with PUMAS v1.00 ***

      T         p     Ionization  brems     pair     photonuc  Radloss    dE/dx   CSDA Range  delta   beta
    [MeV]    [MeV/c]  -----------------------[MeV cm^2/g]------------------------  [g/cm^2]
  1.000E+00 1.457E+01 5.061E+01 6.285E-07 0.000E+00 0.000E+00 6.285E-07 5.061E+01 9.880E-03  0.0000 0.13661
  1.200E+00 1.597E+01 4.363E+01 7.192E-07 0.000E+00 0.000E+00 7.192E-07 4.363E+01 1.415E-02  0.0000 0.14944
  1.400E+00 1.726E+01 3.847E+01 8.059E-07 0.000E+00 0.000E+00 8.059E-07 3.847E+01 1.904E-02  0.0000 0.16119
  1.700E+00 1.903E+01 3.282E+01 9.296E-07 0.000E+00 0.000E+00 9.296E-07 3.282E+01 2.751E-02  0.0000 0.17725
  2.000E+00 2.066E+01 2.873E+01 1.047E-06 0.000E+00 0.000E+00 1.047E-06 2.873E+01 3.730E-02  0.0000 0.19186
  2.500E+00 2.312E+01 2.393E+01 1.231E-06 0.000E+00 0.000E+00 1.231E-06 2.393E+01 5.645E-02  0.0000 0.21376
  3.000E+00 2.536E+01 2.062E+01 1.404E-06 0.000E+00 0.000E+00 1.404E-06 2.062E+01 7.902E-02  0.0000 0.23336
  3.500E+00 2.742E+01 1.818E+01 1.567E-06 0.000E+00 0.000E+00 1.567E-06 1.818E+01 1.049E-01  0.0000 0.25120
  4.000E+00 2.935E+01 1.631E+01 1.722E-06 0.000E+00 0.000E+00 1.722E-06 1.631E+01 1.340E-01  0.0000 0.26763
  4.500E+00 3.116E+01 1.483E+01 1.871E-06 0.000E+00 0.000E+00 1.871E-06 1.483E+01 1.662E-01  0.0000 0.28290
  5.000E+00 3.289E+01 1.363E+01 2.013E-06 0.000E+00 0.000E+00 2.013E-06 1.363E+01 2.014E-01  0.0000 0.29720
  5.500E+00 3.453E+01 1.262E+01 2.150E-06 0.000E+00 0.000E+00 2.150E-06 1.262E+01 2.395E-01  0.0000 0.31066
  6.000E+00 3.611E+01 1.178E+01 2.282E-06 0.000E+00 0.000E+00 2.282E-06 1.178E+01 2.805E-01  0.0000 0.32339
  7.000E+00 3.909E+01 1.043E+01 2.534E-06 0.000E+00 0.000E+00 2.534E-06 1.043E+01 3.709E-01  0.0000 0.34700
  8.000E+00 4.189E+01 9.395E+00 2.771E-06 0.000E+00 0.000E+00 2.771E-06 9.395E+00 4.721E-01  0.0000 0.36854
  9.000E+00 4.453E+01 8.579E+00 2.997E-06 0.000E+00 0.000E+00 2.997E-06 8.579E+00 5.836E-01  0.0000 0.38836
  1.000E+01 4.704E+01 7.916E+00 3.213E-06 0.000E+00 0.000E+00 3.213E-06 7.916E+00 7.050E-01  0.0000 0.40675
  1.200E+01 5.177E+01 6.906E+00 3.618E-06 0.000E+00 0.000E+00 3.618E-06 6.906E+00 9.762E-01  0.0000 0.43998
  1.400E+01 5.616E+01 6.171E+00 3.997E-06 0.000E+00 0.000E+00 3.997E-06 6.171E+00 1.283E+00  0.0000 0.46937
  1.700E+01 6.230E+01 5.379E+00 4.526E-06 0.000E+00 0.000E+00 4.526E-06 5.379E+00 1.805E+00  0.0000 0.50792
  2.000E+01 6.802E+01 4.816E+00 5.019E-06 0.000E+00 0.000E+00 5.019E-06 4.816E+00 2.395E+00  0.0000 0.54129
  2.500E+01 7.686E+01 4.169E+00 5.785E-06 0.000E+00 0.000E+00 5.785E-06 4.169E+00 3.514E+00  0.0000 0.58827
  3.000E+01 8.509E+01 3.733E+00 6.504E-06 0.000E+00 0.000E+00 6.504E-06 3.734E+00 4.783E+00  0.0000 0.62720
  3.500E+01 9.285E+01 3.421E+00 7.191E-06 0.000E+00 0.000E+00 7.191E-06 3.421E+00 6.184E+00  0.0000 0.66011
  4.000E+01 1.003E+02 3.187E+00 7.856E-06 0.000E+00 0.000E+00 7.856E-06 3.187E+00 7.699E+00  0.0000 0.68834
  4.500E+01 1.074E+02 3.005E+00 8.508E-06 0.000E+00 0.000E+00 8.508E-06 3.005E+00 9.316E+00  0.0000 0.71286
  5.000E+01 1.143E+02 2.860E+00 9.151E-06 0.000E+00 0.000E+00 9.151E-06 2.860E+00 1.102E+01  0.0000 0.73434
  5.500E+01 1.210E+02 2.743E+00 9.789E-06 0.000E+00 0.000E+00 9.789E-06 2.743E+00 1.281E+01  0.0000 0.75332
  6.000E+01 1.276E+02 2.647E+00 1.042E-05 0.000E+00 0.000E+00 1.042E-05 2.647E+00 1.466E+01  0.0000 0.77019
  7.000E+01 1.403E+02 2.498E+00 1.169E-05 0.000E+00 0.000E+00 1.169E-05 2.498E+00 1.855E+01  0.0000 0.79887
  8.000E+01 1.527E+02 2.388E+00 1.297E-05 0.000E+00 0.000E+00 1.297E-05 2.388E+00 2.265E+01  0.0148 0.82227
  9.000E+01 1.647E+02 2.303E+00 1.427E-05 0.000E+00 0.000E+00 1.427E-05 2.303E+00 2.691E+01  0.0545 0.84166
  1.000E+02 1.764E+02 2.236E+00 1.558E-05 0.000E+00 0.000E+00 1.558E-05 2.236E+00 3.132E+01  0.0938 0.85794
  1.200E+02 1.994E+02 2.143E+00 1.826E-05 0.000E+00 0.000E+00 1.826E-05 2.143E+00 4.046E+01  0.1704 0.88361
  1.400E+02 2.218E+02 2.081E+00 2.104E-05 0.000E+00 0.000E+00 2.104E-05 2.081E+00 4.993E+01  0.2443 0.90278
  1.700E+02 2.546E+02 2.024E+00 2.539E-05 3.703E-14 0.000E+00 2.539E-05 2.024E+00 6.455E+01  0.3497 0.92363
  2.000E+02 2.868E+02 1.992E+00 2.995E-05 8.270E-12 0.000E+00 2.995E-05 1.992E+00 7.949E+01  0.4492 0.93835
  2.500E+02 3.396E+02 1.965E+00 3.798E-05 6.828E-08 0.000E+00 3.805E-05 1.965E+00 1.048E+02  0.6033 0.95485
  3.000E+02 3.917E+02 1.957E+00 4.652E-05 5.978E-07 0.000E+00 4.712E-05 1.957E+00 1.303E+02  0.7449 0.96548
  3.500E+02 4.432E+02 1.957E+00 5.554E-05 1.639E-06 0.000E+00 5.717E-05 1.957E+00 1.558E+02  0.8758 0.97274
  4.000E+02 4.945E+02 1.962E+00 6.497E-05 3.167E-06 0.000E+00 6.814E-05 1.962E+00 1.813E+02  0.9976 0.97793
  4.500E+02 5.455E+02 1.969E+00 7.481E-05 5.165E-06 0.000E+00 7.997E-05 1.969E+00 2.068E+02  1.1117 0.98176
  5.000E+02 5.964E+02 1.978E+00 8.500E-05 7.615E-06 0.000E+00 9.262E-05 1.978E+00 2.321E+02  1.2190 0.98467
  5.500E+02 6.471E+02 1.987E+00 9.554E-05 1.050E-05 0.000E+00 1.060E-04 1.987E+00 2.573E+02  1.3203 0.98693
  6.000E+02 6.977E+02 1.996E+00 1.064E-04 1.381E-05 0.000E+00 1.202E-04 1.996E+00 2.824E+02  1.4162 0.98873
  7.000E+02 7.987E+02 2.015E+00 1.290E-04 2.164E-05 0.000E+00 1.506E-04 2.015E+00 3.323E+02  1.5943 0.99136
  8.000E+02 8.995E+02 2.033E+00 1.527E-04 3.099E-05 0.000E+00 1.837E-04 2.033E+00 3.817E+02  1.7569 0.99317
  9.000E+02 1.000E+03 2.050E+00 1.773E-04 4.177E-05 0.000E+00 2.191E-04 2.050E+00 4.307E+02  1.9065 0.99447
  1.000E+03 1.101E+03 2.066E+00 2.028E-04 5.390E-05 0.000E+00 2.567E-04 2.066E+00 4.793E+02  2.0452 0.99542
  1.200E+03 1.301E+03 2.095E+00 2.563E-04 8.186E-05 2.257E-05 3.607E-04 2.095E+00 5.754E+02  2.2955 0.99672
  1.400E+03 1.502E+03 2.120E+00 3.126E-04 1.144E-04 6.187E-05 4.888E-04 2.120E+00 6.703E+02  2.5172 0.99753
  1.700E+03 1.803E+03 2.152E+00 4.017E-04 1.707E-04 1.329E-04 7.053E-04 2.153E+00 8.107E+02  2.8085 0.99829
  2.000E+03 2.103E+03 2.179E+00 4.955E-04 2.350E-04 2.170E-04 9.476E-04 2.180E+00 9.492E+02  3.0623 0.99874
  2.500E+03 2.604E+03 2.216E+00 6.611E-04 3.577E-04 3.803E-04 1.399E-03 2.218E+00 1.177E+03  3.4244 0.99918
  3.000E+03 3.104E+03 2.246E+00 8.363E-04 4.970E-04 5.525E-04 1.886E-03 2.248E+00 1.401E+03  3.7310 0.99942
  3.500E+03 3.604E+03 2.271E+00 1.020E-03 6.507E-04 7.358E-04 2.406E-03 2.274E+00 1.622E+03  3.9971 0.99957
  4.000E+03 4.104E+03 2.293E+00 1.211E-03 8.322E-04 9.321E-04 2.975E-03 2.296E+00 1.841E+03  4.2323 0.99967
  4.500E+03 4.604E+03 2.312E+00 1.408E-03 1.032E-03 1.137E-03 3.576E-03 2.315E+00 2.057E+03  4.4432 0.99974
  5.000E+03 5.105E+03 2.328E+00 1.611E-03 1.243E-03 1.334E-03 4.188E-03 2.333E+00 2.273E+03  4.6343 0.99979
  5.500E+03 5.605E+03 2.343E+00 1.819E-03 1.465E-03 1.547E-03 4.831E-03 2.348E+00 2.486E+03  4.8090 0.99982
  6.000E+03 6.105E+03 2.357E+00 2.032E-03 1.698E-03 1.746E-03 5.475E-03 2.362E+00 2.699E+03  4.9700 0.99985
  7.000E+03 7.105E+03 2.380E+00 2.471E-03 2.191E-03 2.167E-03 6.829E-03 2.387E+00 3.120E+03  5.2584 0.99989
  8.000E+03 8.105E+03 2.400E+00 2.925E-03 2.716E-03 2.587E-03 8.228E-03 2.408E+00 3.537E+03  5.5112 0.99992
  9.000E+03 9.105E+03 2.417E+00 3.393E-03 3.270E-03 2.983E-03 9.646E-03 2.427E+00 3.950E+03  5.7363 0.99993
  1.000E+04 1.011E+04 2.433E+00 3.873E-03 3.849E-03 3.392E-03 1.112E-02 2.444E+00 4.361E+03  5.9391 0.99995
  1.200E+04 1.211E+04 2.458E+00 4.866E-03 5.076E-03 4.224E-03 1.417E-02 2.473E+00 5.175E+03  6.2928 0.99996
  1.400E+04 1.411E+04 2.480E+00 5.897E-03 6.380E-03 5.060E-03 1.734E-02 2.497E+00 5.980E+03  6.5944 0.99997
  1.700E+04 1.711E+04 2.506E+00 7.501E-03 8.457E-03 6.301E-03 2.226E-02 2.528E+00 7.173E+03  6.9767 0.99998
  2.000E+04 2.011E+04 2.528E+00 9.164E-03 1.066E-02 7.523E-03 2.734E-02 2.555E+00 8.354E+03  7.2983 0.99999
  2.500E+04 2.511E+04 2.557E+00 1.205E-02 1.454E-02 9.535E-03 3.612E-02 2.593E+00 1.030E+04  7.7417 0.99999
  3.000E+04 3.011E+04 2.580E+00 1.504E-02 1.865E-02 1.152E-02 4.521E-02 2.625E+00 1.221E+04  8.1048 0.99999
  3.500E+04 3.511E+04 2.599E+00 1.813E-02 2.295E-02 1.352E-02 5.460E-02 2.653E+00 1.411E+04  8.4121 1.00000
  4.000E+04 4.011E+04 2.615E+00 2.130E-02 2.739E-02 1.551E-02 6.420E-02 2.679E+00 1.598E+04  8.6784 1.00000
  4.500E+04 4.511E+04 2.629E+00 2.453E-02 3.197E-02 1.747E-02 7.397E-02 2.703E+00 1.784E+04  8.9134 1.00000
  5.000E+04 5.011E+04 2.642E+00 2.783E-02 3.666E-02 1.944E-02 8.393E-02 2.726E+00 1.968E+04  9.1237 1.00000
  5.500E+04 5.511E+04 2.653E+00 3.118E-02 4.145E-02 2.142E-02 9.405E-02 2.747E+00 2.151E+04  9.3139 1.00000
  6.000E+04 6.011E+04 2.663E+00 3.458E-02 4.633E-02 2.339E-02 1.043E-01 2.768E+00 2.332E+04  9.4876 1.00000
  7.000E+04 7.011E+04 2.681E+00 4.151E-02 5.632E-02 2.729E-02 1.251E-01 2.806E+00 2.691E+04  9.7954 1.00000
  8.000E+04 8.011E+04 2.697E+00 4.859E-02 6.658E-02 3.121E-02 1.464E-01 2.843E+00 3.045E+04 10.0621 1.00000
  9.000E+04 9.011E+04 2.710E+00 5.580E-02 7.707E-02 3.514E-02 1.680E-01 2.878E+00 3.395E+04 10.2974 1.00000
  1.000E+05 1.001E+05 2.722E+00 6.312E-02 8.775E-02 3.900E-02 1.899E-01 2.912E+00 3.740E+04 10.5078 1.00000
  1.200E+05 1.201E+05 2.743E+00 7.805E-02 1.096E-01 4.686E-02 2.345E-01 2.977E+00 4.420E+04 10.8721 1.00000
  1.400E+05 1.401E+05 2.760E+00 9.332E-02 1.319E-01 5.473E-02 2.800E-01 3.040E+00 5.084E+04 11.1802 1.00000
  1.700E+05 1.701E+05 2.782E+00 1.167E-01 1.663E-01 6.655E-02 3.495E-01 3.131E+00 6.057E+04 11.5682 1.00000
  2.000E+05 2.001E+05 2.800E+00 1.406E-01 2.013E-01 7.846E-02 4.204E-01 3.220E+00 7.002E+04 11.8931 1.00000
  2.500E+05 2.501E+05 2.824E+00 1.813E-01 2.610E-01 9.838E-02 5.407E-01 3.365E+00 8.521E+04 12.3392 1.00000
  3.000E+05 3.001E+05 2.845E+00 2.228E-01 3.219E-01 1.185E-01 6.632E-01 3.508E+00 9.977E+04 12.7037 1.00000
  3.500E+05 3.501E+05 2.862E+00 2.650E-01 3.837E-01 1.388E-01 7.875E-01 3.649E+00 1.137E+05 13.0119 1.00000
  4.000E+05 4.001E+05 2.877E+00 3.078E-01 4.461E-01 1.593E-01 9.132E-01 3.790E+00 1.272E+05 13.2788 1.00000
  4.500E+05 4.501E+05 2.890E+00 3.510E-01 5.092E-01 1.799E-01 1.040E+00 3.930E+00 1.401E+05 13.5144 1.00000
  5.000E+05 5.001E+05 2.901E+00 3.947E-01 5.727E-01 2.006E-01 1.168E+00 4.069E+00 1.527E+05 13.7250 1.00000
  5.500E+05 5.501E+05 2.912E+00 4.387E-01 6.367E-01 2.213E-01 1.297E+00 4.209E+00 1.647E+05 13.9156 1.00000
  6.000E+05 6.001E+05 2.922E+00 4.831E-01 7.010E-01 2.420E-01 1.426E+00 4.348E+00 1.764E+05 14.0896 1.00000
  7.000E+05 7.001E+05 2.939E+00 5.725E-01 8.305E-01 2.839E-01 1.687E+00 4.626E+00 1.987E+05 14.3979 1.00000
  8.000E+05 8.001E+05 2.954E+00 6.630E-01 9.609E-01 3.262E-01 1.950E+00 4.904E+00 2.197E+05 14.6649 1.00000
  9.000E+05 9.001E+05 2.967E+00 7.541E-01 1.092E+00 3.689E-01 2.215E+00 5.183E+00 2.396E+05 14.9004 1.00000
  1.000E+06 1.000E+06 2.979E+00 8.459E-01 1.224E+00 4.121E-01 2.482E+00 5.461E+00 2.584E+05 15.1111 1.00000
  1.200E+06 1.200E+06 3.000E+00 1.031E+00 1.489E+00 4.994E-01 3.020E+00 6.020E+00 2.933E+05 15.4757 1.00000
  1.400E+06 1.400E+06 3.018E+00 1.218E+00 1.756E+00 5.880E-01 3.562E+00 6.580E+00 3.251E+05 15.7840 1.00000
  1.700E+06 1.700E+06 3.040E+00 1.501E+00 2.159E+00 7.230E-01 4.383E+00 7.423E+00 3.681E+05 16.1723 1.00000
  2.000E+06 2.000E+06 3.059E+00 1.786E+00 2.564E+00 8.602E-01 5.210E+00 8.269E+00 4.065E+05 16.4973 1.00000
  2.500E+06 2.500E+06 3.085E+00 2.266E+00 3.241E+00 1.093E+00 6.601E+00 9.685E+00 4.625E+05 16.9436 1.00000
  3.000E+06 3.000E+06 3.106E+00 2.750E+00 3.922E+00 1.331E+00 8.002E+00 1.111E+01 5.108E+05 17.3082 1.00000
  3.500E+06 3.500E+06 3.124E+00 3.236E+00 4.605E+00 1.572E+00 9.413E+00 1.254E+01 5.533E+05 17.6165 1.00000
  4.000E+06 4.000E+06 3.140E+00 3.725E+00 5.289E+00 1.817E+00 1.083E+01 1.397E+01 5.911E+05 17.8835 1.00000
  4.500E+06 4.500E+06 3.154E+00 4.215E+00 5.975E+00 2.065E+00 1.225E+01 1.541E+01 6.252E+05 18.1191 1.00000
  5.000E+06 5.000E+06 3.167E+00 4.707E+00 6.661E+00 2.315E+00 1.368E+01 1.685E+01 6.563E+05 18.3298 1.00000
  5.500E+06 5.500E+06 3.179E+00 5.201E+00 7.348E+00 2.568E+00 1.512E+01 1.830E+01 6.848E+05 18.5204 1.00000
  6.000E+06 6.000E+06 3.189E+00 5.695E+00 8.036E+00 2.824E+00 1.656E+01 1.974E+01 7.111E+05 18.6945 1.00000
  7.000E+06 7.000E+06 3.208E+00 6.687E+00 9.414E+00 3.342E+00 1.944E+01 2.265E+01 7.585E+05 19.0027 1.00000
  8.000E+06 8.000E+06 3.224E+00 7.681E+00 1.079E+01 3.867E+00 2.234E+01 2.557E+01 8.002E+05 19.2698 1.00000
  9.000E+06 9.000E+06 3.239E+00 8.678E+00 1.217E+01 4.399E+00 2.525E+01 2.849E+01 8.373E+05 19.5054 1.00000
  1.000E+07 1.000E+07 3.252E+00 9.677E+00 1.356E+01 4.938E+00 2.817E+01 3.142E+01 8.707E+05 19.7161 1.00000
  1.200E+07 1.200E+07 3.275E+00 1.168E+01 1.632E+01 6.031E+00 3.403E+01 3.731E+01 9.293E+05 20.0807 1.00000
  1.400E+07 1.400E+07 3.294E+00 1.369E+01 1.909E+01 7.145E+00 3.992E+01 4.322E+01 9.793E+05 20.3890 1.00000
  1.700E+07 1.700E+07 3.319E+00 1.671E+01 2.325E+01 8.846E+00 4.880E+01 5.212E+01 1.043E+06 20.7773 1.00000
  2.000E+07 2.000E+07 3.339E+00 1.973E+01 2.741E+01 1.058E+01 5.772E+01 6.106E+01 1.096E+06 21.1024 1.00000
  2.500E+07 2.500E+07 3.368E+00 2.478E+01 3.435E+01 1.353E+01 7.266E+01 7.603E+01 1.170E+06 21.5487 1.00000
  3.000E+07 3.000E+07 3.392E+00 2.984E+01 4.129E+01 1.655E+01 8.768E+01 9.107E+01 1.230E+06 21.9133 1.00000
  3.500E+07 3.500E+07 3.412E+00 3.491E+01 4.823E+01 1.962E+01 1.028E+02 1.062E+02 1.281E+06 22.2216 1.00000
  4.000E+07 4.000E+07 3.430E+00 3.998E+01 5.518E+01 2.275E+01 1.179E+02 1.213E+02 1.325E+06 22.4887 1.00000
  4.500E+07 4.500E+07 3.445E+00 4.505E+01 6.213E+01 2.591E+01 1.331E+02 1.365E+02 1.364E+06 22.7242 1.00000
  5.000E+07 5.000E+07 3.459E+00 5.013E+01 6.908E+01 2.912E+01 1.483E+02 1.518E+02 1.399E+06 22.9349 1.00000
  5.500E+07 5.500E+07 3.472E+00 5.521E+01 7.603E+01 3.236E+01 1.636E+02 1.671E+02 1.431E+06 23.1256 1.00000
  6.000E+07 6.000E+07 3.484E+00 6.029E+01 8.298E+01 3.563E+01 1.789E+02 1.824E+02 1.459E+06 23.2996 1.00000
  7.000E+07 7.000E+07 3.505E+00 7.046E+01 9.689E+01 4.227E+01 2.096E+02 2.131E+02 1.510E+06 23.6079 1.00000
  8.000E+07 8.000E+07 3.523E+00 8.064E+01 1.108E+02 4.902E+01 2.404E+02 2.440E+02 1.554E+06 23.8750 1.00000
  9.000E+07 9.000E+07 3.539E+00 9.082E+01 1.247E+02 5.586E+01 2.714E+02 2.749E+02 1.593E+06 24.1105 1.00000
  1.000E+08 1.000E+08 3.554E+00 1.010E+02 1.386E+02 6.278E+01 3.024E+02 3.060E+02 1.627E+06 24.3212 1.00000
  1.200E+08 1.200E+08 3.579E+00 1.214E+02 1.664E+02 7.687E+01 3.647E+02 3.683E+02 1.687E+06 24.6859 1.00000
  1.400E+08 1.400E+08 3.601E+00 1.418E+02 1.943E+02 9.122E+01 4.272E+02 4.308E+02 1.737E+06 24.9942 1.00000
  1.700E+08 1.700E+08 3.628E+00 1.723E+02 2.360E+02 1.132E+02 5.215E+02 5.252E+02 1.801E+06 25.3825 1.00000
  2.000E+08 2.000E+08 3.651E+00 2.029E+02 2.777E+02 1.356E+02 6.163E+02 6.199E+02 1.854E+06 25.7075 1.00000
  2.500E+08 2.500E+08 3.683E+00 2.539E+02 3.473E+02 1.738E+02 7.751E+02 7.787E+02 1.926E+06 26.1538 1.00000
  3.000E+08 3.000E+08 3.710E+00 3.049E+02 4.169E+02 2.129E+02 9.348E+02 9.385E+02 1.985E+06 26.5185 1.00000
  3.500E+08 3.500E+08 3.732E+00 3.560E+02 4.865E+02 2.528E+02 1.095E+03 1.099E+03 2.034E+06 26.8268 1.00000
  4.000E+08 4.000E+08 3.752E+00 4.070E+02 5.561E+02 2.933E+02 1.256E+03 1.260E+03 2.077E+06 27.0938 1.00000
  4.500E+08 4.500E+08 3.770E+00 4.580E+02 6.256E+02 3.345E+02 1.418E+03 1.422E+03 2.114E+06 27.3294 1.00000
  5.000E+08 5.000E+08 3.785E+00 5.090E+02 6.952E+02 3.761E+02 1.580E+03 1.584E+03 2.148E+06 27.5401 1.00000
  5.500E+08 5.500E+08 3.800E+00 5.601E+02 7.648E+02 4.183E+02 1.743E+03 1.747E+03 2.178E+06 27.7307 1.00000
  6.000E+08 6.000E+08 3.813E+00 6.111E+02 8.344E+02 4.609E+02 1.906E+03 1.910E+03 2.205E+06 27.9048 1.00000
  7.000E+08 7.000E+08 3.836E+00 7.132E+02 9.735E+02 5.474E+02 2.234E+03 2.238E+03 2.254E+06 28.2131 1.00000
  8.000E+08 8.000E+08 3.856E+00 8.153E+02 1.113E+03 6.353E+02 2.563E+03 2.567E+03 2.295E+06 28.4801 1.00000
  9.000E+08 9.000E+08 3.874E+00 9.174E+02 1.252E+03 7.246E+02 2.894E+03 2.898E+03 2.332E+06 28.7157 1.00000
  1.000E+09 1.000E+09 3.891E+00 1.019E+03 1.391E+03 8.150E+02 3.225E+03 3.229E+03 2.365E+06 28.9264 1.00000
