 Incident particle is a Muon with M = 105.65839 MeV
 Index = 0: Polystyrene
      Absorber with <Z/A> = 0.53763
 Sternheimer coef:  a     k=m_s   x_0    x_1    I[eV]   Cbar  delta0
                 0.1645  3.2224  0.1647  2.5031   68.7  3.2999 0.00

 *** Table generated with PUMAS v1.00 ***

      T         p     Ionization  brems     pair     photonuc  Radloss    dE/dx   CSDA Range  delta   beta
    [MeV]    [MeV/c]  -----------------------[MeV cm^2/g]------------------------  [g/cm^2]
  1.000E+00 1.457E+01 4.973E+01 6.310E-07 0.000E+00 0.000E+00 6.310E-07 4.973E+01 1.005E-02  0.0000 0.13661
  1.200E+00 1.597E+01 4.288E+01 7.222E-07 0.000E+00 0.000E+00 7.222E-07 4.288E+01 1.440E-02  0.0000 0.14944
  1.400E+00 1.726E+01 3.782E+01 8.093E-07 0.000E+00 0.000E+00 8.093E-07 3.782E+01 1.937E-02  0.0000 0.16119
  1.700E+00 1.903E+01 3.228E+01 9.337E-07 0.000E+00 0.000E+00 9.337E-07 3.228E+01 2.799E-02  0.0000 0.17725
  2.000E+00 2.066E+01 2.826E+01 1.052E-06 0.000E+00 0.000E+00 1.052E-06 2.826E+01 3.794E-02  0.0000 0.19186
  2.500E+00 2.312E+01 2.355E+01 1.237E-06 0.000E+00 0.000E+00 1.237E-06 2.355E+01 5.740E-02  0.0000 0.21376
  3.000E+00 2.536E+01 2.029E+01 1.410E-06 0.000E+00 0.000E+00 1.410E-06 2.029E+01 8.034E-02  0.0000 0.23336
  3.500E+00 2.742E+01 1.790E+01 1.574E-06 0.000E+00 0.000E+00 1.574E-06 1.790E+01 1.066E-01  0.0000 0.25120
  4.000E+00 2.935E+01 1.606E+01 1.730E-06 0.000E+00 0.000E+00 1.730E-06 1.606E+01 1.362E-01  0.0000 0.26763
  4.500E+00 3.116E+01 1.461E+01 1.879E-06 0.000E+00 0.000E+00 1.879E-06 1.461E+01 1.688E-01  0.0000 0.28290
  5.000E+00 3.289E+01 1.342E+01 2.022E-06 0.000E+00 0.000E+00 2.022E-06 1.342E+01 2.046E-01  0.0000 0.29720
  5.500E+00 3.453E+01 1.244E+01 2.159E-06 0.000E+00 0.000E+00 2.159E-06 1.244E+01 2.433E-01  0.0000 0.31066
  6.000E+00 3.611E+01 1.160E+01 2.292E-06 0.000E+00 0.000E+00 2.292E-06 1.160E+01 2.850E-01  0.0000 0.32339
  7.000E+00 3.909E+01 1.027E+01 2.545E-06 0.000E+00 0.000E+00 2.545E-06 1.027E+01 3.767E-01  0.0000 0.34700
  8.000E+00 4.189E+01 9.258E+00 2.784E-06 0.000E+00 0.000E+00 2.784E-06 9.258E+00 4.794E-01  0.0000 0.36854
  9.000E+00 4.453E+01 8.454E+00 3.011E-06 0.000E+00 0.000E+00 3.011E-06 8.454E+00 5.925E-01  0.0000 0.38836
  1.000E+01 4.704E+01 7.802E+00 3.227E-06 0.000E+00 0.000E+00 3.227E-06 7.802E+00 7.158E-01  0.0000 0.40675
  1.200E+01 5.177E+01 6.807E+00 3.635E-06 0.000E+00 0.000E+00 3.635E-06 6.807E+00 9.909E-01  0.0000 0.43998
  1.400E+01 5.616E+01 6.083E+00 4.015E-06 0.000E+00 0.000E+00 4.015E-06 6.083E+00 1.302E+00  0.0000 0.46937
  1.700E+01 6.230E+01 5.303E+00 4.546E-06 0.000E+00 0.000E+00 4.546E-06 5.303E+00 1.832E+00  0.0000 0.50792
  2.000E+01 6.802E+01 4.749E+00 5.041E-06 0.000E+00 0.000E+00 5.041E-06 4.749E+00 2.430E+00  0.0000 0.54129
  2.500E+01 7.686E+01 4.112E+00 5.811E-06 0.000E+00 0.000E+00 5.811E-06 4.112E+00 3.565E+00  0.0000 0.58827
  3.000E+01 8.509E+01 3.683E+00 6.533E-06 0.000E+00 0.000E+00 6.533E-06 3.683E+00 4.852E+00  0.0000 0.62720
  3.500E+01 9.285E+01 3.375E+00 7.222E-06 0.000E+00 0.000E+00 7.222E-06 3.375E+00 6.271E+00  0.0000 0.66011
  4.000E+01 1.003E+02 3.144E+00 7.891E-06 0.000E+00 0.000E+00 7.891E-06 3.144E+00 7.807E+00  0.0000 0.68834
  4.500E+01 1.074E+02 2.965E+00 8.546E-06 0.000E+00 0.000E+00 8.546E-06 2.965E+00 9.446E+00  0.0000 0.71286
  5.000E+01 1.143E+02 2.822E+00 9.191E-06 0.000E+00 0.000E+00 9.191E-06 2.822E+00 1.117E+01  0.0000 0.73434
  5.500E+01 1.210E+02 2.707E+00 9.832E-06 0.000E+00 0.000E+00 9.832E-06 2.707E+00 1.298E+01  0.0000 0.75332
  6.000E+01 1.276E+02 2.612E+00 1.047E-05 0.000E+00 0.000E+00 1.047E-05 2.612E+00 1.486E+01  0.0000 0.77019
  7.000E+01 1.403E+02 2.465E+00 1.175E-05 0.000E+00 0.000E+00 1.175E-05 2.465E+00 1.881E+01  0.0000 0.79887
  8.000E+01 1.527E+02 2.359E+00 1.303E-05 0.000E+00 0.000E+00 1.303E-05 2.359E+00 2.296E+01  0.0000 0.82227
  9.000E+01 1.647E+02 2.275E+00 1.433E-05 0.000E+00 0.000E+00 1.433E-05 2.275E+00 2.727E+01  0.0316 0.84166
  1.000E+02 1.764E+02 2.210E+00 1.564E-05 0.000E+00 0.000E+00 1.564E-05 2.210E+00 3.173E+01  0.0689 0.85794
  1.200E+02 1.994E+02 2.118E+00 1.834E-05 0.000E+00 0.000E+00 1.834E-05 2.118E+00 4.098E+01  0.1422 0.88361
  1.400E+02 2.218E+02 2.058E+00 2.113E-05 0.000E+00 0.000E+00 2.113E-05 2.058E+00 5.056E+01  0.2131 0.90278
  1.700E+02 2.546E+02 2.002E+00 2.550E-05 3.721E-14 0.000E+00 2.550E-05 2.002E+00 6.534E+01  0.3148 0.92363
  2.000E+02 2.868E+02 1.970E+00 3.008E-05 8.311E-12 0.000E+00 3.008E-05 1.970E+00 8.044E+01  0.4111 0.93835
  2.500E+02 3.396E+02 1.945E+00 3.815E-05 6.862E-08 0.000E+00 3.821E-05 1.945E+00 1.060E+02  0.5608 0.95485
  3.000E+02 3.917E+02 1.937E+00 4.673E-05 6.009E-07 0.000E+00 4.733E-05 1.937E+00 1.318E+02  0.6987 0.96548
  3.500E+02 4.432E+02 1.937E+00 5.578E-05 1.648E-06 0.000E+00 5.743E-05 1.937E+00 1.576E+02  0.8265 0.97274
  4.000E+02 4.945E+02 1.942E+00 6.526E-05 3.184E-06 0.000E+00 6.844E-05 1.942E+00 1.833E+02  0.9457 0.97793
  4.500E+02 5.455E+02 1.950E+00 7.513E-05 5.192E-06 0.000E+00 8.033E-05 1.950E+00 2.090E+02  1.0574 0.98176
  5.000E+02 5.964E+02 1.959E+00 8.537E-05 7.656E-06 0.000E+00 9.303E-05 1.959E+00 2.346E+02  1.1626 0.98467
  5.500E+02 6.471E+02 1.968E+00 9.596E-05 1.056E-05 0.000E+00 1.065E-04 1.968E+00 2.601E+02  1.2620 0.98693
  6.000E+02 6.977E+02 1.977E+00 1.069E-04 1.389E-05 0.000E+00 1.207E-04 1.978E+00 2.854E+02  1.3563 0.98873
  7.000E+02 7.987E+02 1.996E+00 1.296E-04 2.176E-05 0.000E+00 1.513E-04 1.997E+00 3.358E+02  1.5314 0.99136
  8.000E+02 8.995E+02 2.015E+00 1.533E-04 3.116E-05 0.000E+00 1.845E-04 2.015E+00 3.856E+02  1.6914 0.99317
  9.000E+02 1.000E+03 2.032E+00 1.781E-04 4.200E-05 0.000E+00 2.201E-04 2.032E+00 4.350E+02  1.8389 0.99447
  1.000E+03 1.101E+03 2.048E+00 2.037E-04 5.418E-05 0.000E+00 2.579E-04 2.048E+00 4.841E+02  1.9756 0.99542
  1.200E+03 1.301E+03 2.076E+00 2.574E-04 8.230E-05 2.257E-05 3.623E-04 2.077E+00 5.810E+02  2.2227 0.99672
  1.400E+03 1.502E+03 2.101E+00 3.140E-04 1.150E-04 6.187E-05 4.908E-04 2.102E+00 6.768E+02  2.4417 0.99753
  1.700E+03 1.803E+03 2.134E+00 4.034E-04 1.716E-04 1.329E-04 7.079E-04 2.134E+00 8.184E+02  2.7300 0.99829
  2.000E+03 2.103E+03 2.161E+00 4.977E-04 2.363E-04 2.169E-04 9.509E-04 2.162E+00 9.581E+02  2.9813 0.99874
  2.500E+03 2.604E+03 2.198E+00 6.640E-04 3.596E-04 3.801E-04 1.404E-03 2.199E+00 1.187E+03  3.3401 0.99918
  3.000E+03 3.104E+03 2.228E+00 8.400E-04 4.997E-04 5.523E-04 1.892E-03 2.230E+00 1.413E+03  3.6443 0.99942
  3.500E+03 3.604E+03 2.253E+00 1.024E-03 6.542E-04 7.353E-04 2.414E-03 2.256E+00 1.636E+03  3.9086 0.99957
  4.000E+03 4.104E+03 2.275E+00 1.216E-03 8.364E-04 9.315E-04 2.984E-03 2.278E+00 1.857E+03  4.1423 0.99967
  4.500E+03 4.604E+03 2.294E+00 1.414E-03 1.037E-03 1.136E-03 3.586E-03 2.297E+00 2.075E+03  4.3519 0.99974
  5.000E+03 5.105E+03 2.310E+00 1.617E-03 1.249E-03 1.333E-03 4.199E-03 2.314E+00 2.292E+03  4.5419 0.99979
  5.500E+03 5.605E+03 2.325E+00 1.826E-03 1.472E-03 1.546E-03 4.844E-03 2.330E+00 2.508E+03  4.7158 0.99982
  6.000E+03 6.105E+03 2.338E+00 2.040E-03 1.706E-03 1.744E-03 5.490E-03 2.344E+00 2.721E+03  4.8760 0.99985
  7.000E+03 7.105E+03 2.362E+00 2.481E-03 2.200E-03 2.165E-03 6.846E-03 2.369E+00 3.146E+03  5.1632 0.99989
  8.000E+03 8.105E+03 2.382E+00 2.937E-03 2.727E-03 2.585E-03 8.249E-03 2.390E+00 3.566E+03  5.4151 0.99992
  9.000E+03 9.105E+03 2.399E+00 3.407E-03 3.283E-03 2.980E-03 9.670E-03 2.408E+00 3.983E+03  5.6394 0.99993
  1.000E+04 1.011E+04 2.414E+00 3.889E-03 3.865E-03 3.389E-03 1.114E-02 2.425E+00 4.397E+03  5.8416 0.99995
  1.200E+04 1.211E+04 2.440E+00 4.886E-03 5.096E-03 4.220E-03 1.420E-02 2.454E+00 5.217E+03  6.1945 0.99996
  1.400E+04 1.411E+04 2.461E+00 5.920E-03 6.405E-03 5.054E-03 1.738E-02 2.478E+00 6.028E+03  6.4954 0.99997
  1.700E+04 1.711E+04 2.487E+00 7.530E-03 8.490E-03 6.294E-03 2.231E-02 2.510E+00 7.231E+03  6.8771 0.99998
  2.000E+04 2.011E+04 2.509E+00 9.200E-03 1.070E-02 7.514E-03 2.741E-02 2.536E+00 8.420E+03  7.1985 0.99999
  2.500E+04 2.511E+04 2.537E+00 1.209E-02 1.460E-02 9.523E-03 3.621E-02 2.573E+00 1.038E+04  7.6416 0.99999
  3.000E+04 3.011E+04 2.560E+00 1.510E-02 1.872E-02 1.150E-02 4.532E-02 2.605E+00 1.231E+04  8.0046 0.99999
  3.500E+04 3.511E+04 2.579E+00 1.820E-02 2.303E-02 1.350E-02 5.473E-02 2.634E+00 1.422E+04  8.3119 1.00000
  4.000E+04 4.011E+04 2.595E+00 2.138E-02 2.749E-02 1.549E-02 6.435E-02 2.660E+00 1.611E+04  8.5782 1.00000
  4.500E+04 4.511E+04 2.609E+00 2.462E-02 3.208E-02 1.745E-02 7.415E-02 2.684E+00 1.798E+04  8.8132 1.00000
  5.000E+04 5.011E+04 2.622E+00 2.793E-02 3.679E-02 1.941E-02 8.413E-02 2.706E+00 1.983E+04  9.0235 1.00000
  5.500E+04 5.511E+04 2.633E+00 3.129E-02 4.159E-02 2.139E-02 9.428E-02 2.727E+00 2.167E+04  9.2137 1.00000
  6.000E+04 6.011E+04 2.643E+00 3.471E-02 4.649E-02 2.335E-02 1.045E-01 2.748E+00 2.350E+04  9.3874 1.00000
  7.000E+04 7.011E+04 2.661E+00 4.166E-02 5.652E-02 2.725E-02 1.254E-01 2.787E+00 2.711E+04  9.6952 1.00000
  8.000E+04 8.011E+04 2.676E+00 4.876E-02 6.681E-02 3.116E-02 1.467E-01 2.823E+00 3.068E+04  9.9619 1.00000
  9.000E+04 9.011E+04 2.690E+00 5.599E-02 7.733E-02 3.508E-02 1.684E-01 2.858E+00 3.420E+04 10.1972 1.00000
  1.000E+05 1.001E+05 2.702E+00 6.334E-02 8.804E-02 3.893E-02 1.903E-01 2.892E+00 3.768E+04 10.4076 1.00000
  1.200E+05 1.201E+05 2.722E+00 7.832E-02 1.099E-01 4.678E-02 2.350E-01 2.957E+00 4.452E+04 10.7719 1.00000
  1.400E+05 1.401E+05 2.739E+00 9.364E-02 1.324E-01 5.463E-02 2.806E-01 3.020E+00 5.121E+04 11.0800 1.00000
  1.700E+05 1.701E+05 2.761E+00 1.171E-01 1.668E-01 6.643E-02 3.504E-01 3.111E+00 6.100E+04 11.4680 1.00000
  2.000E+05 2.001E+05 2.779E+00 1.411E-01 2.020E-01 7.832E-02 4.214E-01 3.200E+00 7.051E+04 11.7929 1.00000
  2.500E+05 2.501E+05 2.803E+00 1.819E-01 2.619E-01 9.820E-02 5.419E-01 3.345E+00 8.579E+04 12.2390 1.00000
  3.000E+05 3.001E+05 2.823E+00 2.235E-01 3.229E-01 1.183E-01 6.647E-01 3.488E+00 1.004E+05 12.6035 1.00000
  3.500E+05 3.501E+05 2.840E+00 2.659E-01 3.848E-01 1.386E-01 7.893E-01 3.630E+00 1.145E+05 12.9117 1.00000
  4.000E+05 4.001E+05 2.855E+00 3.088E-01 4.475E-01 1.590E-01 9.153E-01 3.770E+00 1.280E+05 13.1786 1.00000
  4.500E+05 4.501E+05 2.868E+00 3.521E-01 5.107E-01 1.795E-01 1.042E+00 3.911E+00 1.410E+05 13.4142 1.00000
  5.000E+05 5.001E+05 2.880E+00 3.959E-01 5.745E-01 2.003E-01 1.171E+00 4.050E+00 1.536E+05 13.6248 1.00000
  5.500E+05 5.501E+05 2.890E+00 4.401E-01 6.386E-01 2.208E-01 1.300E+00 4.190E+00 1.657E+05 13.8154 1.00000
  6.000E+05 6.001E+05 2.900E+00 4.846E-01 7.031E-01 2.415E-01 1.429E+00 4.329E+00 1.775E+05 13.9894 1.00000
  7.000E+05 7.001E+05 2.917E+00 5.743E-01 8.330E-01 2.833E-01 1.691E+00 4.608E+00 1.999E+05 14.2977 1.00000
  8.000E+05 8.001E+05 2.932E+00 6.650E-01 9.638E-01 3.256E-01 1.954E+00 4.886E+00 2.210E+05 14.5647 1.00000
  9.000E+05 9.001E+05 2.945E+00 7.564E-01 1.095E+00 3.682E-01 2.220E+00 5.165E+00 2.409E+05 14.8002 1.00000
  1.000E+06 1.000E+06 2.957E+00 8.485E-01 1.228E+00 4.113E-01 2.487E+00 5.444E+00 2.597E+05 15.0109 1.00000
  1.200E+06 1.200E+06 2.978E+00 1.034E+00 1.494E+00 4.984E-01 3.026E+00 6.004E+00 2.948E+05 15.3755 1.00000
  1.400E+06 1.400E+06 2.995E+00 1.222E+00 1.761E+00 5.868E-01 3.570E+00 6.565E+00 3.266E+05 15.6838 1.00000
  1.700E+06 1.700E+06 3.017E+00 1.505E+00 2.165E+00 7.216E-01 4.392E+00 7.410E+00 3.697E+05 16.0721 1.00000
  2.000E+06 2.000E+06 3.036E+00 1.792E+00 2.571E+00 8.585E-01 5.221E+00 8.257E+00 4.081E+05 16.3971 1.00000
  2.500E+06 2.500E+06 3.062E+00 2.273E+00 3.251E+00 1.091E+00 6.614E+00 9.676E+00 4.643E+05 16.8434 1.00000
  3.000E+06 3.000E+06 3.083E+00 2.758E+00 3.933E+00 1.328E+00 8.018E+00 1.110E+01 5.126E+05 17.2080 1.00000
  3.500E+06 3.500E+06 3.101E+00 3.245E+00 4.618E+00 1.569E+00 9.432E+00 1.253E+01 5.551E+05 17.5163 1.00000
  4.000E+06 4.000E+06 3.117E+00 3.735E+00 5.304E+00 1.813E+00 1.085E+01 1.397E+01 5.929E+05 17.7833 1.00000
  4.500E+06 4.500E+06 3.131E+00 4.227E+00 5.991E+00 2.060E+00 1.228E+01 1.541E+01 6.270E+05 18.0189 1.00000
  5.000E+06 5.000E+06 3.144E+00 4.721E+00 6.680E+00 2.310E+00 1.371E+01 1.685E+01 6.581E+05 18.2296 1.00000
  5.500E+06 5.500E+06 3.155E+00 5.215E+00 7.369E+00 2.563E+00 1.515E+01 1.830E+01 6.866E+05 18.4202 1.00000
  6.000E+06 6.000E+06 3.166E+00 5.711E+00 8.059E+00 2.818E+00 1.659E+01 1.975E+01 7.129E+05 18.5943 1.00000
  7.000E+06 7.000E+06 3.184E+00 6.705E+00 9.440E+00 3.335E+00 1.948E+01 2.266E+01 7.603E+05 18.9025 1.00000
  8.000E+06 8.000E+06 3.200E+00 7.703E+00 1.082E+01 3.859E+00 2.238E+01 2.559E+01 8.019E+05 19.1696 1.00000
  9.000E+06 9.000E+06 3.215E+00 8.702E+00 1.221E+01 4.390E+00 2.530E+01 2.852E+01 8.390E+05 19.4052 1.00000
  1.000E+07 1.000E+07 3.228E+00 9.704E+00 1.359E+01 4.927E+00 2.823E+01 3.145E+01 8.724E+05 19.6159 1.00000
  1.200E+07 1.200E+07 3.250E+00 1.171E+01 1.637E+01 6.019E+00 3.410E+01 3.735E+01 9.310E+05 19.9805 1.00000
  1.400E+07 1.400E+07 3.270E+00 1.373E+01 1.914E+01 7.130E+00 4.000E+01 4.327E+01 9.809E+05 20.2888 1.00000
  1.700E+07 1.700E+07 3.294E+00 1.675E+01 2.331E+01 8.828E+00 4.889E+01 5.219E+01 1.044E+06 20.6771 1.00000
  2.000E+07 2.000E+07 3.315E+00 1.979E+01 2.748E+01 1.056E+01 5.783E+01 6.114E+01 1.098E+06 21.0022 1.00000
  2.500E+07 2.500E+07 3.343E+00 2.485E+01 3.444E+01 1.350E+01 7.279E+01 7.614E+01 1.171E+06 21.4485 1.00000
  3.000E+07 3.000E+07 3.367E+00 2.992E+01 4.140E+01 1.652E+01 8.784E+01 9.121E+01 1.232E+06 21.8131 1.00000
  3.500E+07 3.500E+07 3.387E+00 3.500E+01 4.836E+01 1.958E+01 1.029E+02 1.063E+02 1.282E+06 22.1214 1.00000
  4.000E+07 4.000E+07 3.405E+00 4.009E+01 5.533E+01 2.270E+01 1.181E+02 1.215E+02 1.327E+06 22.3885 1.00000
  4.500E+07 4.500E+07 3.420E+00 4.517E+01 6.230E+01 2.586E+01 1.333E+02 1.368E+02 1.365E+06 22.6240 1.00000
  5.000E+07 5.000E+07 3.434E+00 5.027E+01 6.927E+01 2.906E+01 1.486E+02 1.520E+02 1.400E+06 22.8347 1.00000
  5.500E+07 5.500E+07 3.447E+00 5.536E+01 7.623E+01 3.229E+01 1.639E+02 1.673E+02 1.431E+06 23.0254 1.00000
  6.000E+07 6.000E+07 3.458E+00 6.046E+01 8.320E+01 3.556E+01 1.792E+02 1.827E+02 1.460E+06 23.1994 1.00000
  7.000E+07 7.000E+07 3.479E+00 7.065E+01 9.715E+01 4.218E+01 2.100E+02 2.135E+02 1.511E+06 23.5077 1.00000
  8.000E+07 8.000E+07 3.497E+00 8.085E+01 1.111E+02 4.891E+01 2.409E+02 2.444E+02 1.555E+06 23.7748 1.00000
  9.000E+07 9.000E+07 3.513E+00 9.106E+01 1.250E+02 5.574E+01 2.718E+02 2.754E+02 1.593E+06 24.0103 1.00000
  1.000E+08 1.000E+08 3.528E+00 1.013E+02 1.390E+02 6.265E+01 3.029E+02 3.064E+02 1.628E+06 24.2210 1.00000
  1.200E+08 1.200E+08 3.553E+00 1.217E+02 1.669E+02 7.671E+01 3.653E+02 3.688E+02 1.688E+06 24.5857 1.00000
  1.400E+08 1.400E+08 3.574E+00 1.421E+02 1.948E+02 9.104E+01 4.279E+02 4.315E+02 1.738E+06 24.8940 1.00000
  1.700E+08 1.700E+08 3.602E+00 1.728E+02 2.366E+02 1.130E+02 5.224E+02 5.260E+02 1.801E+06 25.2823 1.00000
  2.000E+08 2.000E+08 3.625E+00 2.035E+02 2.785E+02 1.353E+02 6.173E+02 6.209E+02 1.854E+06 25.6073 1.00000
  2.500E+08 2.500E+08 3.656E+00 2.546E+02 3.482E+02 1.735E+02 7.763E+02 7.800E+02 1.926E+06 26.0536 1.00000
  3.000E+08 3.000E+08 3.683E+00 3.057E+02 4.180E+02 2.125E+02 9.362E+02 9.399E+02 1.985E+06 26.4183 1.00000
  3.500E+08 3.500E+08 3.705E+00 3.569E+02 4.878E+02 2.523E+02 1.097E+03 1.101E+03 2.034E+06 26.7266 1.00000
  4.000E+08 4.000E+08 3.725E+00 4.080E+02 5.575E+02 2.927E+02 1.258E+03 1.262E+03 2.077E+06 26.9936 1.00000
  4.500E+08 4.500E+08 3.742E+00 4.592E+02 6.273E+02 3.338E+02 1.420E+03 1.424E+03 2.114E+06 27.2292 1.00000
  5.000E+08 5.000E+08 3.758E+00 5.104E+02 6.971E+02 3.754E+02 1.583E+03 1.587E+03 2.147E+06 27.4399 1.00000
  5.500E+08 5.500E+08 3.772E+00 5.615E+02 7.668E+02 4.174E+02 1.746E+03 1.750E+03 2.177E+06 27.6305 1.00000
  6.000E+08 6.000E+08 3.785E+00 6.127E+02 8.366E+02 4.600E+02 1.909E+03 1.913E+03 2.205E+06 27.8046 1.00000
  7.000E+08 7.000E+08 3.808E+00 7.151E+02 9.761E+02 5.463E+02 2.237E+03 2.241E+03 2.253E+06 28.1129 1.00000
  8.000E+08 8.000E+08 3.828E+00 8.174E+02 1.116E+03 6.340E+02 2.567E+03 2.571E+03 2.295E+06 28.3799 1.00000
  9.000E+08 9.000E+08 3.846E+00 9.198E+02 1.255E+03 7.231E+02 2.898E+03 2.902E+03 2.332E+06 28.6155 1.00000
  1.000E+09 1.000E+09 3.862E+00 1.022E+03 1.395E+03 8.133E+02 3.230E+03 3.234E+03 2.364E+06 28.8262 1.00000
