 Incident particle is a Muon with M = 105.65839 MeV
 Index = 0: PolyimideFilm
      Absorber with <Z/A> = 0.51263
 Sternheimer coef:  a     k=m_s   x_0    x_1    I[eV]   Cbar  delta0
                 0.1597  3.1921  0.1509  2.5631   79.6  3.3497 0.00

 *** Table generated with PUMAS v1.00 ***

      T         p     Ionization  brems     pair     photonuc  Radloss    dE/dx   CSDA Range  delta   beta
    [MeV]    [MeV/c]  -----------------------[MeV cm^2/g]------------------------  [g/cm^2]
  1.000E+00 1.457E+01 4.617E+01 6.955E-07 0.000E+00 0.000E+00 6.955E-07 4.617E+01 1.083E-02  0.0000 0.13661
  1.200E+00 1.597E+01 3.985E+01 7.968E-07 0.000E+00 0.000E+00 7.968E-07 3.985E+01 1.550E-02  0.0000 0.14944
  1.400E+00 1.726E+01 3.517E+01 8.936E-07 0.000E+00 0.000E+00 8.936E-07 3.517E+01 2.086E-02  0.0000 0.16119
  1.700E+00 1.903E+01 3.004E+01 1.032E-06 0.000E+00 0.000E+00 1.032E-06 3.004E+01 3.011E-02  0.0000 0.17725
  2.000E+00 2.066E+01 2.632E+01 1.163E-06 0.000E+00 0.000E+00 1.163E-06 2.632E+01 4.081E-02  0.0000 0.19186
  2.500E+00 2.312E+01 2.195E+01 1.368E-06 0.000E+00 0.000E+00 1.368E-06 2.195E+01 6.170E-02  0.0000 0.21376
  3.000E+00 2.536E+01 1.892E+01 1.561E-06 0.000E+00 0.000E+00 1.561E-06 1.892E+01 8.630E-02  0.0000 0.23336
  3.500E+00 2.742E+01 1.670E+01 1.742E-06 0.000E+00 0.000E+00 1.742E-06 1.670E+01 1.145E-01  0.0000 0.25120
  4.000E+00 2.935E+01 1.499E+01 1.915E-06 0.000E+00 0.000E+00 1.915E-06 1.499E+01 1.461E-01  0.0000 0.26763
  4.500E+00 3.116E+01 1.364E+01 2.080E-06 0.000E+00 0.000E+00 2.080E-06 1.364E+01 1.811E-01  0.0000 0.28290
  5.000E+00 3.289E+01 1.253E+01 2.238E-06 0.000E+00 0.000E+00 2.238E-06 1.253E+01 2.194E-01  0.0000 0.29720
  5.500E+00 3.453E+01 1.162E+01 2.390E-06 0.000E+00 0.000E+00 2.390E-06 1.162E+01 2.609E-01  0.0000 0.31066
  6.000E+00 3.611E+01 1.084E+01 2.537E-06 0.000E+00 0.000E+00 2.537E-06 1.084E+01 3.055E-01  0.0000 0.32339
  7.000E+00 3.909E+01 9.604E+00 2.817E-06 0.000E+00 0.000E+00 2.817E-06 9.604E+00 4.036E-01  0.0000 0.34700
  8.000E+00 4.189E+01 8.656E+00 3.080E-06 0.000E+00 0.000E+00 3.080E-06 8.656E+00 5.135E-01  0.0000 0.36854
  9.000E+00 4.453E+01 7.907E+00 3.331E-06 0.000E+00 0.000E+00 3.331E-06 7.907E+00 6.345E-01  0.0000 0.38836
  1.000E+01 4.704E+01 7.299E+00 3.570E-06 0.000E+00 0.000E+00 3.570E-06 7.299E+00 7.662E-01  0.0000 0.40675
  1.200E+01 5.177E+01 6.371E+00 4.019E-06 0.000E+00 0.000E+00 4.019E-06 6.371E+00 1.060E+00  0.0000 0.43998
  1.400E+01 5.616E+01 5.695E+00 4.439E-06 0.000E+00 0.000E+00 4.439E-06 5.695E+00 1.393E+00  0.0000 0.46937
  1.700E+01 6.230E+01 4.967E+00 5.024E-06 0.000E+00 0.000E+00 5.024E-06 4.967E+00 1.958E+00  0.0000 0.50792
  2.000E+01 6.802E+01 4.449E+00 5.570E-06 0.000E+00 0.000E+00 5.570E-06 4.449E+00 2.597E+00  0.0000 0.54129
  2.500E+01 7.686E+01 3.854E+00 6.417E-06 0.000E+00 0.000E+00 6.417E-06 3.854E+00 3.808E+00  0.0000 0.58827
  3.000E+01 8.509E+01 3.452E+00 7.211E-06 0.000E+00 0.000E+00 7.211E-06 3.452E+00 5.181E+00  0.0000 0.62720
  3.500E+01 9.285E+01 3.165E+00 7.970E-06 0.000E+00 0.000E+00 7.970E-06 3.165E+00 6.695E+00  0.0000 0.66011
  4.000E+01 1.003E+02 2.949E+00 8.706E-06 0.000E+00 0.000E+00 8.706E-06 2.949E+00 8.333E+00  0.0000 0.68834
  4.500E+01 1.074E+02 2.781E+00 9.427E-06 0.000E+00 0.000E+00 9.427E-06 2.781E+00 1.008E+01  0.0000 0.71286
  5.000E+01 1.143E+02 2.648E+00 1.014E-05 0.000E+00 0.000E+00 1.014E-05 2.648E+00 1.192E+01  0.0000 0.73434
  5.500E+01 1.210E+02 2.540E+00 1.084E-05 0.000E+00 0.000E+00 1.084E-05 2.540E+00 1.385E+01  0.0000 0.75332
  6.000E+01 1.276E+02 2.451E+00 1.155E-05 0.000E+00 0.000E+00 1.155E-05 2.451E+00 1.585E+01  0.0000 0.77019
  7.000E+01 1.403E+02 2.314E+00 1.295E-05 0.000E+00 0.000E+00 1.295E-05 2.314E+00 2.005E+01  0.0000 0.79887
  8.000E+01 1.527E+02 2.214E+00 1.436E-05 0.000E+00 0.000E+00 1.436E-05 2.214E+00 2.447E+01  0.0097 0.82227
  9.000E+01 1.647E+02 2.135E+00 1.580E-05 0.000E+00 0.000E+00 1.580E-05 2.135E+00 2.907E+01  0.0483 0.84166
  1.000E+02 1.764E+02 2.074E+00 1.725E-05 0.000E+00 0.000E+00 1.725E-05 2.074E+00 3.383E+01  0.0864 0.85794
  1.200E+02 1.994E+02 1.988E+00 2.022E-05 0.000E+00 0.000E+00 2.022E-05 1.988E+00 4.368E+01  0.1607 0.88361
  1.400E+02 2.218E+02 1.932E+00 2.330E-05 0.000E+00 0.000E+00 2.330E-05 1.932E+00 5.388E+01  0.2322 0.90278
  1.700E+02 2.546E+02 1.880E+00 2.812E-05 4.125E-14 0.000E+00 2.812E-05 1.880E+00 6.963E+01  0.3342 0.92363
  2.000E+02 2.868E+02 1.851E+00 3.317E-05 9.217E-12 0.000E+00 3.317E-05 1.851E+00 8.571E+01  0.4305 0.93835
  2.500E+02 3.396E+02 1.827E+00 4.207E-05 7.601E-08 0.000E+00 4.215E-05 1.827E+00 1.129E+02  0.5796 0.95485
  3.000E+02 3.917E+02 1.820E+00 5.155E-05 6.704E-07 0.000E+00 5.222E-05 1.820E+00 1.403E+02  0.7165 0.96548
  3.500E+02 4.432E+02 1.821E+00 6.154E-05 1.841E-06 0.000E+00 6.338E-05 1.821E+00 1.678E+02  0.8432 0.97274
  4.000E+02 4.945E+02 1.826E+00 7.201E-05 3.562E-06 0.000E+00 7.557E-05 1.827E+00 1.952E+02  0.9612 0.97793
  4.500E+02 5.455E+02 1.834E+00 8.292E-05 5.813E-06 0.000E+00 8.873E-05 1.834E+00 2.225E+02  1.0717 0.98176
  5.000E+02 5.964E+02 1.842E+00 9.423E-05 8.574E-06 0.000E+00 1.028E-04 1.843E+00 2.497E+02  1.1757 0.98467
  5.500E+02 6.471E+02 1.852E+00 1.059E-04 1.183E-05 0.000E+00 1.178E-04 1.852E+00 2.768E+02  1.2739 0.98693
  6.000E+02 6.977E+02 1.861E+00 1.180E-04 1.556E-05 0.000E+00 1.335E-04 1.861E+00 3.037E+02  1.3670 0.98873
  7.000E+02 7.987E+02 1.879E+00 1.430E-04 2.438E-05 0.000E+00 1.674E-04 1.880E+00 3.572E+02  1.5398 0.99136
  8.000E+02 8.995E+02 1.897E+00 1.693E-04 3.493E-05 0.000E+00 2.042E-04 1.897E+00 4.101E+02  1.6977 0.99317
  9.000E+02 1.000E+03 1.913E+00 1.967E-04 4.709E-05 0.000E+00 2.437E-04 1.914E+00 4.626E+02  1.8431 0.99447
  1.000E+03 1.101E+03 1.929E+00 2.250E-04 6.076E-05 0.000E+00 2.857E-04 1.929E+00 5.147E+02  1.9779 0.99542
  1.200E+03 1.301E+03 1.957E+00 2.843E-04 9.230E-05 2.256E-05 3.992E-04 1.957E+00 6.176E+02  2.2216 0.99672
  1.400E+03 1.502E+03 1.981E+00 3.468E-04 1.289E-04 6.180E-05 5.375E-04 1.981E+00 7.192E+02  2.4375 0.99753
  1.700E+03 1.803E+03 2.012E+00 4.456E-04 1.924E-04 1.326E-04 7.706E-04 2.013E+00 8.694E+02  2.7217 0.99829
  2.000E+03 2.103E+03 2.038E+00 5.497E-04 2.650E-04 2.163E-04 1.031E-03 2.039E+00 1.018E+03  2.9696 0.99874
  2.500E+03 2.604E+03 2.074E+00 7.333E-04 4.034E-04 3.785E-04 1.515E-03 2.075E+00 1.261E+03  3.3238 0.99918
  3.000E+03 3.104E+03 2.103E+00 9.275E-04 5.606E-04 5.494E-04 2.037E-03 2.105E+00 1.500E+03  3.6241 0.99942
  3.500E+03 3.604E+03 2.127E+00 1.131E-03 7.339E-04 7.309E-04 2.596E-03 2.130E+00 1.736E+03  3.8852 0.99957
  4.000E+03 4.104E+03 2.148E+00 1.342E-03 9.357E-04 9.252E-04 3.203E-03 2.151E+00 1.970E+03  4.1162 0.99967
  4.500E+03 4.604E+03 2.166E+00 1.560E-03 1.157E-03 1.128E-03 3.845E-03 2.170E+00 2.201E+03  4.3234 0.99974
  5.000E+03 5.105E+03 2.182E+00 1.785E-03 1.391E-03 1.323E-03 4.498E-03 2.186E+00 2.431E+03  4.5115 0.99979
  5.500E+03 5.605E+03 2.196E+00 2.015E-03 1.637E-03 1.533E-03 5.185E-03 2.201E+00 2.659E+03  4.6836 0.99982
  6.000E+03 6.105E+03 2.209E+00 2.251E-03 1.894E-03 1.729E-03 5.874E-03 2.215E+00 2.885E+03  4.8423 0.99985
  7.000E+03 7.105E+03 2.232E+00 2.736E-03 2.438E-03 2.145E-03 7.320E-03 2.239E+00 3.334E+03  5.1268 0.99989
  8.000E+03 8.105E+03 2.251E+00 3.238E-03 3.019E-03 2.560E-03 8.816E-03 2.259E+00 3.779E+03  5.3766 0.99992
  9.000E+03 9.105E+03 2.267E+00 3.755E-03 3.630E-03 2.950E-03 1.033E-02 2.278E+00 4.219E+03  5.5992 0.99993
  1.000E+04 1.011E+04 2.282E+00 4.285E-03 4.270E-03 3.353E-03 1.191E-02 2.294E+00 4.657E+03  5.7999 0.99995
  1.200E+04 1.211E+04 2.307E+00 5.381E-03 5.622E-03 4.173E-03 1.518E-02 2.322E+00 5.524E+03  6.1506 0.99996
  1.400E+04 1.411E+04 2.327E+00 6.517E-03 7.059E-03 4.995E-03 1.857E-02 2.346E+00 6.381E+03  6.4499 0.99997
  1.700E+04 1.711E+04 2.352E+00 8.284E-03 9.347E-03 6.217E-03 2.385E-02 2.376E+00 7.652E+03  6.8300 0.99998
  2.000E+04 2.011E+04 2.373E+00 1.012E-02 1.177E-02 7.418E-03 2.930E-02 2.402E+00 8.907E+03  7.1502 0.99999
  2.500E+04 2.511E+04 2.400E+00 1.329E-02 1.604E-02 9.395E-03 3.872E-02 2.439E+00 1.097E+04  7.5923 0.99999
  3.000E+04 3.011E+04 2.422E+00 1.658E-02 2.056E-02 1.134E-02 4.848E-02 2.470E+00 1.301E+04  7.9549 0.99999
  3.500E+04 3.511E+04 2.440E+00 1.997E-02 2.527E-02 1.331E-02 5.856E-02 2.498E+00 1.502E+04  8.2621 1.00000
  4.000E+04 4.011E+04 2.455E+00 2.345E-02 3.015E-02 1.526E-02 6.887E-02 2.524E+00 1.701E+04  8.5284 1.00000
  4.500E+04 4.511E+04 2.469E+00 2.701E-02 3.518E-02 1.719E-02 7.937E-02 2.548E+00 1.899E+04  8.7634 1.00000
  5.000E+04 5.011E+04 2.481E+00 3.062E-02 4.032E-02 1.912E-02 9.006E-02 2.571E+00 2.094E+04  8.9737 1.00000
  5.500E+04 5.511E+04 2.491E+00 3.430E-02 4.558E-02 2.106E-02 1.009E-01 2.592E+00 2.288E+04  9.1639 1.00000
  6.000E+04 6.011E+04 2.501E+00 3.803E-02 5.093E-02 2.299E-02 1.119E-01 2.613E+00 2.480E+04  9.3376 1.00000
  7.000E+04 7.011E+04 2.518E+00 4.562E-02 6.188E-02 2.681E-02 1.343E-01 2.652E+00 2.860E+04  9.6454 1.00000
  8.000E+04 8.011E+04 2.533E+00 5.338E-02 7.312E-02 3.065E-02 1.572E-01 2.690E+00 3.234E+04  9.9121 1.00000
  9.000E+04 9.011E+04 2.546E+00 6.128E-02 8.460E-02 3.450E-02 1.804E-01 2.726E+00 3.603E+04 10.1474 1.00000
  1.000E+05 1.001E+05 2.557E+00 6.930E-02 9.629E-02 3.827E-02 2.039E-01 2.761E+00 3.968E+04 10.3578 1.00000
  1.200E+05 1.201E+05 2.576E+00 8.564E-02 1.202E-01 4.597E-02 2.518E-01 2.828E+00 4.684E+04 10.7221 1.00000
  1.400E+05 1.401E+05 2.593E+00 1.023E-01 1.446E-01 5.367E-02 3.007E-01 2.893E+00 5.383E+04 11.0302 1.00000
  1.700E+05 1.701E+05 2.613E+00 1.279E-01 1.822E-01 6.525E-02 3.753E-01 2.989E+00 6.403E+04 11.4182 1.00000
  2.000E+05 2.001E+05 2.630E+00 1.540E-01 2.205E-01 7.690E-02 4.514E-01 3.082E+00 7.392E+04 11.7431 1.00000
  2.500E+05 2.501E+05 2.654E+00 1.984E-01 2.856E-01 9.639E-02 5.805E-01 3.234E+00 8.976E+04 12.1892 1.00000
  3.000E+05 3.001E+05 2.673E+00 2.438E-01 3.520E-01 1.160E-01 7.119E-01 3.385E+00 1.049E+05 12.5537 1.00000
  3.500E+05 3.501E+05 2.689E+00 2.899E-01 4.194E-01 1.359E-01 8.452E-01 3.534E+00 1.193E+05 12.8619 1.00000
  4.000E+05 4.001E+05 2.703E+00 3.365E-01 4.875E-01 1.560E-01 9.800E-01 3.683E+00 1.332E+05 13.1288 1.00000
  4.500E+05 4.501E+05 2.715E+00 3.837E-01 5.562E-01 1.761E-01 1.116E+00 3.831E+00 1.465E+05 13.3644 1.00000
  5.000E+05 5.001E+05 2.727E+00 4.313E-01 6.255E-01 1.964E-01 1.253E+00 3.980E+00 1.593E+05 13.5750 1.00000
  5.500E+05 5.501E+05 2.737E+00 4.793E-01 6.951E-01 2.165E-01 1.391E+00 4.128E+00 1.717E+05 13.7656 1.00000
  6.000E+05 6.001E+05 2.746E+00 5.276E-01 7.652E-01 2.368E-01 1.530E+00 4.275E+00 1.836E+05 13.9396 1.00000
  7.000E+05 7.001E+05 2.762E+00 6.251E-01 9.062E-01 2.778E-01 1.809E+00 4.571E+00 2.062E+05 14.2479 1.00000
  8.000E+05 8.001E+05 2.776E+00 7.236E-01 1.048E+00 3.191E-01 2.091E+00 4.867E+00 2.274E+05 14.5149 1.00000
  9.000E+05 9.001E+05 2.789E+00 8.229E-01 1.191E+00 3.609E-01 2.375E+00 5.164E+00 2.474E+05 14.7504 1.00000
  1.000E+06 1.000E+06 2.800E+00 9.228E-01 1.335E+00 4.031E-01 2.660E+00 5.461E+00 2.662E+05 14.9611 1.00000
  1.200E+06 1.200E+06 2.820E+00 1.124E+00 1.623E+00 4.884E-01 3.236E+00 6.056E+00 3.010E+05 15.3257 1.00000
  1.400E+06 1.400E+06 2.837E+00 1.328E+00 1.913E+00 5.750E-01 3.816E+00 6.653E+00 3.326E+05 15.6340 1.00000
  1.700E+06 1.700E+06 2.858E+00 1.636E+00 2.351E+00 7.070E-01 4.694E+00 7.552E+00 3.750E+05 16.0223 1.00000
  2.000E+06 2.000E+06 2.876E+00 1.946E+00 2.791E+00 8.410E-01 5.578E+00 8.454E+00 4.126E+05 16.3473 1.00000
  2.500E+06 2.500E+06 2.900E+00 2.467E+00 3.528E+00 1.069E+00 7.064E+00 9.964E+00 4.672E+05 16.7936 1.00000
  3.000E+06 3.000E+06 2.921E+00 2.993E+00 4.267E+00 1.301E+00 8.561E+00 1.148E+01 5.141E+05 17.1582 1.00000
  3.500E+06 3.500E+06 2.938E+00 3.521E+00 5.009E+00 1.536E+00 1.007E+01 1.300E+01 5.551E+05 17.4665 1.00000
  4.000E+06 4.000E+06 2.953E+00 4.052E+00 5.752E+00 1.776E+00 1.158E+01 1.453E+01 5.915E+05 17.7335 1.00000
  4.500E+06 4.500E+06 2.966E+00 4.585E+00 6.497E+00 2.018E+00 1.310E+01 1.607E+01 6.243E+05 17.9691 1.00000
  5.000E+06 5.000E+06 2.978E+00 5.119E+00 7.243E+00 2.263E+00 1.462E+01 1.760E+01 6.541E+05 18.1798 1.00000
  5.500E+06 5.500E+06 2.989E+00 5.655E+00 7.989E+00 2.510E+00 1.615E+01 1.914E+01 6.813E+05 18.3704 1.00000
  6.000E+06 6.000E+06 2.999E+00 6.192E+00 8.736E+00 2.760E+00 1.769E+01 2.069E+01 7.065E+05 18.5445 1.00000
  7.000E+06 7.000E+06 3.017E+00 7.268E+00 1.023E+01 3.266E+00 2.077E+01 2.378E+01 7.517E+05 18.8527 1.00000
  8.000E+06 8.000E+06 3.032E+00 8.348E+00 1.173E+01 3.779E+00 2.386E+01 2.689E+01 7.913E+05 19.1198 1.00000
  9.000E+06 9.000E+06 3.046E+00 9.430E+00 1.323E+01 4.299E+00 2.696E+01 3.000E+01 8.265E+05 19.3554 1.00000
  1.000E+07 1.000E+07 3.059E+00 1.051E+01 1.473E+01 4.825E+00 3.007E+01 3.313E+01 8.583E+05 19.5661 1.00000
  1.200E+07 1.200E+07 3.080E+00 1.269E+01 1.773E+01 5.894E+00 3.631E+01 3.939E+01 9.139E+05 19.9307 1.00000
  1.400E+07 1.400E+07 3.098E+00 1.487E+01 2.074E+01 6.981E+00 4.259E+01 4.569E+01 9.611E+05 20.2390 1.00000
  1.700E+07 1.700E+07 3.122E+00 1.814E+01 2.525E+01 8.644E+00 5.204E+01 5.516E+01 1.021E+06 20.6273 1.00000
  2.000E+07 2.000E+07 3.141E+00 2.142E+01 2.977E+01 1.034E+01 6.153E+01 6.467E+01 1.072E+06 20.9524 1.00000
  2.500E+07 2.500E+07 3.169E+00 2.690E+01 3.730E+01 1.322E+01 7.742E+01 8.059E+01 1.141E+06 21.3987 1.00000
  3.000E+07 3.000E+07 3.191E+00 3.239E+01 4.484E+01 1.617E+01 9.339E+01 9.658E+01 1.198E+06 21.7633 1.00000
  3.500E+07 3.500E+07 3.210E+00 3.788E+01 5.238E+01 1.917E+01 1.094E+02 1.126E+02 1.246E+06 22.0716 1.00000
  4.000E+07 4.000E+07 3.227E+00 4.338E+01 5.992E+01 2.222E+01 1.255E+02 1.287E+02 1.288E+06 22.3387 1.00000
  4.500E+07 4.500E+07 3.242E+00 4.888E+01 6.746E+01 2.532E+01 1.417E+02 1.449E+02 1.325E+06 22.5742 1.00000
  5.000E+07 5.000E+07 3.255E+00 5.438E+01 7.500E+01 2.845E+01 1.578E+02 1.611E+02 1.357E+06 22.7849 1.00000
  5.500E+07 5.500E+07 3.267E+00 5.989E+01 8.255E+01 3.162E+01 1.741E+02 1.773E+02 1.387E+06 22.9756 1.00000
  6.000E+07 6.000E+07 3.278E+00 6.540E+01 9.009E+01 3.482E+01 1.903E+02 1.936E+02 1.414E+06 23.1496 1.00000
  7.000E+07 7.000E+07 3.298E+00 7.642E+01 1.052E+02 4.130E+01 2.229E+02 2.262E+02 1.462E+06 23.4579 1.00000
  8.000E+07 8.000E+07 3.315E+00 8.745E+01 1.203E+02 4.789E+01 2.556E+02 2.589E+02 1.503E+06 23.7250 1.00000
  9.000E+07 9.000E+07 3.331E+00 9.849E+01 1.354E+02 5.458E+01 2.884E+02 2.918E+02 1.540E+06 23.9605 1.00000
  1.000E+08 1.000E+08 3.344E+00 1.095E+02 1.505E+02 6.134E+01 3.213E+02 3.247E+02 1.572E+06 24.1712 1.00000
  1.200E+08 1.200E+08 3.368E+00 1.316E+02 1.807E+02 7.511E+01 3.874E+02 3.908E+02 1.629E+06 24.5359 1.00000
  1.400E+08 1.400E+08 3.389E+00 1.537E+02 2.109E+02 8.913E+01 4.537E+02 4.571E+02 1.676E+06 24.8442 1.00000
  1.700E+08 1.700E+08 3.415E+00 1.868E+02 2.562E+02 1.106E+02 5.536E+02 5.570E+02 1.736E+06 25.2325 1.00000
  2.000E+08 2.000E+08 3.437E+00 2.200E+02 3.015E+02 1.325E+02 6.540E+02 6.574E+02 1.786E+06 25.5575 1.00000
  2.500E+08 2.500E+08 3.467E+00 2.753E+02 3.770E+02 1.698E+02 8.221E+02 8.256E+02 1.854E+06 26.0038 1.00000
  3.000E+08 3.000E+08 3.492E+00 3.306E+02 4.525E+02 2.080E+02 9.911E+02 9.946E+02 1.909E+06 26.3685 1.00000
  3.500E+08 3.500E+08 3.514E+00 3.859E+02 5.281E+02 2.470E+02 1.161E+03 1.164E+03 1.956E+06 26.6768 1.00000
  4.000E+08 4.000E+08 3.532E+00 4.411E+02 6.036E+02 2.866E+02 1.331E+03 1.335E+03 1.996E+06 26.9438 1.00000
  4.500E+08 4.500E+08 3.549E+00 4.965E+02 6.791E+02 3.268E+02 1.502E+03 1.506E+03 2.031E+06 27.1794 1.00000
  5.000E+08 5.000E+08 3.564E+00 5.518E+02 7.546E+02 3.675E+02 1.674E+03 1.677E+03 2.063E+06 27.3901 1.00000
  5.500E+08 5.500E+08 3.577E+00 6.071E+02 8.301E+02 4.087E+02 1.846E+03 1.849E+03 2.091E+06 27.5807 1.00000
  6.000E+08 6.000E+08 3.590E+00 6.624E+02 9.057E+02 4.503E+02 2.018E+03 2.022E+03 2.117E+06 27.7548 1.00000
  7.000E+08 7.000E+08 3.612E+00 7.730E+02 1.057E+03 5.348E+02 2.365E+03 2.368E+03 2.163E+06 28.0631 1.00000
  8.000E+08 8.000E+08 3.631E+00 8.836E+02 1.208E+03 6.207E+02 2.712E+03 2.716E+03 2.203E+06 28.3301 1.00000
  9.000E+08 9.000E+08 3.648E+00 9.943E+02 1.359E+03 7.079E+02 3.061E+03 3.065E+03 2.237E+06 28.5657 1.00000
  1.000E+09 1.000E+09 3.663E+00 1.105E+03 1.510E+03 7.963E+02 3.411E+03 3.415E+03 2.268E+06 28.7764 1.00000
