 Incident particle is a Muon with M = 105.65839 MeV
 Index = 0: PolyvinylButyral
      Absorber with <Z/A> = 0.54530
 Sternheimer coef:  a     k=m_s   x_0    x_1    I[eV]   Cbar  delta0
                 0.1154  3.3983  0.1555  2.6186   67.2  3.1865 0.00

 *** Table generated with PUMAS v1.00 ***

      T         p     Ionization  brems     pair     photonuc  Radloss    dE/dx   CSDA Range  delta   beta
    [MeV]    [MeV/c]  -----------------------[MeV cm^2/g]------------------------  [g/cm^2]
  1.000E+00 1.457E+01 5.064E+01 6.693E-07 0.000E+00 0.000E+00 6.693E-07 5.064E+01 9.874E-03  0.0000 0.13661
  1.200E+00 1.597E+01 4.366E+01 7.662E-07 0.000E+00 0.000E+00 7.662E-07 4.366E+01 1.414E-02  0.0000 0.14944
  1.400E+00 1.726E+01 3.851E+01 8.587E-07 0.000E+00 0.000E+00 8.587E-07 3.851E+01 1.903E-02  0.0000 0.16119
  1.700E+00 1.903E+01 3.286E+01 9.909E-07 0.000E+00 0.000E+00 9.909E-07 3.286E+01 2.749E-02  0.0000 0.17725
  2.000E+00 2.066E+01 2.877E+01 1.116E-06 0.000E+00 0.000E+00 1.116E-06 2.877E+01 3.727E-02  0.0000 0.19186
  2.500E+00 2.312E+01 2.397E+01 1.313E-06 0.000E+00 0.000E+00 1.313E-06 2.397E+01 5.639E-02  0.0000 0.21376
  3.000E+00 2.536E+01 2.065E+01 1.497E-06 0.000E+00 0.000E+00 1.497E-06 2.065E+01 7.893E-02  0.0000 0.23336
  3.500E+00 2.742E+01 1.821E+01 1.671E-06 0.000E+00 0.000E+00 1.671E-06 1.821E+01 1.048E-01  0.0000 0.25120
  4.000E+00 2.935E+01 1.634E+01 1.836E-06 0.000E+00 0.000E+00 1.836E-06 1.634E+01 1.338E-01  0.0000 0.26763
  4.500E+00 3.116E+01 1.486E+01 1.994E-06 0.000E+00 0.000E+00 1.994E-06 1.486E+01 1.659E-01  0.0000 0.28290
  5.000E+00 3.289E+01 1.365E+01 2.146E-06 0.000E+00 0.000E+00 2.146E-06 1.365E+01 2.010E-01  0.0000 0.29720
  5.500E+00 3.453E+01 1.265E+01 2.292E-06 0.000E+00 0.000E+00 2.292E-06 1.265E+01 2.391E-01  0.0000 0.31066
  6.000E+00 3.611E+01 1.180E+01 2.432E-06 0.000E+00 0.000E+00 2.432E-06 1.180E+01 2.800E-01  0.0000 0.32339
  7.000E+00 3.909E+01 1.045E+01 2.701E-06 0.000E+00 0.000E+00 2.701E-06 1.045E+01 3.702E-01  0.0000 0.34700
  8.000E+00 4.189E+01 9.417E+00 2.954E-06 0.000E+00 0.000E+00 2.954E-06 9.417E+00 4.712E-01  0.0000 0.36854
  9.000E+00 4.453E+01 8.599E+00 3.194E-06 0.000E+00 0.000E+00 3.194E-06 8.599E+00 5.824E-01  0.0000 0.38836
  1.000E+01 4.704E+01 7.935E+00 3.423E-06 0.000E+00 0.000E+00 3.423E-06 7.935E+00 7.036E-01  0.0000 0.40675
  1.200E+01 5.177E+01 6.923E+00 3.855E-06 0.000E+00 0.000E+00 3.855E-06 6.923E+00 9.740E-01  0.0000 0.43998
  1.400E+01 5.616E+01 6.187E+00 4.257E-06 0.000E+00 0.000E+00 4.257E-06 6.187E+00 1.280E+00  0.0000 0.46937
  1.700E+01 6.230E+01 5.393E+00 4.819E-06 0.000E+00 0.000E+00 4.819E-06 5.393E+00 1.801E+00  0.0000 0.50792
  2.000E+01 6.802E+01 4.829E+00 5.343E-06 0.000E+00 0.000E+00 5.343E-06 4.829E+00 2.389E+00  0.0000 0.54129
  2.500E+01 7.686E+01 4.181E+00 6.158E-06 0.000E+00 0.000E+00 6.158E-06 4.181E+00 3.505E+00  0.0000 0.58827
  3.000E+01 8.509E+01 3.745E+00 6.921E-06 0.000E+00 0.000E+00 6.921E-06 3.745E+00 4.771E+00  0.0000 0.62720
  3.500E+01 9.285E+01 3.431E+00 7.650E-06 0.000E+00 0.000E+00 7.650E-06 3.431E+00 6.167E+00  0.0000 0.66011
  4.000E+01 1.003E+02 3.196E+00 8.358E-06 0.000E+00 0.000E+00 8.358E-06 3.196E+00 7.677E+00  0.0000 0.68834
  4.500E+01 1.074E+02 3.014E+00 9.050E-06 0.000E+00 0.000E+00 9.050E-06 3.014E+00 9.289E+00  0.0000 0.71286
  5.000E+01 1.143E+02 2.870E+00 9.733E-06 0.000E+00 0.000E+00 9.733E-06 2.870E+00 1.099E+01  0.0000 0.73434
  5.500E+01 1.210E+02 2.752E+00 1.041E-05 0.000E+00 0.000E+00 1.041E-05 2.752E+00 1.277E+01  0.0000 0.75332
  6.000E+01 1.276E+02 2.655E+00 1.109E-05 0.000E+00 0.000E+00 1.109E-05 2.655E+00 1.462E+01  0.0000 0.77019
  7.000E+01 1.403E+02 2.506E+00 1.244E-05 0.000E+00 0.000E+00 1.244E-05 2.506E+00 1.850E+01  0.0000 0.79887
  8.000E+01 1.527E+02 2.397E+00 1.379E-05 0.000E+00 0.000E+00 1.379E-05 2.397E+00 2.258E+01  0.0041 0.82227
  9.000E+01 1.647E+02 2.311E+00 1.517E-05 0.000E+00 0.000E+00 1.517E-05 2.311E+00 2.683E+01  0.0458 0.84166
  1.000E+02 1.764E+02 2.245E+00 1.656E-05 0.000E+00 0.000E+00 1.656E-05 2.245E+00 3.122E+01  0.0868 0.85794
  1.200E+02 1.994E+02 2.151E+00 1.942E-05 0.000E+00 0.000E+00 1.942E-05 2.151E+00 4.032E+01  0.1666 0.88361
  1.400E+02 2.218E+02 2.089E+00 2.238E-05 0.000E+00 0.000E+00 2.238E-05 2.089E+00 4.976E+01  0.2430 0.90278
  1.700E+02 2.546E+02 2.032E+00 2.700E-05 3.945E-14 0.000E+00 2.700E-05 2.032E+00 6.432E+01  0.3518 0.92363
  2.000E+02 2.868E+02 1.999E+00 3.185E-05 8.814E-12 0.000E+00 3.185E-05 1.999E+00 7.921E+01  0.4540 0.93835
  2.500E+02 3.396E+02 1.972E+00 4.040E-05 7.263E-08 0.000E+00 4.047E-05 1.972E+00 1.044E+02  0.6118 0.95485
  3.000E+02 3.917E+02 1.963E+00 4.949E-05 6.395E-07 0.000E+00 5.013E-05 1.963E+00 1.298E+02  0.7562 0.96548
  3.500E+02 4.432E+02 1.963E+00 5.909E-05 1.755E-06 0.000E+00 6.084E-05 1.963E+00 1.553E+02  0.8895 0.97274
  4.000E+02 4.945E+02 1.968E+00 6.913E-05 3.395E-06 0.000E+00 7.253E-05 1.968E+00 1.807E+02  1.0134 0.97793
  4.500E+02 5.455E+02 1.975E+00 7.960E-05 5.539E-06 0.000E+00 8.514E-05 1.975E+00 2.061E+02  1.1291 0.98176
  5.000E+02 5.964E+02 1.984E+00 9.046E-05 8.170E-06 0.000E+00 9.863E-05 1.984E+00 2.313E+02  1.2378 0.98467
  5.500E+02 6.471E+02 1.993E+00 1.017E-04 1.127E-05 0.000E+00 1.130E-04 1.993E+00 2.565E+02  1.3403 0.98693
  6.000E+02 6.977E+02 2.002E+00 1.132E-04 1.482E-05 0.000E+00 1.281E-04 2.003E+00 2.815E+02  1.4373 0.98873
  7.000E+02 7.987E+02 2.021E+00 1.373E-04 2.323E-05 0.000E+00 1.605E-04 2.022E+00 3.312E+02  1.6172 0.99136
  8.000E+02 8.995E+02 2.040E+00 1.625E-04 3.327E-05 0.000E+00 1.958E-04 2.040E+00 3.805E+02  1.7811 0.99317
  9.000E+02 1.000E+03 2.057E+00 1.888E-04 4.485E-05 0.000E+00 2.336E-04 2.057E+00 4.293E+02  1.9318 0.99447
  1.000E+03 1.101E+03 2.073E+00 2.160E-04 5.788E-05 0.000E+00 2.738E-04 2.073E+00 4.777E+02  2.0713 0.99542
  1.200E+03 1.301E+03 2.101E+00 2.729E-04 8.792E-05 2.257E-05 3.834E-04 2.102E+00 5.735E+02  2.3230 0.99672
  1.400E+03 1.502E+03 2.126E+00 3.329E-04 1.228E-04 6.186E-05 5.176E-04 2.127E+00 6.681E+02  2.5454 0.99753
  1.700E+03 1.803E+03 2.159E+00 4.278E-04 1.833E-04 1.329E-04 7.439E-04 2.159E+00 8.081E+02  2.8374 0.99829
  2.000E+03 2.103E+03 2.186E+00 5.278E-04 2.524E-04 2.169E-04 9.971E-04 2.187E+00 9.462E+02  3.0915 0.99874
  2.500E+03 2.604E+03 2.223E+00 7.041E-04 3.842E-04 3.799E-04 1.468E-03 2.225E+00 1.173E+03  3.4536 0.99918
  3.000E+03 3.104E+03 2.254E+00 8.908E-04 5.339E-04 5.519E-04 1.977E-03 2.256E+00 1.396E+03  3.7598 0.99942
  3.500E+03 3.604E+03 2.279E+00 1.086E-03 6.990E-04 7.348E-04 2.520E-03 2.282E+00 1.616E+03  4.0253 0.99957
  4.000E+03 4.104E+03 2.301E+00 1.289E-03 8.928E-04 9.308E-04 3.113E-03 2.304E+00 1.834E+03  4.2599 0.99967
  4.500E+03 4.604E+03 2.320E+00 1.499E-03 1.106E-03 1.135E-03 3.740E-03 2.324E+00 2.051E+03  4.4701 0.99974
  5.000E+03 5.105E+03 2.337E+00 1.715E-03 1.331E-03 1.332E-03 4.378E-03 2.341E+00 2.265E+03  4.6605 0.99979
  5.500E+03 5.605E+03 2.352E+00 1.937E-03 1.568E-03 1.544E-03 5.049E-03 2.357E+00 2.478E+03  4.8346 0.99982
  6.000E+03 6.105E+03 2.365E+00 2.164E-03 1.816E-03 1.742E-03 5.722E-03 2.371E+00 2.689E+03  4.9950 0.99985
  7.000E+03 7.105E+03 2.389E+00 2.631E-03 2.341E-03 2.163E-03 7.135E-03 2.396E+00 3.109E+03  5.2822 0.99989
  8.000E+03 8.105E+03 2.409E+00 3.114E-03 2.901E-03 2.582E-03 8.597E-03 2.418E+00 3.524E+03  5.5338 0.99992
  9.000E+03 9.105E+03 2.427E+00 3.612E-03 3.491E-03 2.977E-03 1.008E-02 2.437E+00 3.936E+03  5.7579 0.99993
  1.000E+04 1.011E+04 2.442E+00 4.123E-03 4.108E-03 3.385E-03 1.162E-02 2.454E+00 4.345E+03  5.9597 0.99995
  1.200E+04 1.211E+04 2.468E+00 5.180E-03 5.414E-03 4.215E-03 1.481E-02 2.483E+00 5.155E+03  6.3119 0.99996
  1.400E+04 1.411E+04 2.490E+00 6.275E-03 6.802E-03 5.048E-03 1.813E-02 2.508E+00 5.957E+03  6.6121 0.99997
  1.700E+04 1.711E+04 2.517E+00 7.981E-03 9.013E-03 6.286E-03 2.328E-02 2.540E+00 7.145E+03  6.9929 0.99998
  2.000E+04 2.011E+04 2.538E+00 9.749E-03 1.135E-02 7.504E-03 2.861E-02 2.567E+00 8.320E+03  7.3135 0.99999
  2.500E+04 2.511E+04 2.568E+00 1.281E-02 1.549E-02 9.510E-03 3.781E-02 2.605E+00 1.025E+04  7.7557 0.99999
  3.000E+04 3.011E+04 2.591E+00 1.599E-02 1.986E-02 1.148E-02 4.733E-02 2.638E+00 1.216E+04  8.1182 0.99999
  3.500E+04 3.511E+04 2.610E+00 1.927E-02 2.442E-02 1.348E-02 5.718E-02 2.667E+00 1.405E+04  8.4253 1.00000
  4.000E+04 4.011E+04 2.627E+00 2.264E-02 2.914E-02 1.546E-02 6.725E-02 2.694E+00 1.591E+04  8.6916 1.00000
  4.500E+04 4.511E+04 2.641E+00 2.607E-02 3.401E-02 1.742E-02 7.750E-02 2.718E+00 1.776E+04  8.9266 1.00000
  5.000E+04 5.011E+04 2.654E+00 2.957E-02 3.899E-02 1.938E-02 8.795E-02 2.742E+00 1.959E+04  9.1369 1.00000
  5.500E+04 5.511E+04 2.665E+00 3.313E-02 4.408E-02 2.136E-02 9.857E-02 2.764E+00 2.141E+04  9.3271 1.00000
  6.000E+04 6.011E+04 2.675E+00 3.674E-02 4.926E-02 2.332E-02 1.093E-01 2.785E+00 2.321E+04  9.5008 1.00000
  7.000E+04 7.011E+04 2.693E+00 4.409E-02 5.987E-02 2.721E-02 1.312E-01 2.825E+00 2.678E+04  9.8086 1.00000
  8.000E+04 8.011E+04 2.709E+00 5.161E-02 7.077E-02 3.111E-02 1.535E-01 2.862E+00 3.029E+04 10.0753 1.00000
  9.000E+04 9.011E+04 2.722E+00 5.925E-02 8.189E-02 3.502E-02 1.762E-01 2.899E+00 3.376E+04 10.3106 1.00000
  1.000E+05 1.001E+05 2.735E+00 6.702E-02 9.322E-02 3.887E-02 1.991E-01 2.934E+00 3.719E+04 10.5210 1.00000
  1.200E+05 1.201E+05 2.755E+00 8.286E-02 1.164E-01 4.670E-02 2.459E-01 3.001E+00 4.393E+04 10.8853 1.00000
  1.400E+05 1.401E+05 2.773E+00 9.905E-02 1.401E-01 5.453E-02 2.937E-01 3.066E+00 5.053E+04 11.1934 1.00000
  1.700E+05 1.701E+05 2.794E+00 1.238E-01 1.765E-01 6.632E-02 3.667E-01 3.161E+00 6.016E+04 11.5814 1.00000
  2.000E+05 2.001E+05 2.813E+00 1.492E-01 2.137E-01 7.818E-02 4.410E-01 3.254E+00 6.952E+04 11.9063 1.00000
  2.500E+05 2.501E+05 2.838E+00 1.923E-01 2.770E-01 9.802E-02 5.673E-01 3.405E+00 8.455E+04 12.3524 1.00000
  3.000E+05 3.001E+05 2.858E+00 2.363E-01 3.414E-01 1.180E-01 6.958E-01 3.554E+00 9.892E+04 12.7169 1.00000
  3.500E+05 3.501E+05 2.875E+00 2.810E-01 4.069E-01 1.383E-01 8.262E-01 3.701E+00 1.127E+05 13.0251 1.00000
  4.000E+05 4.001E+05 2.890E+00 3.263E-01 4.731E-01 1.587E-01 9.580E-01 3.848E+00 1.260E+05 13.2920 1.00000
  4.500E+05 4.501E+05 2.903E+00 3.721E-01 5.398E-01 1.792E-01 1.091E+00 3.994E+00 1.387E+05 13.5276 1.00000
  5.000E+05 5.001E+05 2.915E+00 4.183E-01 6.071E-01 1.999E-01 1.225E+00 4.140E+00 1.510E+05 13.7382 1.00000
  5.500E+05 5.501E+05 2.926E+00 4.649E-01 6.748E-01 2.204E-01 1.360E+00 4.286E+00 1.629E+05 13.9288 1.00000
  6.000E+05 6.001E+05 2.936E+00 5.119E-01 7.429E-01 2.411E-01 1.496E+00 4.431E+00 1.744E+05 14.1028 1.00000
  7.000E+05 7.001E+05 2.953E+00 6.066E-01 8.800E-01 2.828E-01 1.769E+00 4.722E+00 1.962E+05 14.4111 1.00000
  8.000E+05 8.001E+05 2.968E+00 7.023E-01 1.018E+00 3.249E-01 2.045E+00 5.013E+00 2.168E+05 14.6781 1.00000
  9.000E+05 9.001E+05 2.981E+00 7.988E-01 1.157E+00 3.675E-01 2.323E+00 5.305E+00 2.362E+05 14.9136 1.00000
  1.000E+06 1.000E+06 2.993E+00 8.959E-01 1.296E+00 4.105E-01 2.603E+00 5.596E+00 2.546E+05 15.1243 1.00000
  1.200E+06 1.200E+06 3.014E+00 1.092E+00 1.577E+00 4.974E-01 3.167E+00 6.181E+00 2.886E+05 15.4889 1.00000
  1.400E+06 1.400E+06 3.032E+00 1.290E+00 1.860E+00 5.857E-01 3.735E+00 6.767E+00 3.196E+05 15.7972 1.00000
  1.700E+06 1.700E+06 3.055E+00 1.589E+00 2.286E+00 7.201E-01 4.595E+00 7.649E+00 3.613E+05 16.1855 1.00000
  2.000E+06 2.000E+06 3.074E+00 1.891E+00 2.714E+00 8.568E-01 5.461E+00 8.535E+00 3.985E+05 16.5105 1.00000
  2.500E+06 2.500E+06 3.100E+00 2.398E+00 3.430E+00 1.089E+00 6.917E+00 1.002E+01 4.528E+05 16.9568 1.00000
  3.000E+06 3.000E+06 3.121E+00 2.909E+00 4.150E+00 1.325E+00 8.384E+00 1.151E+01 4.995E+05 17.3214 1.00000
  3.500E+06 3.500E+06 3.140E+00 3.424E+00 4.872E+00 1.566E+00 9.861E+00 1.300E+01 5.404E+05 17.6297 1.00000
  4.000E+06 4.000E+06 3.156E+00 3.940E+00 5.595E+00 1.809E+00 1.134E+01 1.450E+01 5.769E+05 17.8967 1.00000
  4.500E+06 4.500E+06 3.170E+00 4.459E+00 6.320E+00 2.056E+00 1.283E+01 1.600E+01 6.097E+05 18.1323 1.00000
  5.000E+06 5.000E+06 3.183E+00 4.979E+00 7.046E+00 2.306E+00 1.433E+01 1.751E+01 6.396E+05 18.3430 1.00000
  5.500E+06 5.500E+06 3.194E+00 5.500E+00 7.773E+00 2.558E+00 1.583E+01 1.902E+01 6.671E+05 18.5336 1.00000
  6.000E+06 6.000E+06 3.205E+00 6.023E+00 8.500E+00 2.812E+00 1.733E+01 2.054E+01 6.924E+05 18.7077 1.00000
  7.000E+06 7.000E+06 3.224E+00 7.070E+00 9.956E+00 3.328E+00 2.035E+01 2.358E+01 7.379E+05 19.0159 1.00000
  8.000E+06 8.000E+06 3.240E+00 8.122E+00 1.141E+01 3.851E+00 2.339E+01 2.663E+01 7.779E+05 19.2830 1.00000
  9.000E+06 9.000E+06 3.255E+00 9.175E+00 1.287E+01 4.381E+00 2.643E+01 2.969E+01 8.135E+05 19.5186 1.00000
  1.000E+07 1.000E+07 3.268E+00 1.023E+01 1.434E+01 4.917E+00 2.948E+01 3.275E+01 8.456E+05 19.7293 1.00000
  1.200E+07 1.200E+07 3.291E+00 1.235E+01 1.726E+01 6.007E+00 3.561E+01 3.890E+01 9.019E+05 20.0939 1.00000
  1.400E+07 1.400E+07 3.311E+00 1.447E+01 2.019E+01 7.115E+00 4.177E+01 4.508E+01 9.498E+05 20.4022 1.00000
  1.700E+07 1.700E+07 3.335E+00 1.766E+01 2.458E+01 8.810E+00 5.105E+01 5.438E+01 1.011E+06 20.7905 1.00000
  2.000E+07 2.000E+07 3.356E+00 2.085E+01 2.898E+01 1.054E+01 6.037E+01 6.372E+01 1.062E+06 21.1156 1.00000
  2.500E+07 2.500E+07 3.385E+00 2.619E+01 3.631E+01 1.348E+01 7.598E+01 7.936E+01 1.132E+06 21.5619 1.00000
  3.000E+07 3.000E+07 3.409E+00 3.153E+01 4.365E+01 1.648E+01 9.166E+01 9.507E+01 1.190E+06 21.9265 1.00000
  3.500E+07 3.500E+07 3.430E+00 3.688E+01 5.099E+01 1.954E+01 1.074E+02 1.108E+02 1.239E+06 22.2348 1.00000
  4.000E+07 4.000E+07 3.447E+00 4.224E+01 5.833E+01 2.265E+01 1.232E+02 1.267E+02 1.281E+06 22.5019 1.00000
  4.500E+07 4.500E+07 3.463E+00 4.760E+01 6.568E+01 2.581E+01 1.391E+02 1.425E+02 1.319E+06 22.7374 1.00000
  5.000E+07 5.000E+07 3.477E+00 5.296E+01 7.302E+01 2.900E+01 1.550E+02 1.585E+02 1.352E+06 22.9481 1.00000
  5.500E+07 5.500E+07 3.490E+00 5.833E+01 8.037E+01 3.223E+01 1.709E+02 1.744E+02 1.382E+06 23.1388 1.00000
  6.000E+07 6.000E+07 3.502E+00 6.369E+01 8.771E+01 3.549E+01 1.869E+02 1.904E+02 1.410E+06 23.3128 1.00000
  7.000E+07 7.000E+07 3.523E+00 7.443E+01 1.024E+02 4.210E+01 2.189E+02 2.225E+02 1.458E+06 23.6211 1.00000
  8.000E+07 8.000E+07 3.541E+00 8.518E+01 1.171E+02 4.881E+01 2.511E+02 2.546E+02 1.500E+06 23.8882 1.00000
  9.000E+07 9.000E+07 3.558E+00 9.593E+01 1.318E+02 5.563E+01 2.834E+02 2.869E+02 1.537E+06 24.1237 1.00000
  1.000E+08 1.000E+08 3.572E+00 1.067E+02 1.465E+02 6.253E+01 3.157E+02 3.193E+02 1.571E+06 24.3344 1.00000
  1.200E+08 1.200E+08 3.598E+00 1.282E+02 1.759E+02 7.655E+01 3.807E+02 3.843E+02 1.628E+06 24.6991 1.00000
  1.400E+08 1.400E+08 3.620E+00 1.497E+02 2.053E+02 9.085E+01 4.459E+02 4.495E+02 1.676E+06 25.0074 1.00000
  1.700E+08 1.700E+08 3.647E+00 1.820E+02 2.494E+02 1.127E+02 5.442E+02 5.478E+02 1.737E+06 25.3957 1.00000
  2.000E+08 2.000E+08 3.670E+00 2.143E+02 2.936E+02 1.351E+02 6.429E+02 6.466E+02 1.788E+06 25.7207 1.00000
  2.500E+08 2.500E+08 3.703E+00 2.682E+02 3.671E+02 1.731E+02 8.084E+02 8.121E+02 1.857E+06 26.1670 1.00000
  3.000E+08 3.000E+08 3.729E+00 3.220E+02 4.406E+02 2.120E+02 9.747E+02 9.784E+02 1.913E+06 26.5317 1.00000
  3.500E+08 3.500E+08 3.752E+00 3.759E+02 5.142E+02 2.518E+02 1.142E+03 1.146E+03 1.961E+06 26.8400 1.00000
  4.000E+08 4.000E+08 3.772E+00 4.298E+02 5.877E+02 2.921E+02 1.310E+03 1.313E+03 2.002E+06 27.1070 1.00000
  4.500E+08 4.500E+08 3.790E+00 4.837E+02 6.613E+02 3.331E+02 1.478E+03 1.482E+03 2.037E+06 27.3426 1.00000
  5.000E+08 5.000E+08 3.805E+00 5.375E+02 7.348E+02 3.746E+02 1.647E+03 1.651E+03 2.069E+06 27.5533 1.00000
  5.500E+08 5.500E+08 3.820E+00 5.914E+02 8.083E+02 4.166E+02 1.816E+03 1.820E+03 2.098E+06 27.7439 1.00000
  6.000E+08 6.000E+08 3.833E+00 6.453E+02 8.819E+02 4.590E+02 1.986E+03 1.990E+03 2.125E+06 27.9180 1.00000
  7.000E+08 7.000E+08 3.857E+00 7.531E+02 1.029E+03 5.451E+02 2.327E+03 2.331E+03 2.171E+06 28.2263 1.00000
  8.000E+08 8.000E+08 3.877E+00 8.609E+02 1.176E+03 6.327E+02 2.670E+03 2.674E+03 2.211E+06 28.4933 1.00000
  9.000E+08 9.000E+08 3.895E+00 9.687E+02 1.323E+03 7.216E+02 3.013E+03 3.017E+03 2.247E+06 28.7289 1.00000
  1.000E+09 1.000E+09 3.912E+00 1.077E+03 1.470E+03 8.117E+02 3.358E+03 3.362E+03 2.278E+06 28.9396 1.00000
