 Incident particle is a Muon with M = 105.65839 MeV
 Index = 0: PolyvinylideneChloride
      Absorber with <Z/A> = 0.49512
 Sternheimer coef:  a     k=m_s   x_0    x_1    I[eV]   Cbar  delta0
                 0.1547  3.1020  0.1314  2.9009  134.3  4.2506 0.00

 *** Table generated with PUMAS v1.00 ***

      T         p     Ionization  brems     pair     photonuc  Radloss    dE/dx   CSDA Range  delta   beta
    [MeV]    [MeV/c]  -----------------------[MeV cm^2/g]------------------------  [g/cm^2]
  1.000E+00 1.457E+01 4.034E+01 1.343E-06 0.000E+00 0.000E+00 1.343E-06 4.034E+01 1.240E-02  0.0000 0.13661
  1.200E+00 1.597E+01 3.493E+01 1.543E-06 0.000E+00 0.000E+00 1.543E-06 3.493E+01 1.774E-02  0.0000 0.14944
  1.400E+00 1.726E+01 3.091E+01 1.733E-06 0.000E+00 0.000E+00 1.733E-06 3.091E+01 2.384E-02  0.0000 0.16119
  1.700E+00 1.903E+01 2.648E+01 2.004E-06 0.000E+00 0.000E+00 2.004E-06 2.648E+01 3.435E-02  0.0000 0.17725
  2.000E+00 2.066E+01 2.326E+01 2.260E-06 0.000E+00 0.000E+00 2.260E-06 2.326E+01 4.647E-02  0.0000 0.19186
  2.500E+00 2.312E+01 1.946E+01 2.661E-06 0.000E+00 0.000E+00 2.661E-06 1.946E+01 7.006E-02  0.0000 0.21376
  3.000E+00 2.536E+01 1.682E+01 3.034E-06 0.000E+00 0.000E+00 3.034E-06 1.682E+01 9.778E-02  0.0000 0.23336
  3.500E+00 2.742E+01 1.487E+01 3.385E-06 0.000E+00 0.000E+00 3.385E-06 1.487E+01 1.295E-01  0.0000 0.25120
  4.000E+00 2.935E+01 1.337E+01 3.717E-06 0.000E+00 0.000E+00 3.717E-06 1.337E+01 1.650E-01  0.0000 0.26763
  4.500E+00 3.116E+01 1.218E+01 4.034E-06 0.000E+00 0.000E+00 4.034E-06 1.218E+01 2.042E-01  0.0000 0.28290
  5.000E+00 3.289E+01 1.121E+01 4.337E-06 0.000E+00 0.000E+00 4.337E-06 1.121E+01 2.470E-01  0.0000 0.29720
  5.500E+00 3.453E+01 1.040E+01 4.627E-06 0.000E+00 0.000E+00 4.627E-06 1.040E+01 2.934E-01  0.0000 0.31066
  6.000E+00 3.611E+01 9.711E+00 4.907E-06 0.000E+00 0.000E+00 4.907E-06 9.711E+00 3.432E-01  0.0000 0.32339
  7.000E+00 3.909E+01 8.615E+00 5.439E-06 0.000E+00 0.000E+00 5.439E-06 8.615E+00 4.527E-01  0.0000 0.34700
  8.000E+00 4.189E+01 7.775E+00 5.938E-06 0.000E+00 0.000E+00 5.938E-06 7.775E+00 5.751E-01  0.0000 0.36854
  9.000E+00 4.453E+01 7.110E+00 6.411E-06 0.000E+00 0.000E+00 6.411E-06 7.110E+00 7.097E-01  0.0000 0.38836
  1.000E+01 4.704E+01 6.569E+00 6.861E-06 0.000E+00 0.000E+00 6.861E-06 6.569E+00 8.561E-01  0.0000 0.40675
  1.200E+01 5.177E+01 5.742E+00 7.705E-06 0.000E+00 0.000E+00 7.705E-06 5.742E+00 1.183E+00  0.0000 0.43998
  1.400E+01 5.616E+01 5.140E+00 8.490E-06 0.000E+00 0.000E+00 8.490E-06 5.140E+00 1.551E+00  0.0000 0.46937
  1.700E+01 6.230E+01 4.489E+00 9.581E-06 0.000E+00 0.000E+00 9.581E-06 4.489E+00 2.177E+00  0.0000 0.50792
  2.000E+01 6.802E+01 4.026E+00 1.060E-05 0.000E+00 0.000E+00 1.060E-05 4.026E+00 2.884E+00  0.0000 0.54129
  2.500E+01 7.686E+01 3.492E+00 1.217E-05 0.000E+00 0.000E+00 1.217E-05 3.492E+00 4.221E+00  0.0000 0.58827
  3.000E+01 8.509E+01 3.132E+00 1.364E-05 0.000E+00 0.000E+00 1.364E-05 3.132E+00 5.735E+00  0.0000 0.62720
  3.500E+01 9.285E+01 2.874E+00 1.505E-05 0.000E+00 0.000E+00 1.505E-05 2.874E+00 7.403E+00  0.0000 0.66011
  4.000E+01 1.003E+02 2.680E+00 1.642E-05 0.000E+00 0.000E+00 1.642E-05 2.680E+00 9.206E+00  0.0000 0.68834
  4.500E+01 1.074E+02 2.530E+00 1.776E-05 0.000E+00 0.000E+00 1.776E-05 2.530E+00 1.113E+01  0.0000 0.71286
  5.000E+01 1.143E+02 2.410E+00 1.908E-05 0.000E+00 0.000E+00 1.908E-05 2.410E+00 1.315E+01  0.0000 0.73434
  5.500E+01 1.210E+02 2.313E+00 2.040E-05 0.000E+00 0.000E+00 2.040E-05 2.313E+00 1.527E+01  0.0000 0.75332
  6.000E+01 1.276E+02 2.233E+00 2.171E-05 0.000E+00 0.000E+00 2.171E-05 2.233E+00 1.747E+01  0.0000 0.77019
  7.000E+01 1.403E+02 2.111E+00 2.433E-05 0.000E+00 0.000E+00 2.433E-05 2.111E+00 2.208E+01  0.0000 0.79887
  8.000E+01 1.527E+02 2.020E+00 2.698E-05 0.000E+00 0.000E+00 2.698E-05 2.020E+00 2.692E+01  0.0166 0.82227
  9.000E+01 1.647E+02 1.951E+00 2.966E-05 0.000E+00 0.000E+00 2.966E-05 1.951E+00 3.196E+01  0.0383 0.84166
  1.000E+02 1.764E+02 1.898E+00 3.239E-05 0.000E+00 0.000E+00 3.239E-05 1.898E+00 3.716E+01  0.0609 0.85794
  1.200E+02 1.994E+02 1.824E+00 3.798E-05 0.000E+00 0.000E+00 3.798E-05 1.824E+00 4.791E+01  0.1075 0.88361
  1.400E+02 2.218E+02 1.776E+00 4.378E-05 0.000E+00 0.000E+00 4.378E-05 1.776E+00 5.903E+01  0.1548 0.90278
  1.700E+02 2.546E+02 1.732E+00 5.288E-05 9.995E-15 0.000E+00 5.288E-05 1.733E+00 7.613E+01  0.2253 0.92363
  2.000E+02 2.868E+02 1.709E+00 6.244E-05 2.232E-12 0.000E+00 6.244E-05 1.709E+00 9.357E+01  0.2941 0.93835
  2.500E+02 3.396E+02 1.692E+00 7.933E-05 1.156E-07 0.000E+00 7.945E-05 1.692E+00 1.230E+02  0.4043 0.95485
  3.000E+02 3.917E+02 1.690E+00 9.734E-05 1.316E-06 0.000E+00 9.865E-05 1.690E+00 1.525E+02  0.5083 0.96548
  3.500E+02 4.432E+02 1.694E+00 1.164E-04 3.714E-06 0.000E+00 1.201E-04 1.694E+00 1.821E+02  0.6066 0.97274
  4.000E+02 4.945E+02 1.702E+00 1.363E-04 7.265E-06 0.000E+00 1.436E-04 1.702E+00 2.115E+02  0.6995 0.97793
  4.500E+02 5.455E+02 1.711E+00 1.571E-04 1.193E-05 0.000E+00 1.691E-04 1.711E+00 2.408E+02  0.7876 0.98176
  5.000E+02 5.964E+02 1.721E+00 1.788E-04 1.767E-05 0.000E+00 1.964E-04 1.722E+00 2.700E+02  0.8713 0.98467
  5.500E+02 6.471E+02 1.732E+00 2.011E-04 2.444E-05 0.000E+00 2.256E-04 1.732E+00 2.989E+02  0.9511 0.98693
  6.000E+02 6.977E+02 1.742E+00 2.242E-04 3.221E-05 0.000E+00 2.564E-04 1.743E+00 3.277E+02  1.0272 0.98873
  7.000E+02 7.987E+02 1.763E+00 2.722E-04 5.062E-05 0.000E+00 3.228E-04 1.763E+00 3.848E+02  1.1700 0.99136
  8.000E+02 8.995E+02 1.782E+00 3.226E-04 7.264E-05 0.000E+00 3.952E-04 1.782E+00 4.412E+02  1.3017 0.99317
  9.000E+02 1.000E+03 1.800E+00 3.751E-04 9.805E-05 0.000E+00 4.731E-04 1.800E+00 4.970E+02  1.4240 0.99447
  1.000E+03 1.101E+03 1.816E+00 4.295E-04 1.266E-04 0.000E+00 5.562E-04 1.817E+00 5.523E+02  1.5382 0.99542
  1.200E+03 1.301E+03 1.846E+00 5.436E-04 1.926E-04 2.253E-05 7.587E-04 1.847E+00 6.615E+02  1.7466 0.99672
  1.400E+03 1.502E+03 1.872E+00 6.638E-04 2.693E-04 6.154E-05 9.947E-04 1.873E+00 7.690E+02  1.9329 0.99753
  1.700E+03 1.803E+03 1.905E+00 8.542E-04 4.022E-04 1.316E-04 1.388E-03 1.906E+00 9.278E+02  2.1806 0.99829
  2.000E+03 2.103E+03 1.932E+00 1.055E-03 5.541E-04 2.139E-04 1.823E-03 1.934E+00 1.084E+03  2.3985 0.99874
  2.500E+03 2.604E+03 1.970E+00 1.409E-03 8.437E-04 3.729E-04 2.625E-03 1.972E+00 1.340E+03  2.7128 0.99918
  3.000E+03 3.104E+03 2.000E+00 1.783E-03 1.173E-03 5.395E-04 3.495E-03 2.004E+00 1.592E+03  2.9819 0.99942
  3.500E+03 3.604E+03 2.026E+00 2.175E-03 1.535E-03 7.158E-04 4.426E-03 2.030E+00 1.840E+03  3.2176 0.99957
  4.000E+03 4.104E+03 2.047E+00 2.582E-03 1.941E-03 9.040E-04 5.427E-03 2.053E+00 2.084E+03  3.4274 0.99967
  4.500E+03 4.604E+03 2.066E+00 3.002E-03 2.379E-03 1.100E-03 6.481E-03 2.073E+00 2.327E+03  3.6166 0.99974
  5.000E+03 5.105E+03 2.083E+00 3.435E-03 2.843E-03 1.288E-03 7.565E-03 2.090E+00 2.567E+03  3.7891 0.99979
  5.500E+03 5.605E+03 2.098E+00 3.878E-03 3.330E-03 1.490E-03 8.698E-03 2.106E+00 2.805E+03  3.9477 0.99982
  6.000E+03 6.105E+03 2.111E+00 4.331E-03 3.838E-03 1.679E-03 9.847E-03 2.121E+00 3.042E+03  4.0944 0.99985
  7.000E+03 7.105E+03 2.134E+00 5.264E-03 4.911E-03 2.079E-03 1.225E-02 2.146E+00 3.511E+03  4.3587 0.99989
  8.000E+03 8.105E+03 2.154E+00 6.228E-03 6.051E-03 2.476E-03 1.476E-02 2.169E+00 3.974E+03  4.5920 0.99992
  9.000E+03 9.105E+03 2.171E+00 7.220E-03 7.251E-03 2.849E-03 1.732E-02 2.188E+00 4.433E+03  4.8009 0.99993
  1.000E+04 1.011E+04 2.186E+00 8.237E-03 8.504E-03 3.235E-03 1.998E-02 2.206E+00 4.888E+03  4.9901 0.99995
  1.200E+04 1.211E+04 2.211E+00 1.033E-02 1.115E-02 4.016E-03 2.550E-02 2.237E+00 5.789E+03  5.3224 0.99996
  1.400E+04 1.411E+04 2.232E+00 1.251E-02 1.395E-02 4.799E-03 3.126E-02 2.263E+00 6.678E+03  5.6079 0.99997
  1.700E+04 1.711E+04 2.257E+00 1.588E-02 1.840E-02 5.960E-03 4.024E-02 2.298E+00 7.993E+03  5.9726 0.99998
  2.000E+04 2.011E+04 2.278E+00 1.937E-02 2.309E-02 7.099E-03 4.956E-02 2.328E+00 9.291E+03  6.2818 0.99999
  2.500E+04 2.511E+04 2.305E+00 2.541E-02 3.136E-02 8.971E-03 6.574E-02 2.371E+00 1.142E+04  6.7116 0.99999
  3.000E+04 3.011E+04 2.327E+00 3.166E-02 4.006E-02 1.081E-02 8.254E-02 2.410E+00 1.351E+04  7.0666 0.99999
  3.500E+04 3.511E+04 2.345E+00 3.810E-02 4.913E-02 1.267E-02 9.990E-02 2.445E+00 1.557E+04  7.3689 1.00000
  4.000E+04 4.011E+04 2.360E+00 4.468E-02 5.850E-02 1.451E-02 1.177E-01 2.478E+00 1.760E+04  7.6321 1.00000
  4.500E+04 4.511E+04 2.373E+00 5.140E-02 6.812E-02 1.632E-02 1.358E-01 2.509E+00 1.961E+04  7.8652 1.00000
  5.000E+04 5.011E+04 2.385E+00 5.824E-02 7.796E-02 1.814E-02 1.543E-01 2.539E+00 2.159E+04  8.0743 1.00000
  5.500E+04 5.511E+04 2.395E+00 6.517E-02 8.799E-02 1.996E-02 1.731E-01 2.568E+00 2.355E+04  8.2638 1.00000
  6.000E+04 6.011E+04 2.405E+00 7.220E-02 9.819E-02 2.177E-02 1.922E-01 2.597E+00 2.548E+04  8.4371 1.00000
  7.000E+04 7.011E+04 2.421E+00 8.651E-02 1.190E-01 2.537E-02 2.309E-01 2.652E+00 2.929E+04  8.7446 1.00000
  8.000E+04 8.011E+04 2.435E+00 1.011E-01 1.404E-01 2.897E-02 2.704E-01 2.706E+00 3.303E+04  9.0112 1.00000
  9.000E+04 9.011E+04 2.448E+00 1.159E-01 1.621E-01 3.258E-02 3.106E-01 2.758E+00 3.669E+04  9.2465 1.00000
  1.000E+05 1.001E+05 2.458E+00 1.310E-01 1.842E-01 3.612E-02 3.513E-01 2.810E+00 4.028E+04  9.4569 1.00000
  1.200E+05 1.201E+05 2.477E+00 1.616E-01 2.293E-01 4.332E-02 4.342E-01 2.912E+00 4.727E+04  9.8212 1.00000
  1.400E+05 1.401E+05 2.493E+00 1.928E-01 2.754E-01 5.053E-02 5.187E-01 3.012E+00 5.403E+04 10.1293 1.00000
  1.700E+05 1.701E+05 2.513E+00 2.406E-01 3.459E-01 6.136E-02 6.478E-01 3.161E+00 6.375E+04 10.5173 1.00000
  2.000E+05 2.001E+05 2.529E+00 2.892E-01 4.176E-01 7.225E-02 7.791E-01 3.309E+00 7.303E+04 10.8422 1.00000
  2.500E+05 2.501E+05 2.552E+00 3.719E-01 5.394E-01 9.045E-02 1.002E+00 3.554E+00 8.763E+04 11.2883 1.00000
  3.000E+05 3.001E+05 2.571E+00 4.561E-01 6.632E-01 1.088E-01 1.228E+00 3.799E+00 1.012E+05 11.6528 1.00000
  3.500E+05 3.501E+05 2.586E+00 5.415E-01 7.885E-01 1.274E-01 1.457E+00 4.044E+00 1.140E+05 11.9610 1.00000
  4.000E+05 4.001E+05 2.600E+00 6.279E-01 9.150E-01 1.461E-01 1.689E+00 4.289E+00 1.260E+05 12.2279 1.00000
  4.500E+05 4.501E+05 2.612E+00 7.151E-01 1.043E+00 1.648E-01 1.922E+00 4.534E+00 1.374E+05 12.4635 1.00000
  5.000E+05 5.001E+05 2.622E+00 8.031E-01 1.171E+00 1.838E-01 2.158E+00 4.780E+00 1.481E+05 12.6741 1.00000
  5.500E+05 5.501E+05 2.632E+00 8.917E-01 1.300E+00 2.025E-01 2.394E+00 5.026E+00 1.583E+05 12.8647 1.00000
  6.000E+05 6.001E+05 2.641E+00 9.808E-01 1.429E+00 2.214E-01 2.631E+00 5.272E+00 1.680E+05 13.0387 1.00000
  7.000E+05 7.001E+05 2.657E+00 1.160E+00 1.690E+00 2.596E-01 3.110E+00 5.767E+00 1.862E+05 13.3470 1.00000
  8.000E+05 8.001E+05 2.671E+00 1.342E+00 1.952E+00 2.981E-01 3.591E+00 6.262E+00 2.028E+05 13.6140 1.00000
  9.000E+05 9.001E+05 2.683E+00 1.524E+00 2.215E+00 3.370E-01 4.076E+00 6.759E+00 2.182E+05 13.8495 1.00000
  1.000E+06 1.000E+06 2.694E+00 1.708E+00 2.479E+00 3.763E-01 4.563E+00 7.257E+00 2.325E+05 14.0602 1.00000
  1.200E+06 1.200E+06 2.713E+00 2.078E+00 3.010E+00 4.558E-01 5.544E+00 8.256E+00 2.584E+05 14.4248 1.00000
  1.400E+06 1.400E+06 2.729E+00 2.450E+00 3.543E+00 5.365E-01 6.530E+00 9.259E+00 2.813E+05 14.7331 1.00000
  1.700E+06 1.700E+06 2.749E+00 3.014E+00 4.347E+00 6.593E-01 8.020E+00 1.077E+01 3.114E+05 15.1214 1.00000
  2.000E+06 2.000E+06 2.766E+00 3.581E+00 5.154E+00 7.842E-01 9.519E+00 1.229E+01 3.376E+05 15.4464 1.00000
  2.500E+06 2.500E+06 2.790E+00 4.532E+00 6.503E+00 9.960E-01 1.203E+01 1.482E+01 3.748E+05 15.8927 1.00000
  3.000E+06 3.000E+06 2.810E+00 5.490E+00 7.857E+00 1.212E+00 1.456E+01 1.737E+01 4.061E+05 16.2573 1.00000
  3.500E+06 3.500E+06 2.826E+00 6.453E+00 9.214E+00 1.432E+00 1.710E+01 1.992E+01 4.330E+05 16.5656 1.00000
  4.000E+06 4.000E+06 2.841E+00 7.418E+00 1.057E+01 1.654E+00 1.965E+01 2.249E+01 4.567E+05 16.8326 1.00000
  4.500E+06 4.500E+06 2.854E+00 8.387E+00 1.193E+01 1.880E+00 2.220E+01 2.506E+01 4.778E+05 17.0682 1.00000
  5.000E+06 5.000E+06 2.865E+00 9.358E+00 1.330E+01 2.108E+00 2.476E+01 2.763E+01 4.968E+05 17.2789 1.00000
  5.500E+06 5.500E+06 2.876E+00 1.033E+01 1.466E+01 2.338E+00 2.733E+01 3.021E+01 5.141E+05 17.4695 1.00000
  6.000E+06 6.000E+06 2.886E+00 1.130E+01 1.603E+01 2.570E+00 2.990E+01 3.279E+01 5.300E+05 17.6436 1.00000
  7.000E+06 7.000E+06 2.903E+00 1.326E+01 1.876E+01 3.041E+00 3.506E+01 3.796E+01 5.584E+05 17.9518 1.00000
  8.000E+06 8.000E+06 2.918E+00 1.522E+01 2.150E+01 3.519E+00 4.023E+01 4.315E+01 5.832E+05 18.2189 1.00000
  9.000E+06 9.000E+06 2.931E+00 1.718E+01 2.423E+01 4.003E+00 4.541E+01 4.834E+01 6.051E+05 18.4545 1.00000
  1.000E+07 1.000E+07 2.943E+00 1.914E+01 2.697E+01 4.492E+00 5.060E+01 5.355E+01 6.248E+05 18.6652 1.00000
  1.200E+07 1.200E+07 2.964E+00 2.308E+01 3.245E+01 5.487E+00 6.102E+01 6.398E+01 6.591E+05 19.0298 1.00000
  1.400E+07 1.400E+07 2.982E+00 2.702E+01 3.794E+01 6.499E+00 7.146E+01 7.444E+01 6.882E+05 19.3381 1.00000
  1.700E+07 1.700E+07 3.004E+00 3.294E+01 4.618E+01 8.046E+00 8.716E+01 9.016E+01 7.250E+05 19.7264 1.00000
  2.000E+07 2.000E+07 3.023E+00 3.887E+01 5.442E+01 9.622E+00 1.029E+02 1.059E+02 7.558E+05 20.0515 1.00000
  2.500E+07 2.500E+07 3.049E+00 4.877E+01 6.815E+01 1.231E+01 1.292E+02 1.323E+02 7.983E+05 20.4978 1.00000
  3.000E+07 3.000E+07 3.071E+00 5.868E+01 8.190E+01 1.505E+01 1.556E+02 1.587E+02 8.329E+05 20.8624 1.00000
  3.500E+07 3.500E+07 3.090E+00 6.860E+01 9.565E+01 1.784E+01 1.821E+02 1.852E+02 8.622E+05 21.1707 1.00000
  4.000E+07 4.000E+07 3.106E+00 7.852E+01 1.094E+02 2.068E+01 2.086E+02 2.117E+02 8.875E+05 21.4378 1.00000
  4.500E+07 4.500E+07 3.120E+00 8.845E+01 1.232E+02 2.356E+01 2.352E+02 2.383E+02 9.098E+05 21.6733 1.00000
  5.000E+07 5.000E+07 3.133E+00 9.839E+01 1.369E+02 2.647E+01 2.618E+02 2.649E+02 9.297E+05 21.8840 1.00000
  5.500E+07 5.500E+07 3.145E+00 1.083E+02 1.507E+02 2.942E+01 2.884E+02 2.916E+02 9.477E+05 22.0747 1.00000
  6.000E+07 6.000E+07 3.155E+00 1.183E+02 1.644E+02 3.240E+01 3.151E+02 3.182E+02 9.641E+05 22.2487 1.00000
  7.000E+07 7.000E+07 3.174E+00 1.381E+02 1.920E+02 3.843E+01 3.685E+02 3.717E+02 9.933E+05 22.5570 1.00000
  8.000E+07 8.000E+07 3.191E+00 1.580E+02 2.195E+02 4.456E+01 4.221E+02 4.253E+02 1.019E+06 22.8241 1.00000
  9.000E+07 9.000E+07 3.206E+00 1.779E+02 2.470E+02 5.078E+01 4.757E+02 4.789E+02 1.041E+06 23.0596 1.00000
  1.000E+08 1.000E+08 3.219E+00 1.978E+02 2.745E+02 5.708E+01 5.295E+02 5.327E+02 1.061E+06 23.2703 1.00000
  1.200E+08 1.200E+08 3.242E+00 2.377E+02 3.296E+02 6.989E+01 6.372E+02 6.404E+02 1.095E+06 23.6350 1.00000
  1.400E+08 1.400E+08 3.262E+00 2.775E+02 3.847E+02 8.294E+01 7.451E+02 7.484E+02 1.124E+06 23.9433 1.00000
  1.700E+08 1.700E+08 3.287E+00 3.372E+02 4.673E+02 1.029E+02 9.074E+02 9.107E+02 1.160E+06 24.3316 1.00000
  2.000E+08 2.000E+08 3.308E+00 3.970E+02 5.499E+02 1.233E+02 1.070E+03 1.073E+03 1.191E+06 24.6566 1.00000
  2.500E+08 2.500E+08 3.338E+00 4.966E+02 6.876E+02 1.580E+02 1.342E+03 1.346E+03 1.233E+06 25.1029 1.00000
  3.000E+08 3.000E+08 3.362E+00 5.963E+02 8.253E+02 1.936E+02 1.615E+03 1.618E+03 1.267E+06 25.4676 1.00000
  3.500E+08 3.500E+08 3.382E+00 6.959E+02 9.629E+02 2.298E+02 1.889E+03 1.892E+03 1.295E+06 25.7759 1.00000
  4.000E+08 4.000E+08 3.400E+00 7.956E+02 1.101E+03 2.667E+02 2.163E+03 2.166E+03 1.320E+06 26.0429 1.00000
  4.500E+08 4.500E+08 3.416E+00 8.952E+02 1.238E+03 3.041E+02 2.438E+03 2.441E+03 1.342E+06 26.2785 1.00000
  5.000E+08 5.000E+08 3.431E+00 9.949E+02 1.376E+03 3.419E+02 2.713E+03 2.716E+03 1.361E+06 26.4892 1.00000
  5.500E+08 5.500E+08 3.444E+00 1.095E+03 1.514E+03 3.803E+02 2.989E+03 2.992E+03 1.379E+06 26.6798 1.00000
  6.000E+08 6.000E+08 3.456E+00 1.194E+03 1.651E+03 4.190E+02 3.265E+03 3.268E+03 1.395E+06 26.8539 1.00000
  7.000E+08 7.000E+08 3.477E+00 1.394E+03 1.927E+03 4.976E+02 3.818E+03 3.821E+03 1.423E+06 27.1622 1.00000
  8.000E+08 8.000E+08 3.496E+00 1.593E+03 2.202E+03 5.776E+02 4.373E+03 4.376E+03 1.448E+06 27.4292 1.00000
  9.000E+08 9.000E+08 3.512E+00 1.792E+03 2.477E+03 6.587E+02 4.928E+03 4.932E+03 1.469E+06 27.6648 1.00000
  1.000E+09 1.000E+09 3.527E+00 1.992E+03 2.753E+03 7.409E+02 5.485E+03 5.489E+03 1.489E+06 27.8755 1.00000
