 Incident particle is a Muon with M = 105.65839 MeV
 Index = 0: PotassiumIodide
      Absorber with <Z/A> = 0.43373
 Sternheimer coef:  a     k=m_s   x_0    x_1    I[eV]   Cbar  delta0
                 0.2205  2.7558  0.1044  3.3442  431.9  6.1088 0.00

 *** Table generated with PUMAS v1.00 ***

      T         p     Ionization  brems     pair     photonuc  Radloss    dE/dx   CSDA Range  delta   beta
    [MeV]    [MeV/c]  -----------------------[MeV cm^2/g]------------------------  [g/cm^2]
  1.000E+00 1.457E+01 2.700E+01 3.436E-06 0.000E+00 0.000E+00 3.436E-06 2.700E+01 1.852E-02  0.0000 0.13661
  1.200E+00 1.597E+01 2.363E+01 3.948E-06 0.000E+00 0.000E+00 3.948E-06 2.363E+01 2.645E-02  0.0000 0.14944
  1.400E+00 1.726E+01 2.109E+01 4.434E-06 0.000E+00 0.000E+00 4.434E-06 2.109E+01 3.543E-02  0.0000 0.16119
  1.700E+00 1.903E+01 1.825E+01 5.122E-06 0.000E+00 0.000E+00 5.122E-06 1.825E+01 5.076E-02  0.0000 0.17725
  2.000E+00 2.066E+01 1.615E+01 5.769E-06 0.000E+00 0.000E+00 5.769E-06 1.615E+01 6.827E-02  0.0000 0.19186
  2.500E+00 2.312E+01 1.364E+01 6.774E-06 0.000E+00 0.000E+00 6.774E-06 1.364E+01 1.021E-01  0.0000 0.21376
  3.000E+00 2.536E+01 1.188E+01 7.705E-06 0.000E+00 0.000E+00 7.705E-06 1.188E+01 1.415E-01  0.0000 0.23336
  3.500E+00 2.742E+01 1.056E+01 8.576E-06 0.000E+00 0.000E+00 8.576E-06 1.056E+01 1.862E-01  0.0000 0.25120
  4.000E+00 2.935E+01 9.540E+00 9.397E-06 0.000E+00 0.000E+00 9.397E-06 9.540E+00 2.361E-01  0.0000 0.26763
  4.500E+00 3.116E+01 8.724E+00 1.017E-05 0.000E+00 0.000E+00 1.017E-05 8.724E+00 2.909E-01  0.0000 0.28290
  5.000E+00 3.289E+01 8.054E+00 1.092E-05 0.000E+00 0.000E+00 1.092E-05 8.054E+00 3.506E-01  0.0000 0.29720
  5.500E+00 3.453E+01 7.495E+00 1.162E-05 0.000E+00 0.000E+00 1.162E-05 7.495E+00 4.150E-01  0.0000 0.31066
  6.000E+00 3.611E+01 7.020E+00 1.230E-05 0.000E+00 0.000E+00 1.230E-05 7.020E+00 4.840E-01  0.0000 0.32339
  7.000E+00 3.909E+01 6.255E+00 1.359E-05 0.000E+00 0.000E+00 1.359E-05 6.255E+00 6.351E-01  0.0000 0.34700
  8.000E+00 4.189E+01 5.666E+00 1.479E-05 0.000E+00 0.000E+00 1.479E-05 5.666E+00 8.033E-01  0.0000 0.36854
  9.000E+00 4.453E+01 5.197E+00 1.592E-05 0.000E+00 0.000E+00 1.592E-05 5.197E+00 9.878E-01  0.0000 0.38836
  1.000E+01 4.704E+01 4.814E+00 1.700E-05 0.000E+00 0.000E+00 1.700E-05 4.814E+00 1.188E+00  0.0000 0.40675
  1.200E+01 5.177E+01 4.227E+00 1.900E-05 0.000E+00 0.000E+00 1.900E-05 4.227E+00 1.632E+00  0.0000 0.43998
  1.400E+01 5.616E+01 3.796E+00 2.085E-05 0.000E+00 0.000E+00 2.085E-05 3.796E+00 2.132E+00  0.0000 0.46937
  1.700E+01 6.230E+01 3.329E+00 2.342E-05 0.000E+00 0.000E+00 2.342E-05 3.329E+00 2.978E+00  0.0000 0.50792
  2.000E+01 6.802E+01 2.995E+00 2.580E-05 0.000E+00 0.000E+00 2.580E-05 2.995E+00 3.929E+00  0.0000 0.54129
  2.500E+01 7.686E+01 2.610E+00 2.949E-05 0.000E+00 0.000E+00 2.949E-05 2.610E+00 5.722E+00  0.0000 0.58827
  3.000E+01 8.509E+01 2.348E+00 3.294E-05 0.000E+00 0.000E+00 3.294E-05 2.349E+00 7.744E+00  0.0000 0.62720
  3.500E+01 9.285E+01 2.161E+00 3.625E-05 0.000E+00 0.000E+00 3.625E-05 2.161E+00 9.966E+00  0.0000 0.66011
  4.000E+01 1.003E+02 2.019E+00 3.946E-05 0.000E+00 0.000E+00 3.946E-05 2.019E+00 1.236E+01  0.0000 0.68834
  4.500E+01 1.074E+02 1.910E+00 4.261E-05 0.000E+00 0.000E+00 4.261E-05 1.910E+00 1.491E+01  0.0000 0.71286
  5.000E+01 1.143E+02 1.823E+00 4.573E-05 0.000E+00 0.000E+00 4.573E-05 1.823E+00 1.759E+01  0.0000 0.73434
  5.500E+01 1.210E+02 1.752E+00 4.884E-05 0.000E+00 0.000E+00 4.884E-05 1.752E+00 2.039E+01  0.0000 0.75332
  6.000E+01 1.276E+02 1.694E+00 5.194E-05 0.000E+00 0.000E+00 5.194E-05 1.694E+00 2.329E+01  0.0000 0.77019
  7.000E+01 1.403E+02 1.605E+00 5.817E-05 0.000E+00 0.000E+00 5.817E-05 1.606E+00 2.935E+01 -0.0037 0.79887
  8.000E+01 1.527E+02 1.541E+00 6.447E-05 0.000E+00 0.000E+00 6.447E-05 1.541E+00 3.571E+01 -0.0069 0.82227
  9.000E+01 1.647E+02 1.494E+00 7.088E-05 0.000E+00 0.000E+00 7.088E-05 1.494E+00 4.230E+01 -0.0068 0.84166
  1.000E+02 1.764E+02 1.457E+00 7.740E-05 0.000E+00 0.000E+00 7.740E-05 1.457E+00 4.908E+01 -0.0043 0.85794
  1.200E+02 1.994E+02 1.407E+00 9.083E-05 0.000E+00 0.000E+00 9.083E-05 1.407E+00 6.305E+01  0.0057 0.88361
  1.400E+02 2.218E+02 1.376E+00 1.048E-04 0.000E+00 0.000E+00 1.048E-04 1.376E+00 7.743E+01  0.0201 0.90278
  1.700E+02 2.546E+02 1.349E+00 1.268E-04 0.000E+00 0.000E+00 1.268E-04 1.349E+00 9.945E+01  0.0466 0.92363
  2.000E+02 2.868E+02 1.337E+00 1.499E-04 0.000E+00 0.000E+00 1.499E-04 1.337E+00 1.218E+02  0.0765 0.93835
  2.500E+02 3.396E+02 1.332E+00 1.910E-04 1.060E-09 0.000E+00 1.910E-04 1.332E+00 1.593E+02  0.1298 0.95485
  3.000E+02 3.917E+02 1.336E+00 2.350E-04 4.149E-07 0.000E+00 2.354E-04 1.337E+00 1.967E+02  0.1847 0.96548
  3.500E+02 4.432E+02 1.345E+00 2.815E-04 1.183E-06 0.000E+00 2.827E-04 1.346E+00 2.340E+02  0.2395 0.97274
  4.000E+02 4.945E+02 1.356E+00 3.305E-04 1.316E-05 0.000E+00 3.436E-04 1.357E+00 2.710E+02  0.2934 0.97793
  4.500E+02 5.455E+02 1.368E+00 3.817E-04 3.160E-05 0.000E+00 4.133E-04 1.368E+00 3.077E+02  0.3461 0.98176
  5.000E+02 5.964E+02 1.380E+00 4.349E-04 4.785E-05 0.000E+00 4.828E-04 1.381E+00 3.441E+02  0.3974 0.98467
  5.500E+02 6.471E+02 1.392E+00 4.901E-04 6.669E-05 0.000E+00 5.568E-04 1.392E+00 3.802E+02  0.4473 0.98693
  6.000E+02 6.977E+02 1.403E+00 5.471E-04 8.831E-05 0.000E+00 6.354E-04 1.404E+00 4.159E+02  0.4957 0.98873
  7.000E+02 7.987E+02 1.425E+00 6.661E-04 1.396E-04 0.000E+00 8.057E-04 1.426E+00 4.866E+02  0.5885 0.99136
  8.000E+02 8.995E+02 1.446E+00 7.912E-04 2.011E-04 0.000E+00 9.922E-04 1.447E+00 5.562E+02  0.6760 0.99317
  9.000E+02 1.000E+03 1.464E+00 9.218E-04 2.720E-04 0.000E+00 1.194E-03 1.465E+00 6.249E+02  0.7587 0.99447
  1.000E+03 1.101E+03 1.481E+00 1.057E-03 3.520E-04 0.000E+00 1.409E-03 1.483E+00 6.927E+02  0.8372 0.99542
  1.200E+03 1.301E+03 1.512E+00 1.342E-03 5.366E-04 2.248E-05 1.902E-03 1.514E+00 8.262E+02  0.9829 0.99672
  1.400E+03 1.502E+03 1.538E+00 1.644E-03 7.513E-04 6.108E-05 2.456E-03 1.540E+00 9.572E+02  1.1158 0.99753
  1.700E+03 1.803E+03 1.571E+00 2.121E-03 1.124E-03 1.297E-04 3.375E-03 1.575E+00 1.150E+03  1.2958 0.99829
  2.000E+03 2.103E+03 1.599E+00 2.626E-03 1.549E-03 2.098E-04 4.386E-03 1.604E+00 1.339E+03  1.4571 0.99874
  2.500E+03 2.604E+03 1.638E+00 3.519E-03 2.361E-03 3.630E-04 6.243E-03 1.644E+00 1.647E+03  1.6940 0.99918
  3.000E+03 3.104E+03 1.669E+00 4.465E-03 3.283E-03 5.222E-04 8.270E-03 1.677E+00 1.948E+03  1.9004 0.99942
  3.500E+03 3.604E+03 1.694E+00 5.457E-03 4.298E-03 6.894E-04 1.045E-02 1.705E+00 2.243E+03  2.0838 0.99957
  4.000E+03 4.104E+03 1.716E+00 6.489E-03 5.407E-03 8.672E-04 1.276E-02 1.729E+00 2.535E+03  2.2491 0.99967
  4.500E+03 4.604E+03 1.735E+00 7.555E-03 6.595E-03 1.051E-03 1.520E-02 1.751E+00 2.822E+03  2.3996 0.99974
  5.000E+03 5.105E+03 1.752E+00 8.652E-03 7.850E-03 1.227E-03 1.773E-02 1.770E+00 3.106E+03  2.5380 0.99979
  5.500E+03 5.605E+03 1.767E+00 9.777E-03 9.166E-03 1.416E-03 2.036E-02 1.788E+00 3.387E+03  2.6661 0.99982
  6.000E+03 6.105E+03 1.781E+00 1.093E-02 1.054E-02 1.592E-03 2.306E-02 1.804E+00 3.666E+03  2.7855 0.99985
  7.000E+03 7.105E+03 1.804E+00 1.330E-02 1.343E-02 1.964E-03 2.869E-02 1.833E+00 4.216E+03  3.0026 0.99989
  8.000E+03 8.105E+03 1.824E+00 1.575E-02 1.650E-02 2.332E-03 3.458E-02 1.859E+00 4.757E+03  3.1961 0.99992
  9.000E+03 9.105E+03 1.841E+00 1.827E-02 1.972E-02 2.676E-03 4.067E-02 1.882E+00 5.292E+03  3.3710 0.99993
  1.000E+04 1.011E+04 1.856E+00 2.086E-02 2.307E-02 3.031E-03 4.696E-02 1.903E+00 5.820E+03  3.5306 0.99995
  1.200E+04 1.211E+04 1.882E+00 2.620E-02 3.014E-02 3.748E-03 6.009E-02 1.942E+00 6.861E+03  3.8138 0.99996
  1.400E+04 1.411E+04 1.903E+00 3.173E-02 3.761E-02 4.464E-03 7.380E-02 1.977E+00 7.882E+03  4.0597 0.99997
  1.700E+04 1.711E+04 1.928E+00 4.031E-02 4.944E-02 5.521E-03 9.527E-02 2.023E+00 9.382E+03  4.3776 0.99998
  2.000E+04 2.011E+04 1.949E+00 4.919E-02 6.188E-02 6.555E-03 1.176E-01 2.066E+00 1.085E+04  4.6504 0.99999
  2.500E+04 2.511E+04 1.976E+00 6.453E-02 8.371E-02 8.247E-03 1.565E-01 2.132E+00 1.323E+04  5.0342 0.99999
  3.000E+04 3.011E+04 1.997E+00 8.042E-02 1.066E-01 9.904E-03 1.970E-01 2.194E+00 1.554E+04  5.3554 0.99999
  3.500E+04 3.511E+04 2.014E+00 9.675E-02 1.304E-01 1.157E-02 2.388E-01 2.253E+00 1.779E+04  5.6318 1.00000
  4.000E+04 4.011E+04 2.029E+00 1.135E-01 1.550E-01 1.322E-02 2.816E-01 2.311E+00 1.998E+04  5.8747 1.00000
  4.500E+04 4.511E+04 2.042E+00 1.305E-01 1.801E-01 1.484E-02 3.254E-01 2.367E+00 2.212E+04  6.0914 1.00000
  5.000E+04 5.011E+04 2.053E+00 1.478E-01 2.057E-01 1.647E-02 3.700E-01 2.423E+00 2.421E+04  6.2871 1.00000
  5.500E+04 5.511E+04 2.062E+00 1.654E-01 2.318E-01 1.810E-02 4.153E-01 2.478E+00 2.625E+04  6.4657 1.00000
  6.000E+04 6.011E+04 2.071E+00 1.832E-01 2.583E-01 1.971E-02 4.612E-01 2.532E+00 2.825E+04  6.6298 1.00000
  7.000E+04 7.011E+04 2.087E+00 2.193E-01 3.123E-01 2.291E-02 5.545E-01 2.641E+00 3.212E+04  6.9231 1.00000
  8.000E+04 8.011E+04 2.100E+00 2.562E-01 3.674E-01 2.611E-02 6.497E-01 2.749E+00 3.583E+04  7.1796 1.00000
  9.000E+04 9.011E+04 2.111E+00 2.936E-01 4.235E-01 2.931E-02 7.465E-01 2.857E+00 3.940E+04  7.4076 1.00000
  1.000E+05 1.001E+05 2.121E+00 3.316E-01 4.804E-01 3.245E-02 8.444E-01 2.965E+00 4.283E+04  7.6127 1.00000
  1.200E+05 1.201E+05 2.138E+00 4.087E-01 5.962E-01 3.883E-02 1.044E+00 3.182E+00 4.935E+04  7.9702 1.00000
  1.400E+05 1.401E+05 2.152E+00 4.873E-01 7.140E-01 4.520E-02 1.247E+00 3.398E+00 5.543E+04  8.2746 1.00000
  1.700E+05 1.701E+05 2.169E+00 6.074E-01 8.938E-01 5.475E-02 1.556E+00 3.725E+00 6.387E+04  8.6601 1.00000
  2.000E+05 2.001E+05 2.184E+00 7.295E-01 1.076E+00 6.436E-02 1.870E+00 4.054E+00 7.160E+04  8.9841 1.00000
  2.500E+05 2.501E+05 2.204E+00 9.367E-01 1.385E+00 8.039E-02 2.402E+00 4.606E+00 8.319E+04  9.4301 1.00000
  3.000E+05 3.001E+05 2.220E+00 1.147E+00 1.699E+00 9.653E-02 2.943E+00 5.163E+00 9.346E+04  9.7946 1.00000
  3.500E+05 3.501E+05 2.234E+00 1.361E+00 2.015E+00 1.128E-01 3.489E+00 5.722E+00 1.027E+05 10.1028 1.00000
  4.000E+05 4.001E+05 2.246E+00 1.576E+00 2.334E+00 1.293E-01 4.040E+00 6.285E+00 1.110E+05 10.3697 1.00000
  4.500E+05 4.501E+05 2.256E+00 1.794E+00 2.655E+00 1.457E-01 4.594E+00 6.850E+00 1.186E+05 10.6053 1.00000
  5.000E+05 5.001E+05 2.265E+00 2.013E+00 2.977E+00 1.623E-01 5.153E+00 7.418E+00 1.257E+05 10.8159 1.00000
  5.500E+05 5.501E+05 2.274E+00 2.233E+00 3.301E+00 1.788E-01 5.713E+00 7.987E+00 1.322E+05 11.0065 1.00000
  6.000E+05 6.001E+05 2.282E+00 2.455E+00 3.626E+00 1.954E-01 6.277E+00 8.558E+00 1.382E+05 11.1805 1.00000
  7.000E+05 7.001E+05 2.296E+00 2.901E+00 4.279E+00 2.288E-01 7.409E+00 9.705E+00 1.492E+05 11.4888 1.00000
  8.000E+05 8.001E+05 2.308E+00 3.351E+00 4.935E+00 2.626E-01 8.549E+00 1.086E+01 1.590E+05 11.7558 1.00000
  9.000E+05 9.001E+05 2.318E+00 3.803E+00 5.594E+00 2.967E-01 9.693E+00 1.201E+01 1.677E+05 11.9913 1.00000
  1.000E+06 1.000E+06 2.328E+00 4.258E+00 6.254E+00 3.311E-01 1.084E+01 1.317E+01 1.757E+05 12.2020 1.00000
  1.200E+06 1.200E+06 2.344E+00 5.172E+00 7.580E+00 4.007E-01 1.315E+01 1.550E+01 1.897E+05 12.5666 1.00000
  1.400E+06 1.400E+06 2.359E+00 6.093E+00 8.911E+00 4.712E-01 1.548E+01 1.783E+01 2.018E+05 12.8749 1.00000
  1.700E+06 1.700E+06 2.376E+00 7.483E+00 1.091E+01 5.787E-01 1.898E+01 2.135E+01 2.172E+05 13.2632 1.00000
  2.000E+06 2.000E+06 2.391E+00 8.881E+00 1.292E+01 6.879E-01 2.249E+01 2.488E+01 2.303E+05 13.5882 1.00000
  2.500E+06 2.500E+06 2.412E+00 1.122E+01 1.628E+01 8.733E-01 2.838E+01 3.079E+01 2.485E+05 14.0345 1.00000
  3.000E+06 3.000E+06 2.430E+00 1.358E+01 1.965E+01 1.062E+00 3.429E+01 3.672E+01 2.634E+05 14.3991 1.00000
  3.500E+06 3.500E+06 2.444E+00 1.594E+01 2.302E+01 1.254E+00 4.022E+01 4.266E+01 2.761E+05 14.7074 1.00000
  4.000E+06 4.000E+06 2.457E+00 1.831E+01 2.640E+01 1.449E+00 4.616E+01 4.861E+01 2.871E+05 14.9744 1.00000
  4.500E+06 4.500E+06 2.468E+00 2.069E+01 2.978E+01 1.646E+00 5.211E+01 5.458E+01 2.968E+05 15.2100 1.00000
  5.000E+06 5.000E+06 2.478E+00 2.307E+01 3.316E+01 1.845E+00 5.807E+01 6.055E+01 3.055E+05 15.4207 1.00000
  5.500E+06 5.500E+06 2.488E+00 2.545E+01 3.655E+01 2.046E+00 6.404E+01 6.653E+01 3.134E+05 15.6113 1.00000
  6.000E+06 6.000E+06 2.496E+00 2.783E+01 3.994E+01 2.249E+00 7.002E+01 7.252E+01 3.206E+05 15.7854 1.00000
  7.000E+06 7.000E+06 2.511E+00 3.262E+01 4.672E+01 2.661E+00 8.200E+01 8.451E+01 3.334E+05 16.0936 1.00000
  8.000E+06 8.000E+06 2.524E+00 3.740E+01 5.351E+01 3.078E+00 9.399E+01 9.651E+01 3.445E+05 16.3607 1.00000
  9.000E+06 9.000E+06 2.536E+00 4.220E+01 6.030E+01 3.501E+00 1.060E+02 1.085E+02 3.543E+05 16.5963 1.00000
  1.000E+07 1.000E+07 2.546E+00 4.700E+01 6.709E+01 3.929E+00 1.180E+02 1.206E+02 3.630E+05 16.8070 1.00000
  1.200E+07 1.200E+07 2.565E+00 5.661E+01 8.069E+01 4.798E+00 1.421E+02 1.447E+02 3.782E+05 17.1716 1.00000
  1.400E+07 1.400E+07 2.580E+00 6.624E+01 9.429E+01 5.683E+00 1.662E+02 1.688E+02 3.911E+05 17.4799 1.00000
  1.700E+07 1.700E+07 2.600E+00 8.069E+01 1.147E+02 7.034E+00 2.024E+02 2.050E+02 4.073E+05 17.8682 1.00000
  2.000E+07 2.000E+07 2.616E+00 9.517E+01 1.351E+02 8.412E+00 2.387E+02 2.413E+02 4.208E+05 18.1933 1.00000
  2.500E+07 2.500E+07 2.639E+00 1.193E+02 1.692E+02 1.076E+01 2.992E+02 3.019E+02 4.395E+05 18.6396 1.00000
  3.000E+07 3.000E+07 2.658E+00 1.435E+02 2.032E+02 1.315E+01 3.599E+02 3.625E+02 4.546E+05 19.0042 1.00000
  3.500E+07 3.500E+07 2.675E+00 1.676E+02 2.373E+02 1.560E+01 4.205E+02 4.232E+02 4.674E+05 19.3125 1.00000
  4.000E+07 4.000E+07 2.689E+00 1.918E+02 2.714E+02 1.808E+01 4.813E+02 4.840E+02 4.785E+05 19.5796 1.00000
  4.500E+07 4.500E+07 2.701E+00 2.160E+02 3.055E+02 2.059E+01 5.421E+02 5.448E+02 4.883E+05 19.8151 1.00000
  5.000E+07 5.000E+07 2.713E+00 2.402E+02 3.395E+02 2.314E+01 6.029E+02 6.056E+02 4.970E+05 20.0258 1.00000
  5.500E+07 5.500E+07 2.723E+00 2.644E+02 3.736E+02 2.571E+01 6.638E+02 6.665E+02 5.049E+05 20.2165 1.00000
  6.000E+07 6.000E+07 2.732E+00 2.887E+02 4.077E+02 2.831E+01 7.247E+02 7.274E+02 5.120E+05 20.3905 1.00000
  7.000E+07 7.000E+07 2.749E+00 3.371E+02 4.759E+02 3.358E+01 8.466E+02 8.493E+02 5.248E+05 20.6988 1.00000
  8.000E+07 8.000E+07 2.764E+00 3.855E+02 5.441E+02 3.894E+01 9.686E+02 9.713E+02 5.358E+05 20.9659 1.00000
  9.000E+07 9.000E+07 2.777E+00 4.340E+02 6.123E+02 4.437E+01 1.091E+03 1.093E+03 5.456E+05 21.2014 1.00000
  1.000E+08 1.000E+08 2.788E+00 4.825E+02 6.805E+02 4.988E+01 1.213E+03 1.216E+03 5.542E+05 21.4121 1.00000
  1.200E+08 1.200E+08 2.808E+00 5.794E+02 8.169E+02 6.106E+01 1.457E+03 1.460E+03 5.693E+05 21.7768 1.00000
  1.400E+08 1.400E+08 2.826E+00 6.764E+02 9.532E+02 7.246E+01 1.702E+03 1.705E+03 5.820E+05 22.0851 1.00000
  1.700E+08 1.700E+08 2.848E+00 8.218E+02 1.158E+03 8.991E+01 2.070E+03 2.072E+03 5.981E+05 22.4734 1.00000
  2.000E+08 2.000E+08 2.866E+00 9.673E+02 1.362E+03 1.077E+02 2.438E+03 2.440E+03 6.115E+05 22.7984 1.00000
  2.500E+08 2.500E+08 2.892E+00 1.210E+03 1.703E+03 1.381E+02 3.051E+03 3.054E+03 6.299E+05 23.2447 1.00000
  3.000E+08 3.000E+08 2.913E+00 1.452E+03 2.044E+03 1.691E+02 3.666E+03 3.669E+03 6.449E+05 23.6094 1.00000
  3.500E+08 3.500E+08 2.931E+00 1.695E+03 2.386E+03 2.008E+02 4.281E+03 4.284E+03 6.575E+05 23.9177 1.00000
  4.000E+08 4.000E+08 2.947E+00 1.937E+03 2.727E+03 2.330E+02 4.897E+03 4.900E+03 6.685E+05 24.1847 1.00000
  4.500E+08 4.500E+08 2.961E+00 2.180E+03 3.068E+03 2.657E+02 5.513E+03 5.516E+03 6.781E+05 24.4203 1.00000
  5.000E+08 5.000E+08 2.974E+00 2.422E+03 3.409E+03 2.988E+02 6.130E+03 6.133E+03 6.867E+05 24.6310 1.00000
  5.500E+08 5.500E+08 2.985E+00 2.665E+03 3.750E+03 3.322E+02 6.747E+03 6.750E+03 6.945E+05 24.8216 1.00000
  6.000E+08 6.000E+08 2.996E+00 2.908E+03 4.091E+03 3.661E+02 7.364E+03 7.367E+03 7.016E+05 24.9957 1.00000
  7.000E+08 7.000E+08 3.014E+00 3.393E+03 4.773E+03 4.348E+02 8.600E+03 8.603E+03 7.142E+05 25.3040 1.00000
  8.000E+08 8.000E+08 3.031E+00 3.878E+03 5.455E+03 5.046E+02 9.837E+03 9.840E+03 7.251E+05 25.5710 1.00000
  9.000E+08 9.000E+08 3.045E+00 4.363E+03 6.137E+03 5.755E+02 1.108E+04 1.108E+04 7.347E+05 25.8066 1.00000
  1.000E+09 1.000E+09 3.058E+00 4.848E+03 6.818E+03 6.473E+02 1.231E+04 1.232E+04 7.433E+05 26.0173 1.00000
