 Incident particle is a Muon with M = 105.65839 MeV
 Index = 0: Praseodymium
      Absorber with <Z/A> = 0.41871
 Sternheimer coef:  a     k=m_s   x_0    x_1    I[eV]   Cbar  delta0
                 0.2326  2.7331  0.2313  3.2753  535.0  5.8003 0.14

 *** Table generated with PUMAS v1.00 ***

      T         p     Ionization  brems     pair     photonuc  Radloss    dE/dx   CSDA Range  delta   beta
    [MeV]    [MeV/c]  -----------------------[MeV cm^2/g]------------------------  [g/cm^2]
  1.000E+00 1.457E+01 2.459E+01 4.361E-06 0.000E+00 0.000E+00 4.361E-06 2.459E+01 2.034E-02  0.0009 0.13661
  1.200E+00 1.597E+01 2.158E+01 5.010E-06 0.000E+00 0.000E+00 5.010E-06 2.158E+01 2.904E-02  0.0011 0.14944
  1.400E+00 1.726E+01 1.930E+01 5.625E-06 0.000E+00 0.000E+00 5.625E-06 1.930E+01 3.885E-02  0.0013 0.16119
  1.700E+00 1.903E+01 1.674E+01 6.496E-06 0.000E+00 0.000E+00 6.496E-06 1.674E+01 5.559E-02  0.0016 0.17725
  2.000E+00 2.066E+01 1.484E+01 7.313E-06 0.000E+00 0.000E+00 7.313E-06 1.484E+01 7.466E-02  0.0018 0.19186
  2.500E+00 2.312E+01 1.256E+01 8.582E-06 0.000E+00 0.000E+00 8.582E-06 1.256E+01 1.114E-01  0.0023 0.21376
  3.000E+00 2.536E+01 1.096E+01 9.756E-06 0.000E+00 0.000E+00 9.756E-06 1.096E+01 1.541E-01  0.0028 0.23336
  3.500E+00 2.742E+01 9.755E+00 1.085E-05 0.000E+00 0.000E+00 1.085E-05 9.755E+00 2.026E-01  0.0032 0.25120
  4.000E+00 2.935E+01 8.822E+00 1.188E-05 0.000E+00 0.000E+00 1.188E-05 8.823E+00 2.565E-01  0.0037 0.26763
  4.500E+00 3.116E+01 8.075E+00 1.286E-05 0.000E+00 0.000E+00 1.286E-05 8.075E+00 3.158E-01  0.0042 0.28290
  5.000E+00 3.289E+01 7.461E+00 1.379E-05 0.000E+00 0.000E+00 1.379E-05 7.461E+00 3.803E-01  0.0047 0.29720
  5.500E+00 3.453E+01 6.947E+00 1.468E-05 0.000E+00 0.000E+00 1.468E-05 6.947E+00 4.498E-01  0.0052 0.31066
  6.000E+00 3.611E+01 6.510E+00 1.553E-05 0.000E+00 0.000E+00 1.553E-05 6.510E+00 5.242E-01  0.0056 0.32339
  7.000E+00 3.909E+01 5.806E+00 1.714E-05 0.000E+00 0.000E+00 1.714E-05 5.806E+00 6.871E-01  0.0066 0.34700
  8.000E+00 4.189E+01 5.263E+00 1.865E-05 0.000E+00 0.000E+00 1.865E-05 5.263E+00 8.682E-01  0.0076 0.36854
  9.000E+00 4.453E+01 4.831E+00 2.006E-05 0.000E+00 0.000E+00 2.006E-05 4.831E+00 1.067E+00  0.0086 0.38836
  1.000E+01 4.704E+01 4.477E+00 2.140E-05 0.000E+00 0.000E+00 2.140E-05 4.477E+00 1.282E+00  0.0096 0.40675
  1.200E+01 5.177E+01 3.934E+00 2.390E-05 0.000E+00 0.000E+00 2.390E-05 3.934E+00 1.759E+00  0.0116 0.43998
  1.400E+01 5.616E+01 3.536E+00 2.621E-05 0.000E+00 0.000E+00 2.621E-05 3.536E+00 2.296E+00  0.0136 0.46937
  1.700E+01 6.230E+01 3.103E+00 2.941E-05 0.000E+00 0.000E+00 2.941E-05 3.103E+00 3.204E+00  0.0168 0.50792
  2.000E+01 6.802E+01 2.793E+00 3.238E-05 0.000E+00 0.000E+00 3.238E-05 2.793E+00 4.224E+00  0.0200 0.54129
  2.500E+01 7.686E+01 2.435E+00 3.697E-05 0.000E+00 0.000E+00 3.697E-05 2.435E+00 6.146E+00  0.0255 0.58827
  3.000E+01 8.509E+01 2.192E+00 4.126E-05 0.000E+00 0.000E+00 4.126E-05 2.192E+00 8.313E+00  0.0313 0.62720
  3.500E+01 9.285E+01 2.017E+00 4.538E-05 0.000E+00 0.000E+00 4.538E-05 2.017E+00 1.069E+01  0.0373 0.66011
  4.000E+01 1.003E+02 1.886E+00 4.938E-05 0.000E+00 0.000E+00 4.938E-05 1.886E+00 1.326E+01  0.0435 0.68834
  4.500E+01 1.074E+02 1.783E+00 5.330E-05 0.000E+00 0.000E+00 5.330E-05 1.783E+00 1.599E+01  0.0499 0.71286
  5.000E+01 1.143E+02 1.702E+00 5.720E-05 0.000E+00 0.000E+00 5.720E-05 1.702E+00 1.886E+01  0.0565 0.73434
  5.500E+01 1.210E+02 1.636E+00 6.107E-05 0.000E+00 0.000E+00 6.107E-05 1.636E+00 2.185E+01  0.0633 0.75332
  6.000E+01 1.276E+02 1.582E+00 6.494E-05 0.000E+00 0.000E+00 6.494E-05 1.582E+00 2.496E+01  0.0704 0.77019
  7.000E+01 1.403E+02 1.498E+00 7.272E-05 0.000E+00 0.000E+00 7.272E-05 1.498E+00 3.146E+01  0.0851 0.79887
  8.000E+01 1.527E+02 1.437E+00 8.059E-05 0.000E+00 0.000E+00 8.059E-05 1.437E+00 3.828E+01  0.1007 0.82227
  9.000E+01 1.647E+02 1.392E+00 8.860E-05 0.000E+00 0.000E+00 8.860E-05 1.392E+00 4.535E+01  0.1172 0.84166
  1.000E+02 1.764E+02 1.357E+00 9.676E-05 0.000E+00 0.000E+00 9.676E-05 1.357E+00 5.263E+01  0.1346 0.85794
  1.200E+02 1.994E+02 1.311E+00 1.136E-04 0.000E+00 0.000E+00 1.136E-04 1.311E+00 6.762E+01  0.1518 0.88361
  1.400E+02 2.218E+02 1.282E+00 1.311E-04 0.000E+00 0.000E+00 1.311E-04 1.283E+00 8.305E+01  0.1701 0.90278
  1.700E+02 2.546E+02 1.259E+00 1.586E-04 0.000E+00 0.000E+00 1.586E-04 1.259E+00 1.067E+02  0.2016 0.92363
  2.000E+02 2.868E+02 1.248E+00 1.876E-04 0.000E+00 0.000E+00 1.876E-04 1.248E+00 1.306E+02  0.2357 0.93835
  2.500E+02 3.396E+02 1.244E+00 2.392E-04 0.000E+00 0.000E+00 2.392E-04 1.244E+00 1.707E+02  0.2949 0.95485
  3.000E+02 3.917E+02 1.249E+00 2.943E-04 0.000E+00 0.000E+00 2.943E-04 1.249E+00 2.108E+02  0.3546 0.96548
  3.500E+02 4.432E+02 1.258E+00 3.528E-04 0.000E+00 0.000E+00 3.528E-04 1.258E+00 2.507E+02  0.4135 0.97274
  4.000E+02 4.945E+02 1.269E+00 4.144E-04 0.000E+00 0.000E+00 4.144E-04 1.269E+00 2.903E+02  0.4711 0.97793
  4.500E+02 5.455E+02 1.280E+00 4.787E-04 3.906E-05 0.000E+00 5.178E-04 1.281E+00 3.295E+02  0.5270 0.98176
  5.000E+02 5.964E+02 1.292E+00 5.457E-04 6.107E-05 0.000E+00 6.068E-04 1.292E+00 3.684E+02  0.5812 0.98467
  5.500E+02 6.471E+02 1.303E+00 6.152E-04 8.544E-05 0.000E+00 7.006E-04 1.304E+00 4.069E+02  0.6337 0.98693
  6.000E+02 6.977E+02 1.314E+00 6.869E-04 1.133E-04 0.000E+00 8.002E-04 1.315E+00 4.451E+02  0.6845 0.98873
  7.000E+02 7.987E+02 1.335E+00 8.368E-04 1.794E-04 0.000E+00 1.016E-03 1.336E+00 5.205E+02  0.7815 0.99136
  8.000E+02 8.995E+02 1.355E+00 9.945E-04 2.586E-04 0.000E+00 1.253E-03 1.356E+00 5.948E+02  0.8727 0.99317
  9.000E+02 1.000E+03 1.373E+00 1.159E-03 3.501E-04 0.000E+00 1.509E-03 1.374E+00 6.681E+02  0.9587 0.99447
  1.000E+03 1.101E+03 1.389E+00 1.330E-03 4.531E-04 0.000E+00 1.783E-03 1.391E+00 7.404E+02  1.0400 0.99542
  1.200E+03 1.301E+03 1.418E+00 1.690E-03 6.911E-04 2.246E-05 2.404E-03 1.421E+00 8.827E+02  1.1907 0.99672
  1.400E+03 1.502E+03 1.443E+00 2.070E-03 9.681E-04 6.096E-05 3.099E-03 1.447E+00 1.022E+03  1.3278 0.99753
  1.700E+03 1.803E+03 1.475E+00 2.674E-03 1.448E-03 1.292E-04 4.251E-03 1.480E+00 1.227E+03  1.5130 0.99829
  2.000E+03 2.103E+03 1.502E+00 3.312E-03 1.997E-03 2.086E-04 5.518E-03 1.508E+00 1.428E+03  1.6786 0.99874
  2.500E+03 2.604E+03 1.539E+00 4.441E-03 3.044E-03 3.603E-04 7.846E-03 1.547E+00 1.756E+03  1.9213 0.99918
  3.000E+03 3.104E+03 1.568E+00 5.639E-03 4.233E-03 5.174E-04 1.039E-02 1.579E+00 2.076E+03  2.1325 0.99942
  3.500E+03 3.604E+03 1.593E+00 6.895E-03 5.543E-03 6.822E-04 1.312E-02 1.606E+00 2.390E+03  2.3199 0.99957
  4.000E+03 4.104E+03 1.614E+00 8.201E-03 6.969E-03 8.571E-04 1.603E-02 1.630E+00 2.699E+03  2.4885 0.99967
  4.500E+03 4.604E+03 1.632E+00 9.551E-03 8.495E-03 1.038E-03 1.908E-02 1.651E+00 3.003E+03  2.6420 0.99974
  5.000E+03 5.105E+03 1.648E+00 1.094E-02 1.011E-02 1.211E-03 2.226E-02 1.671E+00 3.304E+03  2.7830 0.99979
  5.500E+03 5.605E+03 1.663E+00 1.237E-02 1.180E-02 1.396E-03 2.556E-02 1.688E+00 3.602E+03  2.9134 0.99982
  6.000E+03 6.105E+03 1.676E+00 1.383E-02 1.356E-02 1.569E-03 2.895E-02 1.704E+00 3.897E+03  3.0349 0.99985
  7.000E+03 7.105E+03 1.698E+00 1.683E-02 1.727E-02 1.932E-03 3.603E-02 1.734E+00 4.479E+03  3.2557 0.99989
  8.000E+03 8.105E+03 1.717E+00 1.994E-02 2.120E-02 2.292E-03 4.344E-02 1.760E+00 5.051E+03  3.4524 0.99992
  9.000E+03 9.105E+03 1.733E+00 2.314E-02 2.533E-02 2.629E-03 5.110E-02 1.785E+00 5.615E+03  3.6300 0.99993
  1.000E+04 1.011E+04 1.748E+00 2.642E-02 2.964E-02 2.975E-03 5.903E-02 1.807E+00 6.172E+03  3.7920 0.99995
  1.200E+04 1.211E+04 1.772E+00 3.319E-02 3.869E-02 3.675E-03 7.556E-02 1.848E+00 7.267E+03  4.0792 0.99996
  1.400E+04 1.411E+04 1.792E+00 4.020E-02 4.826E-02 4.373E-03 9.284E-02 1.885E+00 8.338E+03  4.3285 0.99997
  1.700E+04 1.711E+04 1.816E+00 5.109E-02 6.341E-02 5.402E-03 1.199E-01 1.936E+00 9.909E+03  4.6506 0.99998
  2.000E+04 2.011E+04 1.836E+00 6.236E-02 7.933E-02 6.408E-03 1.481E-01 1.984E+00 1.144E+04  4.9268 0.99999
  2.500E+04 2.511E+04 1.862E+00 8.182E-02 1.073E-01 8.052E-03 1.971E-01 2.059E+00 1.391E+04  5.3151 0.99999
  3.000E+04 3.011E+04 1.882E+00 1.020E-01 1.366E-01 9.659E-03 2.482E-01 2.130E+00 1.630E+04  5.6397 0.99999
  3.500E+04 3.511E+04 1.899E+00 1.227E-01 1.670E-01 1.128E-02 3.009E-01 2.200E+00 1.861E+04  5.9189 1.00000
  4.000E+04 4.011E+04 1.913E+00 1.439E-01 1.983E-01 1.288E-02 3.550E-01 2.268E+00 2.085E+04  6.1642 1.00000
  4.500E+04 4.511E+04 1.925E+00 1.655E-01 2.303E-01 1.445E-02 4.103E-01 2.335E+00 2.302E+04  6.3830 1.00000
  5.000E+04 5.011E+04 1.935E+00 1.875E-01 2.630E-01 1.602E-02 4.665E-01 2.402E+00 2.514E+04  6.5805 1.00000
  5.500E+04 5.511E+04 1.945E+00 2.097E-01 2.963E-01 1.760E-02 5.236E-01 2.468E+00 2.719E+04  6.7605 1.00000
  6.000E+04 6.011E+04 1.953E+00 2.323E-01 3.301E-01 1.915E-02 5.815E-01 2.535E+00 2.919E+04  6.9260 1.00000
  7.000E+04 7.011E+04 1.968E+00 2.782E-01 3.989E-01 2.225E-02 6.993E-01 2.667E+00 3.304E+04  7.2216 1.00000
  8.000E+04 8.011E+04 1.980E+00 3.249E-01 4.691E-01 2.534E-02 8.193E-01 2.799E+00 3.670E+04  7.4799 1.00000
  9.000E+04 9.011E+04 1.991E+00 3.724E-01 5.405E-01 2.843E-02 9.413E-01 2.932E+00 4.019E+04  7.7094 1.00000
  1.000E+05 1.001E+05 2.000E+00 4.205E-01 6.129E-01 3.146E-02 1.065E+00 3.065E+00 4.353E+04  7.9158 1.00000
  1.200E+05 1.201E+05 2.017E+00 5.183E-01 7.601E-01 3.762E-02 1.316E+00 3.333E+00 4.979E+04  8.2752 1.00000
  1.400E+05 1.401E+05 2.030E+00 6.179E-01 9.099E-01 4.376E-02 1.572E+00 3.602E+00 5.557E+04  8.5810 1.00000
  1.700E+05 1.701E+05 2.047E+00 7.700E-01 1.138E+00 5.298E-02 1.961E+00 4.008E+00 6.347E+04  8.9678 1.00000
  2.000E+05 2.001E+05 2.061E+00 9.247E-01 1.370E+00 6.224E-02 2.357E+00 4.418E+00 7.061E+04  9.2925 1.00000
  2.500E+05 2.501E+05 2.080E+00 1.187E+00 1.762E+00 7.769E-02 3.027E+00 5.107E+00 8.116E+04  9.7386 1.00000
  3.000E+05 3.001E+05 2.096E+00 1.454E+00 2.160E+00 9.324E-02 3.707E+00 5.803E+00 9.037E+04 10.1031 1.00000
  3.500E+05 3.501E+05 2.109E+00 1.724E+00 2.561E+00 1.090E-01 4.394E+00 6.503E+00 9.852E+04 10.4113 1.00000
  4.000E+05 4.001E+05 2.120E+00 1.997E+00 2.965E+00 1.247E-01 5.087E+00 7.207E+00 1.058E+05 10.6782 1.00000
  4.500E+05 4.501E+05 2.131E+00 2.272E+00 3.372E+00 1.406E-01 5.785E+00 7.915E+00 1.125E+05 10.9138 1.00000
  5.000E+05 5.001E+05 2.140E+00 2.549E+00 3.781E+00 1.566E-01 6.486E+00 8.626E+00 1.185E+05 11.1244 1.00000
  5.500E+05 5.501E+05 2.148E+00 2.828E+00 4.191E+00 1.725E-01 7.191E+00 9.339E+00 1.241E+05 11.3150 1.00000
  6.000E+05 6.001E+05 2.155E+00 3.108E+00 4.603E+00 1.884E-01 7.899E+00 1.005E+01 1.293E+05 11.4890 1.00000
  7.000E+05 7.001E+05 2.169E+00 3.672E+00 5.430E+00 2.206E-01 9.323E+00 1.149E+01 1.386E+05 11.7973 1.00000
  8.000E+05 8.001E+05 2.180E+00 4.240E+00 6.261E+00 2.530E-01 1.075E+01 1.293E+01 1.468E+05 12.0643 1.00000
  9.000E+05 9.001E+05 2.191E+00 4.812E+00 7.095E+00 2.858E-01 1.219E+01 1.438E+01 1.541E+05 12.2998 1.00000
  1.000E+06 1.000E+06 2.200E+00 5.387E+00 7.931E+00 3.189E-01 1.364E+01 1.584E+01 1.608E+05 12.5105 1.00000
  1.200E+06 1.200E+06 2.216E+00 6.543E+00 9.609E+00 3.859E-01 1.654E+01 1.875E+01 1.724E+05 12.8751 1.00000
  1.400E+06 1.400E+06 2.230E+00 7.706E+00 1.129E+01 4.538E-01 1.945E+01 2.168E+01 1.824E+05 13.1834 1.00000
  1.700E+06 1.700E+06 2.247E+00 9.461E+00 1.383E+01 5.571E-01 2.385E+01 2.609E+01 1.950E+05 13.5717 1.00000
  2.000E+06 2.000E+06 2.261E+00 1.123E+01 1.637E+01 6.622E-01 2.826E+01 3.052E+01 2.057E+05 13.8967 1.00000
  2.500E+06 2.500E+06 2.281E+00 1.418E+01 2.062E+01 8.404E-01 3.564E+01 3.792E+01 2.205E+05 14.3430 1.00000
  3.000E+06 3.000E+06 2.298E+00 1.715E+01 2.488E+01 1.022E+00 4.305E+01 4.535E+01 2.326E+05 14.7076 1.00000
  3.500E+06 3.500E+06 2.312E+00 2.014E+01 2.914E+01 1.207E+00 5.049E+01 5.280E+01 2.428E+05 15.0159 1.00000
  4.000E+06 4.000E+06 2.324E+00 2.313E+01 3.341E+01 1.394E+00 5.793E+01 6.026E+01 2.517E+05 15.2829 1.00000
  4.500E+06 4.500E+06 2.335E+00 2.612E+01 3.769E+01 1.583E+00 6.540E+01 6.773E+01 2.596E+05 15.5185 1.00000
  5.000E+06 5.000E+06 2.345E+00 2.913E+01 4.197E+01 1.775E+00 7.287E+01 7.521E+01 2.666E+05 15.7292 1.00000
  5.500E+06 5.500E+06 2.354E+00 3.213E+01 4.625E+01 1.968E+00 8.035E+01 8.271E+01 2.729E+05 15.9198 1.00000
  6.000E+06 6.000E+06 2.362E+00 3.514E+01 5.054E+01 2.164E+00 8.784E+01 9.020E+01 2.787E+05 16.0939 1.00000
  7.000E+06 7.000E+06 2.377E+00 4.117E+01 5.911E+01 2.559E+00 1.028E+02 1.052E+02 2.890E+05 16.4021 1.00000
  8.000E+06 8.000E+06 2.389E+00 4.721E+01 6.769E+01 2.960E+00 1.179E+02 1.203E+02 2.979E+05 16.6692 1.00000
  9.000E+06 9.000E+06 2.401E+00 5.326E+01 7.628E+01 3.367E+00 1.329E+02 1.353E+02 3.058E+05 16.9048 1.00000
  1.000E+07 1.000E+07 2.411E+00 5.931E+01 8.487E+01 3.778E+00 1.480E+02 1.504E+02 3.128E+05 17.1155 1.00000
  1.200E+07 1.200E+07 2.428E+00 7.143E+01 1.021E+02 4.614E+00 1.781E+02 1.805E+02 3.250E+05 17.4801 1.00000
  1.400E+07 1.400E+07 2.443E+00 8.357E+01 1.193E+02 5.464E+00 2.083E+02 2.107E+02 3.353E+05 17.7884 1.00000
  1.700E+07 1.700E+07 2.462E+00 1.018E+02 1.451E+02 6.764E+00 2.536E+02 2.561E+02 3.482E+05 18.1767 1.00000
  2.000E+07 2.000E+07 2.478E+00 1.200E+02 1.709E+02 8.088E+00 2.990E+02 3.015E+02 3.591E+05 18.5018 1.00000
  2.500E+07 2.500E+07 2.501E+00 1.505E+02 2.139E+02 1.034E+01 3.747E+02 3.772E+02 3.740E+05 18.9481 1.00000
  3.000E+07 3.000E+07 2.519E+00 1.809E+02 2.570E+02 1.265E+01 4.506E+02 4.531E+02 3.861E+05 19.3127 1.00000
  3.500E+07 3.500E+07 2.535E+00 2.114E+02 3.000E+02 1.499E+01 5.264E+02 5.290E+02 3.964E+05 19.6210 1.00000
  4.000E+07 4.000E+07 2.548E+00 2.419E+02 3.431E+02 1.738E+01 6.024E+02 6.049E+02 4.052E+05 19.8881 1.00000
  4.500E+07 4.500E+07 2.560E+00 2.724E+02 3.862E+02 1.979E+01 6.784E+02 6.809E+02 4.130E+05 20.1236 1.00000
  5.000E+07 5.000E+07 2.571E+00 3.029E+02 4.293E+02 2.224E+01 7.544E+02 7.570E+02 4.200E+05 20.3343 1.00000
  5.500E+07 5.500E+07 2.581E+00 3.334E+02 4.724E+02 2.472E+01 8.305E+02 8.331E+02 4.263E+05 20.5250 1.00000
  6.000E+07 6.000E+07 2.590E+00 3.639E+02 5.155E+02 2.722E+01 9.066E+02 9.092E+02 4.321E+05 20.6990 1.00000
  7.000E+07 7.000E+07 2.606E+00 4.250E+02 6.016E+02 3.228E+01 1.059E+03 1.061E+03 4.423E+05 21.0073 1.00000
  8.000E+07 8.000E+07 2.621E+00 4.860E+02 6.878E+02 3.743E+01 1.211E+03 1.214E+03 4.511E+05 21.2744 1.00000
  9.000E+07 9.000E+07 2.633E+00 5.471E+02 7.740E+02 4.266E+01 1.364E+03 1.366E+03 4.589E+05 21.5099 1.00000
  1.000E+08 1.000E+08 2.644E+00 6.082E+02 8.602E+02 4.795E+01 1.516E+03 1.519E+03 4.658E+05 21.7206 1.00000
  1.200E+08 1.200E+08 2.664E+00 7.303E+02 1.033E+03 5.870E+01 1.822E+03 1.824E+03 4.779E+05 22.0853 1.00000
  1.400E+08 1.400E+08 2.681E+00 8.525E+02 1.205E+03 6.966E+01 2.127E+03 2.130E+03 4.881E+05 22.3936 1.00000
  1.700E+08 1.700E+08 2.702E+00 1.036E+03 1.464E+03 8.643E+01 2.586E+03 2.589E+03 5.009E+05 22.7819 1.00000
  2.000E+08 2.000E+08 2.720E+00 1.219E+03 1.722E+03 1.035E+02 3.045E+03 3.048E+03 5.116E+05 23.1069 1.00000
  2.500E+08 2.500E+08 2.745E+00 1.525E+03 2.153E+03 1.327E+02 3.811E+03 3.814E+03 5.264E+05 23.5532 1.00000
  3.000E+08 3.000E+08 2.765E+00 1.830E+03 2.584E+03 1.626E+02 4.577E+03 4.580E+03 5.384E+05 23.9179 1.00000
  3.500E+08 3.500E+08 2.782E+00 2.136E+03 3.015E+03 1.930E+02 5.344E+03 5.347E+03 5.485E+05 24.2262 1.00000
  4.000E+08 4.000E+08 2.798E+00 2.442E+03 3.446E+03 2.240E+02 6.112E+03 6.115E+03 5.573E+05 24.4932 1.00000
  4.500E+08 4.500E+08 2.811E+00 2.747E+03 3.878E+03 2.554E+02 6.880E+03 6.883E+03 5.650E+05 24.7288 1.00000
  5.000E+08 5.000E+08 2.823E+00 3.053E+03 4.309E+03 2.872E+02 7.649E+03 7.652E+03 5.719E+05 24.9395 1.00000
  5.500E+08 5.500E+08 2.834E+00 3.359E+03 4.740E+03 3.194E+02 8.418E+03 8.420E+03 5.782E+05 25.1301 1.00000
  6.000E+08 6.000E+08 2.844E+00 3.664E+03 5.171E+03 3.519E+02 9.187E+03 9.190E+03 5.838E+05 25.3042 1.00000
  7.000E+08 7.000E+08 2.863E+00 4.276E+03 6.033E+03 4.179E+02 1.073E+04 1.073E+04 5.939E+05 25.6125 1.00000
  8.000E+08 8.000E+08 2.878E+00 4.887E+03 6.895E+03 4.851E+02 1.227E+04 1.227E+04 6.027E+05 25.8795 1.00000
  9.000E+08 9.000E+08 2.892E+00 5.498E+03 7.757E+03 5.532E+02 1.381E+04 1.381E+04 6.104E+05 26.1151 1.00000
  1.000E+09 1.000E+09 2.905E+00 6.110E+03 8.619E+03 6.223E+02 1.535E+04 1.535E+04 6.173E+05 26.3258 1.00000
