 Incident particle is a Muon with M = 105.65839 MeV
 Index = 0: Promethium
      Absorber with <Z/A> = 0.42094
 Sternheimer coef:  a     k=m_s   x_0    x_1    I[eV]   Cbar  delta0
                 0.2428  2.6674  0.1614  3.3186  560.0  5.8163 0.14

 *** Table generated with PUMAS v1.00 ***

      T         p     Ionization  brems     pair     photonuc  Radloss    dE/dx   CSDA Range  delta   beta
    [MeV]    [MeV/c]  -----------------------[MeV cm^2/g]------------------------  [g/cm^2]
  1.000E+00 1.457E+01 2.440E+01 4.523E-06 0.000E+00 0.000E+00 4.523E-06 2.440E+01 2.049E-02  0.0013 0.13661
  1.200E+00 1.597E+01 2.143E+01 5.196E-06 0.000E+00 0.000E+00 5.196E-06 2.143E+01 2.926E-02  0.0015 0.14944
  1.400E+00 1.726E+01 1.917E+01 5.833E-06 0.000E+00 0.000E+00 5.833E-06 1.917E+01 3.914E-02  0.0018 0.16119
  1.700E+00 1.903E+01 1.664E+01 6.736E-06 0.000E+00 0.000E+00 6.736E-06 1.664E+01 5.598E-02  0.0022 0.17725
  2.000E+00 2.066E+01 1.476E+01 7.584E-06 0.000E+00 0.000E+00 7.584E-06 1.476E+01 7.516E-02  0.0025 0.19186
  2.500E+00 2.312E+01 1.250E+01 8.899E-06 0.000E+00 0.000E+00 8.899E-06 1.250E+01 1.121E-01  0.0032 0.21376
  3.000E+00 2.536E+01 1.090E+01 1.011E-05 0.000E+00 0.000E+00 1.011E-05 1.090E+01 1.550E-01  0.0038 0.23336
  3.500E+00 2.742E+01 9.713E+00 1.125E-05 0.000E+00 0.000E+00 1.125E-05 9.713E+00 2.037E-01  0.0045 0.25120
  4.000E+00 2.935E+01 8.786E+00 1.232E-05 0.000E+00 0.000E+00 1.232E-05 8.786E+00 2.579E-01  0.0051 0.26763
  4.500E+00 3.116E+01 8.043E+00 1.333E-05 0.000E+00 0.000E+00 1.333E-05 8.043E+00 3.174E-01  0.0058 0.28290
  5.000E+00 3.289E+01 7.432E+00 1.430E-05 0.000E+00 0.000E+00 1.430E-05 7.432E+00 3.822E-01  0.0065 0.29720
  5.500E+00 3.453E+01 6.921E+00 1.522E-05 0.000E+00 0.000E+00 1.522E-05 6.921E+00 4.519E-01  0.0071 0.31066
  6.000E+00 3.611E+01 6.487E+00 1.610E-05 0.000E+00 0.000E+00 1.610E-05 6.487E+00 5.266E-01  0.0078 0.32339
  7.000E+00 3.909E+01 5.787E+00 1.777E-05 0.000E+00 0.000E+00 1.777E-05 5.787E+00 6.901E-01  0.0091 0.34700
  8.000E+00 4.189E+01 5.246E+00 1.932E-05 0.000E+00 0.000E+00 1.932E-05 5.247E+00 8.718E-01  0.0105 0.36854
  9.000E+00 4.453E+01 4.816E+00 2.079E-05 0.000E+00 0.000E+00 2.079E-05 4.816E+00 1.071E+00  0.0118 0.38836
  1.000E+01 4.704E+01 4.464E+00 2.217E-05 0.000E+00 0.000E+00 2.217E-05 4.464E+00 1.287E+00  0.0132 0.40675
  1.200E+01 5.177E+01 3.923E+00 2.476E-05 0.000E+00 0.000E+00 2.476E-05 3.923E+00 1.766E+00  0.0160 0.43998
  1.400E+01 5.616E+01 3.526E+00 2.715E-05 0.000E+00 0.000E+00 2.715E-05 3.526E+00 2.304E+00  0.0188 0.46937
  1.700E+01 6.230E+01 3.095E+00 3.047E-05 0.000E+00 0.000E+00 3.047E-05 3.095E+00 3.214E+00  0.0231 0.50792
  2.000E+01 6.802E+01 2.786E+00 3.353E-05 0.000E+00 0.000E+00 3.353E-05 2.786E+00 4.237E+00  0.0276 0.54129
  2.500E+01 7.686E+01 2.429E+00 3.828E-05 0.000E+00 0.000E+00 3.828E-05 2.429E+00 6.163E+00  0.0352 0.58827
  3.000E+01 8.509E+01 2.187E+00 4.273E-05 0.000E+00 0.000E+00 4.273E-05 2.187E+00 8.336E+00  0.0432 0.62720
  3.500E+01 9.285E+01 2.012E+00 4.699E-05 0.000E+00 0.000E+00 4.699E-05 2.012E+00 1.072E+01  0.0514 0.66011
  4.000E+01 1.003E+02 1.881E+00 5.112E-05 0.000E+00 0.000E+00 5.112E-05 1.881E+00 1.329E+01  0.0600 0.68834
  4.500E+01 1.074E+02 1.779E+00 5.519E-05 0.000E+00 0.000E+00 5.519E-05 1.779E+00 1.603E+01  0.0688 0.71286
  5.000E+01 1.143E+02 1.698E+00 5.922E-05 0.000E+00 0.000E+00 5.922E-05 1.698E+00 1.891E+01  0.0779 0.73434
  5.500E+01 1.210E+02 1.632E+00 6.323E-05 0.000E+00 0.000E+00 6.323E-05 1.632E+00 2.191E+01  0.0874 0.75332
  6.000E+01 1.276E+02 1.577E+00 6.723E-05 0.000E+00 0.000E+00 6.723E-05 1.577E+00 2.503E+01  0.0971 0.77019
  7.000E+01 1.403E+02 1.493E+00 7.529E-05 0.000E+00 0.000E+00 7.529E-05 1.493E+00 3.155E+01  0.1174 0.79887
  8.000E+01 1.527E+02 1.432E+00 8.344E-05 0.000E+00 0.000E+00 8.344E-05 1.432E+00 3.838E+01  0.1390 0.82227
  9.000E+01 1.647E+02 1.388E+00 9.173E-05 0.000E+00 0.000E+00 9.173E-05 1.388E+00 4.548E+01  0.1474 0.84166
  1.000E+02 1.764E+02 1.354E+00 1.002E-04 0.000E+00 0.000E+00 1.002E-04 1.355E+00 5.277E+01  0.1566 0.85794
  1.200E+02 1.994E+02 1.308E+00 1.176E-04 0.000E+00 0.000E+00 1.176E-04 1.308E+00 6.780E+01  0.1781 0.88361
  1.400E+02 2.218E+02 1.279E+00 1.357E-04 0.000E+00 0.000E+00 1.357E-04 1.280E+00 8.326E+01  0.2019 0.90278
  1.700E+02 2.546E+02 1.255E+00 1.642E-04 0.000E+00 0.000E+00 1.642E-04 1.256E+00 1.069E+02  0.2400 0.92363
  2.000E+02 2.868E+02 1.244E+00 1.943E-04 0.000E+00 0.000E+00 1.943E-04 1.245E+00 1.309E+02  0.2792 0.93835
  2.500E+02 3.396E+02 1.240E+00 2.476E-04 0.000E+00 0.000E+00 2.476E-04 1.241E+00 1.712E+02  0.3450 0.95485
  3.000E+02 3.917E+02 1.245E+00 3.048E-04 0.000E+00 0.000E+00 3.048E-04 1.246E+00 2.114E+02  0.4095 0.96548
  3.500E+02 4.432E+02 1.254E+00 3.654E-04 0.000E+00 0.000E+00 3.654E-04 1.255E+00 2.514E+02  0.4720 0.97274
  4.000E+02 4.945E+02 1.265E+00 4.291E-04 0.000E+00 0.000E+00 4.291E-04 1.265E+00 2.911E+02  0.5324 0.97793
  4.500E+02 5.455E+02 1.277E+00 4.958E-04 3.971E-05 0.000E+00 5.355E-04 1.277E+00 3.304E+02  0.5906 0.98176
  5.000E+02 5.964E+02 1.288E+00 5.652E-04 6.323E-05 0.000E+00 6.285E-04 1.289E+00 3.694E+02  0.6466 0.98467
  5.500E+02 6.471E+02 1.300E+00 6.372E-04 8.866E-05 0.000E+00 7.259E-04 1.300E+00 4.080E+02  0.7005 0.98693
  6.000E+02 6.977E+02 1.311E+00 7.115E-04 1.176E-04 0.000E+00 8.291E-04 1.312E+00 4.463E+02  0.7525 0.98873
  7.000E+02 7.987E+02 1.332E+00 8.668E-04 1.862E-04 0.000E+00 1.053E-03 1.333E+00 5.219E+02  0.8512 0.99136
  8.000E+02 8.995E+02 1.351E+00 1.030E-03 2.685E-04 0.000E+00 1.299E-03 1.353E+00 5.964E+02  0.9436 0.99317
  9.000E+02 1.000E+03 1.369E+00 1.201E-03 3.635E-04 0.000E+00 1.564E-03 1.371E+00 6.698E+02  1.0303 0.99447
  1.000E+03 1.101E+03 1.386E+00 1.378E-03 4.705E-04 0.000E+00 1.849E-03 1.388E+00 7.423E+02  1.1121 0.99542
  1.200E+03 1.301E+03 1.415E+00 1.751E-03 7.178E-04 2.246E-05 2.491E-03 1.418E+00 8.849E+02  1.2631 0.99672
  1.400E+03 1.502E+03 1.440E+00 2.145E-03 1.006E-03 6.095E-05 3.212E-03 1.444E+00 1.025E+03  1.4000 0.99753
  1.700E+03 1.803E+03 1.473E+00 2.771E-03 1.504E-03 1.292E-04 4.404E-03 1.477E+00 1.230E+03  1.5844 0.99829
  2.000E+03 2.103E+03 1.500E+00 3.433E-03 2.075E-03 2.085E-04 5.716E-03 1.505E+00 1.431E+03  1.7488 0.99874
  2.500E+03 2.604E+03 1.537E+00 4.603E-03 3.162E-03 3.601E-04 8.125E-03 1.545E+00 1.759E+03  1.9892 0.99918
  3.000E+03 3.104E+03 1.567E+00 5.845E-03 4.397E-03 5.171E-04 1.076E-02 1.577E+00 2.080E+03  2.1980 0.99942
  3.500E+03 3.604E+03 1.591E+00 7.147E-03 5.758E-03 6.817E-04 1.359E-02 1.605E+00 2.394E+03  2.3830 0.99957
  4.000E+03 4.104E+03 1.613E+00 8.501E-03 7.239E-03 8.564E-04 1.660E-02 1.629E+00 2.703E+03  2.5493 0.99967
  4.500E+03 4.604E+03 1.631E+00 9.901E-03 8.824E-03 1.037E-03 1.976E-02 1.651E+00 3.008E+03  2.7006 0.99974
  5.000E+03 5.105E+03 1.647E+00 1.134E-02 1.050E-02 1.209E-03 2.305E-02 1.671E+00 3.309E+03  2.8395 0.99979
  5.500E+03 5.605E+03 1.662E+00 1.282E-02 1.225E-02 1.395E-03 2.647E-02 1.688E+00 3.607E+03  2.9680 0.99982
  6.000E+03 6.105E+03 1.675E+00 1.433E-02 1.408E-02 1.567E-03 2.998E-02 1.705E+00 3.901E+03  3.0877 0.99985
  7.000E+03 7.105E+03 1.698E+00 1.745E-02 1.793E-02 1.930E-03 3.731E-02 1.735E+00 4.483E+03  3.3049 0.99989
  8.000E+03 8.105E+03 1.717E+00 2.067E-02 2.202E-02 2.290E-03 4.498E-02 1.762E+00 5.055E+03  3.4985 0.99992
  9.000E+03 9.105E+03 1.734E+00 2.399E-02 2.631E-02 2.626E-03 5.292E-02 1.787E+00 5.618E+03  3.6733 0.99993
  1.000E+04 1.011E+04 1.749E+00 2.739E-02 3.078E-02 2.971E-03 6.114E-02 1.810E+00 6.174E+03  3.8327 0.99995
  1.200E+04 1.211E+04 1.773E+00 3.441E-02 4.018E-02 3.670E-03 7.826E-02 1.852E+00 7.267E+03  4.1154 0.99996
  1.400E+04 1.411E+04 1.794E+00 4.168E-02 5.011E-02 4.366E-03 9.616E-02 1.890E+00 8.336E+03  4.3607 0.99997
  1.700E+04 1.711E+04 1.818E+00 5.298E-02 6.583E-02 5.394E-03 1.242E-01 1.943E+00 9.902E+03  4.6778 0.99998
  2.000E+04 2.011E+04 1.838E+00 6.466E-02 8.236E-02 6.397E-03 1.534E-01 1.992E+00 1.143E+04  4.9498 0.99999
  2.500E+04 2.511E+04 1.865E+00 8.484E-02 1.113E-01 8.038E-03 2.042E-01 2.069E+00 1.389E+04  5.3324 0.99999
  3.000E+04 3.011E+04 1.885E+00 1.057E-01 1.418E-01 9.642E-03 2.571E-01 2.142E+00 1.627E+04  5.6525 0.99999
  3.500E+04 3.511E+04 1.902E+00 1.272E-01 1.733E-01 1.126E-02 3.118E-01 2.214E+00 1.856E+04  5.9281 1.00000
  4.000E+04 4.011E+04 1.916E+00 1.492E-01 2.058E-01 1.285E-02 3.678E-01 2.284E+00 2.079E+04  6.1703 1.00000
  4.500E+04 4.511E+04 1.929E+00 1.716E-01 2.390E-01 1.442E-02 4.251E-01 2.354E+00 2.294E+04  6.3864 1.00000
  5.000E+04 5.011E+04 1.939E+00 1.944E-01 2.730E-01 1.599E-02 4.833E-01 2.423E+00 2.504E+04  6.5817 1.00000
  5.500E+04 5.511E+04 1.949E+00 2.175E-01 3.075E-01 1.756E-02 5.425E-01 2.492E+00 2.707E+04  6.7598 1.00000
  6.000E+04 6.011E+04 1.958E+00 2.409E-01 3.425E-01 1.912E-02 6.025E-01 2.560E+00 2.905E+04  6.9236 1.00000
  7.000E+04 7.011E+04 1.973E+00 2.885E-01 4.139E-01 2.220E-02 7.245E-01 2.697E+00 3.286E+04  7.2164 1.00000
  8.000E+04 8.011E+04 1.985E+00 3.369E-01 4.867E-01 2.529E-02 8.489E-01 2.834E+00 3.648E+04  7.4725 1.00000
  9.000E+04 9.011E+04 1.996E+00 3.861E-01 5.608E-01 2.837E-02 9.753E-01 2.971E+00 3.992E+04  7.7002 1.00000
  1.000E+05 1.001E+05 2.006E+00 4.360E-01 6.358E-01 3.139E-02 1.103E+00 3.109E+00 4.321E+04  7.9051 1.00000
  1.200E+05 1.201E+05 2.022E+00 5.374E-01 7.885E-01 3.753E-02 1.363E+00 3.386E+00 4.938E+04  8.2624 1.00000
  1.400E+05 1.401E+05 2.036E+00 6.407E-01 9.439E-01 4.366E-02 1.628E+00 3.664E+00 5.507E+04  8.5667 1.00000
  1.700E+05 1.701E+05 2.053E+00 7.984E-01 1.181E+00 5.286E-02 2.032E+00 4.085E+00 6.283E+04  8.9523 1.00000
  2.000E+05 2.001E+05 2.067E+00 9.588E-01 1.421E+00 6.209E-02 2.442E+00 4.509E+00 6.983E+04  9.2765 1.00000
  2.500E+05 2.501E+05 2.086E+00 1.231E+00 1.828E+00 7.750E-02 3.136E+00 5.222E+00 8.016E+04  9.7226 1.00000
  3.000E+05 3.001E+05 2.102E+00 1.507E+00 2.240E+00 9.301E-02 3.840E+00 5.942E+00 8.916E+04 10.0871 1.00000
  3.500E+05 3.501E+05 2.115E+00 1.787E+00 2.656E+00 1.087E-01 4.552E+00 6.667E+00 9.711E+04 10.3953 1.00000
  4.000E+05 4.001E+05 2.127E+00 2.070E+00 3.075E+00 1.244E-01 5.269E+00 7.396E+00 1.042E+05 10.6622 1.00000
  4.500E+05 4.501E+05 2.137E+00 2.355E+00 3.496E+00 1.403E-01 5.992E+00 8.129E+00 1.107E+05 10.8978 1.00000
  5.000E+05 5.001E+05 2.146E+00 2.642E+00 3.920E+00 1.562E-01 6.719E+00 8.865E+00 1.166E+05 11.1084 1.00000
  5.500E+05 5.501E+05 2.154E+00 2.931E+00 4.345E+00 1.720E-01 7.449E+00 9.603E+00 1.220E+05 11.2990 1.00000
  6.000E+05 6.001E+05 2.162E+00 3.222E+00 4.772E+00 1.879E-01 8.182E+00 1.034E+01 1.270E+05 11.4730 1.00000
  7.000E+05 7.001E+05 2.175E+00 3.807E+00 5.629E+00 2.200E-01 9.656E+00 1.183E+01 1.361E+05 11.7813 1.00000
  8.000E+05 8.001E+05 2.187E+00 4.396E+00 6.490E+00 2.524E-01 1.114E+01 1.333E+01 1.441E+05 12.0483 1.00000
  9.000E+05 9.001E+05 2.197E+00 4.988E+00 7.355E+00 2.851E-01 1.263E+01 1.483E+01 1.512E+05 12.2838 1.00000
  1.000E+06 1.000E+06 2.207E+00 5.584E+00 8.221E+00 3.181E-01 1.412E+01 1.633E+01 1.576E+05 12.4945 1.00000
  1.200E+06 1.200E+06 2.223E+00 6.782E+00 9.961E+00 3.848E-01 1.713E+01 1.935E+01 1.689E+05 12.8591 1.00000
  1.400E+06 1.400E+06 2.237E+00 7.987E+00 1.171E+01 4.525E-01 2.015E+01 2.238E+01 1.786E+05 13.1674 1.00000
  1.700E+06 1.700E+06 2.254E+00 9.806E+00 1.433E+01 5.556E-01 2.469E+01 2.695E+01 1.908E+05 13.5557 1.00000
  2.000E+06 2.000E+06 2.269E+00 1.164E+01 1.697E+01 6.604E-01 2.926E+01 3.153E+01 2.012E+05 13.8807 1.00000
  2.500E+06 2.500E+06 2.289E+00 1.470E+01 2.137E+01 8.381E-01 3.691E+01 3.920E+01 2.155E+05 14.3270 1.00000
  3.000E+06 3.000E+06 2.305E+00 1.778E+01 2.578E+01 1.019E+00 4.458E+01 4.689E+01 2.272E+05 14.6916 1.00000
  3.500E+06 3.500E+06 2.320E+00 2.087E+01 3.020E+01 1.203E+00 5.228E+01 5.459E+01 2.371E+05 14.9999 1.00000
  4.000E+06 4.000E+06 2.332E+00 2.397E+01 3.463E+01 1.390E+00 5.999E+01 6.232E+01 2.457E+05 15.2669 1.00000
  4.500E+06 4.500E+06 2.343E+00 2.707E+01 3.906E+01 1.579E+00 6.771E+01 7.005E+01 2.533E+05 15.5025 1.00000
  5.000E+06 5.000E+06 2.353E+00 3.018E+01 4.349E+01 1.770E+00 7.545E+01 7.780E+01 2.600E+05 15.7132 1.00000
  5.500E+06 5.500E+06 2.362E+00 3.330E+01 4.793E+01 1.963E+00 8.319E+01 8.555E+01 2.662E+05 15.9038 1.00000
  6.000E+06 6.000E+06 2.370E+00 3.642E+01 5.237E+01 2.158E+00 9.095E+01 9.332E+01 2.718E+05 16.0779 1.00000
  7.000E+06 7.000E+06 2.385E+00 4.267E+01 6.126E+01 2.552E+00 1.065E+02 1.089E+02 2.817E+05 16.3861 1.00000
  8.000E+06 8.000E+06 2.397E+00 4.892E+01 7.015E+01 2.952E+00 1.220E+02 1.244E+02 2.903E+05 16.6532 1.00000
  9.000E+06 9.000E+06 2.409E+00 5.519E+01 7.904E+01 3.358E+00 1.376E+02 1.400E+02 2.979E+05 16.8888 1.00000
  1.000E+07 1.000E+07 2.419E+00 6.146E+01 8.794E+01 3.768E+00 1.532E+02 1.556E+02 3.047E+05 17.0995 1.00000
  1.200E+07 1.200E+07 2.436E+00 7.402E+01 1.058E+02 4.601E+00 1.844E+02 1.868E+02 3.165E+05 17.4641 1.00000
  1.400E+07 1.400E+07 2.452E+00 8.659E+01 1.236E+02 5.449E+00 2.156E+02 2.181E+02 3.264E+05 17.7724 1.00000
  1.700E+07 1.700E+07 2.471E+00 1.055E+02 1.503E+02 6.745E+00 2.625E+02 2.650E+02 3.390E+05 18.1607 1.00000
  2.000E+07 2.000E+07 2.487E+00 1.244E+02 1.771E+02 8.065E+00 3.095E+02 3.120E+02 3.494E+05 18.4858 1.00000
  2.500E+07 2.500E+07 2.509E+00 1.559E+02 2.217E+02 1.031E+01 3.879E+02 3.904E+02 3.639E+05 18.9321 1.00000
  3.000E+07 3.000E+07 2.528E+00 1.875E+02 2.663E+02 1.261E+01 4.664E+02 4.689E+02 3.756E+05 19.2967 1.00000
  3.500E+07 3.500E+07 2.543E+00 2.190E+02 3.109E+02 1.495E+01 5.449E+02 5.474E+02 3.855E+05 19.6050 1.00000
  4.000E+07 4.000E+07 2.557E+00 2.506E+02 3.555E+02 1.733E+01 6.235E+02 6.261E+02 3.940E+05 19.8721 1.00000
  4.500E+07 4.500E+07 2.569E+00 2.822E+02 4.002E+02 1.974E+01 7.021E+02 7.047E+02 4.016E+05 20.1076 1.00000
  5.000E+07 5.000E+07 2.580E+00 3.138E+02 4.448E+02 2.218E+01 7.808E+02 7.834E+02 4.083E+05 20.3183 1.00000
  5.500E+07 5.500E+07 2.590E+00 3.454E+02 4.895E+02 2.465E+01 8.596E+02 8.621E+02 4.144E+05 20.5090 1.00000
  6.000E+07 6.000E+07 2.599E+00 3.771E+02 5.341E+02 2.714E+01 9.383E+02 9.409E+02 4.200E+05 20.6830 1.00000
  7.000E+07 7.000E+07 2.615E+00 4.403E+02 6.234E+02 3.219E+01 1.096E+03 1.099E+03 4.298E+05 20.9913 1.00000
  8.000E+07 8.000E+07 2.630E+00 5.036E+02 7.127E+02 3.733E+01 1.254E+03 1.256E+03 4.384E+05 21.2584 1.00000
  9.000E+07 9.000E+07 2.642E+00 5.668E+02 8.020E+02 4.254E+01 1.411E+03 1.414E+03 4.459E+05 21.4939 1.00000
  1.000E+08 1.000E+08 2.653E+00 6.301E+02 8.914E+02 4.781E+01 1.569E+03 1.572E+03 4.526E+05 21.7046 1.00000
  1.200E+08 1.200E+08 2.673E+00 7.567E+02 1.070E+03 5.854E+01 1.885E+03 1.888E+03 4.643E+05 22.0693 1.00000
  1.400E+08 1.400E+08 2.690E+00 8.833E+02 1.249E+03 6.947E+01 2.201E+03 2.204E+03 4.741E+05 22.3776 1.00000
  1.700E+08 1.700E+08 2.711E+00 1.073E+03 1.517E+03 8.619E+01 2.676E+03 2.679E+03 4.865E+05 22.7659 1.00000
  2.000E+08 2.000E+08 2.729E+00 1.263E+03 1.785E+03 1.033E+02 3.151E+03 3.154E+03 4.969E+05 23.0909 1.00000
  2.500E+08 2.500E+08 2.754E+00 1.580E+03 2.231E+03 1.323E+02 3.943E+03 3.946E+03 5.111E+05 23.5372 1.00000
  3.000E+08 3.000E+08 2.775E+00 1.896E+03 2.678E+03 1.621E+02 4.736E+03 4.739E+03 5.227E+05 23.9019 1.00000
  3.500E+08 3.500E+08 2.792E+00 2.213E+03 3.125E+03 1.925E+02 5.530E+03 5.533E+03 5.325E+05 24.2102 1.00000
  4.000E+08 4.000E+08 2.808E+00 2.530E+03 3.571E+03 2.233E+02 6.324E+03 6.327E+03 5.410E+05 24.4772 1.00000
  4.500E+08 4.500E+08 2.821E+00 2.846E+03 4.018E+03 2.547E+02 7.119E+03 7.122E+03 5.485E+05 24.7128 1.00000
  5.000E+08 5.000E+08 2.833E+00 3.163E+03 4.464E+03 2.864E+02 7.914E+03 7.917E+03 5.551E+05 24.9235 1.00000
  5.500E+08 5.500E+08 2.845E+00 3.480E+03 4.911E+03 3.185E+02 8.709E+03 8.712E+03 5.612E+05 25.1141 1.00000
  6.000E+08 6.000E+08 2.855E+00 3.796E+03 5.358E+03 3.509E+02 9.505E+03 9.508E+03 5.666E+05 25.2882 1.00000
  7.000E+08 7.000E+08 2.873E+00 4.430E+03 6.251E+03 4.168E+02 1.110E+04 1.110E+04 5.764E+05 25.5965 1.00000
  8.000E+08 8.000E+08 2.889E+00 5.063E+03 7.144E+03 4.837E+02 1.269E+04 1.269E+04 5.849E+05 25.8635 1.00000
  9.000E+08 9.000E+08 2.903E+00 5.696E+03 8.037E+03 5.517E+02 1.429E+04 1.429E+04 5.923E+05 26.0991 1.00000
  1.000E+09 1.000E+09 2.915E+00 6.330E+03 8.931E+03 6.205E+02 1.588E+04 1.588E+04 5.989E+05 26.3098 1.00000
