 Incident particle is a Muon with M = 105.65839 MeV
 Index = 0: Propane
      Absorber with <Z/A> = 0.58948
 Sternheimer coef:  a     k=m_s   x_0    x_1    I[eV]   Cbar  delta0
                 0.0992  3.5920  1.4339  3.8011   47.1  8.7939 0.00

 *** Table generated with PUMAS v1.00 ***

      T         p     Ionization  brems     pair     photonuc  Radloss    dE/dx   CSDA Range  delta   beta
    [MeV]    [MeV/c]  -----------------------[MeV cm^2/g]------------------------  [g/cm^2]
  1.000E+00 1.457E+01 5.819E+01 5.953E-07 0.000E+00 0.000E+00 5.953E-07 5.819E+01 8.593E-03  0.0000 0.13661
  1.200E+00 1.597E+01 5.008E+01 6.803E-07 0.000E+00 0.000E+00 6.803E-07 5.008E+01 1.231E-02  0.0000 0.14944
  1.400E+00 1.726E+01 4.410E+01 7.616E-07 0.000E+00 0.000E+00 7.616E-07 4.410E+01 1.657E-02  0.0000 0.16119
  1.700E+00 1.903E+01 3.757E+01 8.777E-07 0.000E+00 0.000E+00 8.777E-07 3.757E+01 2.397E-02  0.0000 0.17725
  2.000E+00 2.066E+01 3.284E+01 9.879E-07 0.000E+00 0.000E+00 9.879E-07 3.284E+01 3.253E-02  0.0000 0.19186
  2.500E+00 2.312E+01 2.732E+01 1.161E-06 0.000E+00 0.000E+00 1.161E-06 2.732E+01 4.929E-02  0.0000 0.21376
  3.000E+00 2.536E+01 2.351E+01 1.323E-06 0.000E+00 0.000E+00 1.323E-06 2.351E+01 6.908E-02  0.0000 0.23336
  3.500E+00 2.742E+01 2.071E+01 1.476E-06 0.000E+00 0.000E+00 1.476E-06 2.071E+01 9.179E-02  0.0000 0.25120
  4.000E+00 2.935E+01 1.857E+01 1.622E-06 0.000E+00 0.000E+00 1.622E-06 1.857E+01 1.173E-01  0.0000 0.26763
  4.500E+00 3.116E+01 1.687E+01 1.761E-06 0.000E+00 0.000E+00 1.761E-06 1.687E+01 1.456E-01  0.0000 0.28290
  5.000E+00 3.289E+01 1.549E+01 1.895E-06 0.000E+00 0.000E+00 1.895E-06 1.549E+01 1.766E-01  0.0000 0.29720
  5.500E+00 3.453E+01 1.434E+01 2.024E-06 0.000E+00 0.000E+00 2.024E-06 1.434E+01 2.101E-01  0.0000 0.31066
  6.000E+00 3.611E+01 1.338E+01 2.148E-06 0.000E+00 0.000E+00 2.148E-06 1.338E+01 2.463E-01  0.0000 0.32339
  7.000E+00 3.909E+01 1.183E+01 2.385E-06 0.000E+00 0.000E+00 2.385E-06 1.183E+01 3.259E-01  0.0000 0.34700
  8.000E+00 4.189E+01 1.065E+01 2.609E-06 0.000E+00 0.000E+00 2.609E-06 1.065E+01 4.151E-01  0.0000 0.36854
  9.000E+00 4.453E+01 9.722E+00 2.822E-06 0.000E+00 0.000E+00 2.822E-06 9.722E+00 5.134E-01  0.0000 0.38836
  1.000E+01 4.704E+01 8.967E+00 3.025E-06 0.000E+00 0.000E+00 3.025E-06 8.967E+00 6.206E-01  0.0000 0.40675
  1.200E+01 5.177E+01 7.817E+00 3.408E-06 0.000E+00 0.000E+00 3.408E-06 7.817E+00 8.601E-01  0.0000 0.43998
  1.400E+01 5.616E+01 6.980E+00 3.765E-06 0.000E+00 0.000E+00 3.765E-06 6.980E+00 1.131E+00  0.0000 0.46937
  1.700E+01 6.230E+01 6.080E+00 4.264E-06 0.000E+00 0.000E+00 4.264E-06 6.080E+00 1.593E+00  0.0000 0.50792
  2.000E+01 6.802E+01 5.440E+00 4.730E-06 0.000E+00 0.000E+00 4.730E-06 5.440E+00 2.115E+00  0.0000 0.54129
  2.500E+01 7.686E+01 4.706E+00 5.454E-06 0.000E+00 0.000E+00 5.454E-06 4.706E+00 3.106E+00  0.0000 0.58827
  3.000E+01 8.509E+01 4.212E+00 6.133E-06 0.000E+00 0.000E+00 6.133E-06 4.212E+00 4.231E+00  0.0000 0.62720
  3.500E+01 9.285E+01 3.857E+00 6.782E-06 0.000E+00 0.000E+00 6.782E-06 3.857E+00 5.473E+00  0.0000 0.66011
  4.000E+01 1.003E+02 3.591E+00 7.411E-06 0.000E+00 0.000E+00 7.411E-06 3.591E+00 6.817E+00  0.0000 0.68834
  4.500E+01 1.074E+02 3.385E+00 8.027E-06 0.000E+00 0.000E+00 8.027E-06 3.385E+00 8.252E+00  0.0000 0.71286
  5.000E+01 1.143E+02 3.221E+00 8.635E-06 0.000E+00 0.000E+00 8.635E-06 3.221E+00 9.766E+00  0.0000 0.73434
  5.500E+01 1.210E+02 3.088E+00 9.237E-06 0.000E+00 0.000E+00 9.237E-06 3.088E+00 1.135E+01  0.0000 0.75332
  6.000E+01 1.276E+02 2.979E+00 9.838E-06 0.000E+00 0.000E+00 9.838E-06 2.979E+00 1.300E+01  0.0000 0.77019
  7.000E+01 1.403E+02 2.810E+00 1.104E-05 0.000E+00 0.000E+00 1.104E-05 2.810E+00 1.646E+01  0.0000 0.79887
  8.000E+01 1.527E+02 2.687E+00 1.224E-05 0.000E+00 0.000E+00 1.224E-05 2.687E+00 2.010E+01  0.0000 0.82227
  9.000E+01 1.647E+02 2.595E+00 1.347E-05 0.000E+00 0.000E+00 1.347E-05 2.595E+00 2.389E+01  0.0000 0.84166
  1.000E+02 1.764E+02 2.525E+00 1.470E-05 0.000E+00 0.000E+00 1.470E-05 2.525E+00 2.779E+01  0.0000 0.85794
  1.200E+02 1.994E+02 2.426E+00 1.724E-05 0.000E+00 0.000E+00 1.724E-05 2.426E+00 3.587E+01  0.0000 0.88361
  1.400E+02 2.218E+02 2.364E+00 1.986E-05 0.000E+00 0.000E+00 1.986E-05 2.364E+00 4.423E+01  0.0000 0.90278
  1.700E+02 2.546E+02 2.309E+00 2.397E-05 3.471E-14 0.000E+00 2.397E-05 2.309E+00 5.707E+01  0.0000 0.92363
  2.000E+02 2.868E+02 2.280E+00 2.826E-05 7.750E-12 0.000E+00 2.826E-05 2.280E+00 7.014E+01  0.0000 0.93835
  2.500E+02 3.396E+02 2.263E+00 3.584E-05 6.391E-08 0.000E+00 3.591E-05 2.263E+00 9.215E+01  0.0000 0.95485
  3.000E+02 3.917E+02 2.264E+00 4.390E-05 5.579E-07 0.000E+00 4.446E-05 2.265E+00 1.142E+02  0.0000 0.96548
  3.500E+02 4.432E+02 2.275E+00 5.240E-05 1.528E-06 0.000E+00 5.393E-05 2.275E+00 1.363E+02  0.0000 0.97274
  4.000E+02 4.945E+02 2.291E+00 6.130E-05 2.952E-06 0.000E+00 6.425E-05 2.291E+00 1.582E+02  0.0000 0.97793
  4.500E+02 5.455E+02 2.308E+00 7.057E-05 4.813E-06 0.000E+00 7.539E-05 2.308E+00 1.799E+02  0.0000 0.98176
  5.000E+02 5.964E+02 2.326E+00 8.019E-05 7.095E-06 0.000E+00 8.728E-05 2.327E+00 2.015E+02  0.0000 0.98467
  5.500E+02 6.471E+02 2.345E+00 9.013E-05 9.784E-06 0.000E+00 9.991E-05 2.345E+00 2.229E+02  0.0000 0.98693
  6.000E+02 6.977E+02 2.364E+00 1.004E-04 1.287E-05 0.000E+00 1.132E-04 2.364E+00 2.441E+02  0.0000 0.98873
  7.000E+02 7.987E+02 2.400E+00 1.217E-04 2.015E-05 0.000E+00 1.418E-04 2.400E+00 2.861E+02  0.0000 0.99136
  8.000E+02 8.995E+02 2.433E+00 1.440E-04 2.886E-05 0.000E+00 1.729E-04 2.434E+00 3.275E+02  0.0000 0.99317
  9.000E+02 1.000E+03 2.465E+00 1.672E-04 3.890E-05 0.000E+00 2.061E-04 2.465E+00 3.683E+02  0.0000 0.99447
  1.000E+03 1.101E+03 2.495E+00 1.913E-04 5.019E-05 0.000E+00 2.415E-04 2.495E+00 4.087E+02  0.0000 0.99542
  1.200E+03 1.301E+03 2.548E+00 2.418E-04 7.622E-05 2.258E-05 3.406E-04 2.548E+00 4.880E+02  0.0000 0.99672
  1.400E+03 1.502E+03 2.595E+00 2.949E-04 1.065E-04 6.196E-05 4.633E-04 2.595E+00 5.658E+02  0.0000 0.99753
  1.700E+03 1.803E+03 2.656E+00 3.789E-04 1.589E-04 1.333E-04 6.711E-04 2.657E+00 6.800E+02  0.0000 0.99829
  2.000E+03 2.103E+03 2.708E+00 4.676E-04 2.188E-04 2.179E-04 9.042E-04 2.709E+00 7.918E+02  0.0000 0.99874
  2.500E+03 2.604E+03 2.781E+00 6.240E-04 3.330E-04 3.823E-04 1.339E-03 2.782E+00 9.740E+02  0.0000 0.99918
  3.000E+03 3.104E+03 2.837E+00 7.896E-04 4.627E-04 5.562E-04 1.808E-03 2.839E+00 1.152E+03  0.0468 0.99942
  3.500E+03 3.604E+03 2.880E+00 9.631E-04 6.058E-04 7.413E-04 2.310E-03 2.882E+00 1.327E+03  0.1452 0.99957
  4.000E+03 4.104E+03 2.916E+00 1.144E-03 7.772E-04 9.400E-04 2.861E-03 2.919E+00 1.499E+03  0.2424 0.99967
  4.500E+03 4.604E+03 2.947E+00 1.330E-03 9.663E-04 1.147E-03 3.444E-03 2.950E+00 1.669E+03  0.3372 0.99974
  5.000E+03 5.105E+03 2.974E+00 1.522E-03 1.167E-03 1.347E-03 4.036E-03 2.978E+00 1.838E+03  0.4288 0.99979
  5.500E+03 5.605E+03 2.998E+00 1.719E-03 1.378E-03 1.563E-03 4.661E-03 3.002E+00 2.005E+03  0.5172 0.99982
  6.000E+03 6.105E+03 3.019E+00 1.921E-03 1.599E-03 1.764E-03 5.285E-03 3.024E+00 2.171E+03  0.6022 0.99985
  7.000E+03 7.105E+03 3.056E+00 2.337E-03 2.067E-03 2.193E-03 6.597E-03 3.063E+00 2.500E+03  0.7629 0.99989
  8.000E+03 8.105E+03 3.087E+00 2.768E-03 2.567E-03 2.619E-03 7.954E-03 3.095E+00 2.825E+03  0.9120 0.99992
  9.000E+03 9.105E+03 3.114E+00 3.213E-03 3.094E-03 3.021E-03 9.328E-03 3.123E+00 3.146E+03  1.0508 0.99993
  1.000E+04 1.011E+04 3.137E+00 3.669E-03 3.646E-03 3.438E-03 1.075E-02 3.148E+00 3.465E+03  1.1805 0.99995
  1.200E+04 1.211E+04 3.176E+00 4.612E-03 4.815E-03 4.284E-03 1.371E-02 3.190E+00 4.096E+03  1.4169 0.99996
  1.400E+04 1.411E+04 3.207E+00 5.591E-03 6.058E-03 5.135E-03 1.678E-02 3.224E+00 4.720E+03  1.6278 0.99997
  1.700E+04 1.711E+04 3.245E+00 7.118E-03 8.039E-03 6.400E-03 2.156E-02 3.267E+00 5.645E+03  1.9069 0.99998
  2.000E+04 2.011E+04 3.276E+00 8.702E-03 1.014E-02 7.646E-03 2.649E-02 3.302E+00 6.558E+03  2.1513 0.99999
  2.500E+04 2.511E+04 3.316E+00 1.145E-02 1.385E-02 9.699E-03 3.500E-02 3.351E+00 8.061E+03  2.5016 0.99999
  3.000E+04 3.011E+04 3.347E+00 1.430E-02 1.778E-02 1.172E-02 4.380E-02 3.390E+00 9.545E+03  2.7993 0.99999
  3.500E+04 3.511E+04 3.372E+00 1.725E-02 2.188E-02 1.377E-02 5.290E-02 3.425E+00 1.101E+04  3.0584 1.00000
  4.000E+04 4.011E+04 3.393E+00 2.028E-02 2.613E-02 1.580E-02 6.221E-02 3.455E+00 1.247E+04  3.2879 1.00000
  4.500E+04 4.511E+04 3.411E+00 2.337E-02 3.051E-02 1.781E-02 7.169E-02 3.483E+00 1.391E+04  3.4940 1.00000
  5.000E+04 5.011E+04 3.427E+00 2.652E-02 3.500E-02 1.982E-02 8.134E-02 3.508E+00 1.534E+04  3.6810 1.00000
  5.500E+04 5.511E+04 3.441E+00 2.972E-02 3.959E-02 2.185E-02 9.116E-02 3.532E+00 1.676E+04  3.8521 1.00000
  6.000E+04 6.011E+04 3.453E+00 3.297E-02 4.426E-02 2.386E-02 1.011E-01 3.554E+00 1.817E+04  4.0100 1.00000
  7.000E+04 7.011E+04 3.475E+00 3.960E-02 5.383E-02 2.786E-02 1.213E-01 3.596E+00 2.097E+04  4.2932 1.00000
  8.000E+04 8.011E+04 3.494E+00 4.638E-02 6.367E-02 3.187E-02 1.419E-01 3.635E+00 2.373E+04  4.5418 1.00000
  9.000E+04 9.011E+04 3.509E+00 5.328E-02 7.372E-02 3.589E-02 1.629E-01 3.672E+00 2.647E+04  4.7634 1.00000
  1.000E+05 1.001E+05 3.523E+00 6.029E-02 8.395E-02 3.984E-02 1.841E-01 3.708E+00 2.918E+04  4.9632 1.00000
  1.200E+05 1.201E+05 3.547E+00 7.460E-02 1.049E-01 4.789E-02 2.274E-01 3.775E+00 3.453E+04  5.3125 1.00000
  1.400E+05 1.401E+05 3.567E+00 8.923E-02 1.264E-01 5.595E-02 2.716E-01 3.838E+00 3.978E+04  5.6106 1.00000
  1.700E+05 1.701E+05 3.591E+00 1.117E-01 1.593E-01 6.807E-02 3.391E-01 3.930E+00 4.750E+04  5.9893 1.00000
  2.000E+05 2.001E+05 3.612E+00 1.346E-01 1.930E-01 8.028E-02 4.079E-01 4.019E+00 5.505E+04  6.3086 1.00000
  2.500E+05 2.501E+05 3.639E+00 1.736E-01 2.504E-01 1.007E-01 5.247E-01 4.164E+00 6.728E+04  6.7496 1.00000
  3.000E+05 3.001E+05 3.661E+00 2.135E-01 3.089E-01 1.213E-01 6.437E-01 4.305E+00 7.909E+04  7.1117 1.00000
  3.500E+05 3.501E+05 3.680E+00 2.541E-01 3.683E-01 1.422E-01 7.646E-01 4.444E+00 9.052E+04  7.4187 1.00000
  4.000E+05 4.001E+05 3.696E+00 2.952E-01 4.284E-01 1.632E-01 8.868E-01 4.583E+00 1.016E+05  7.6851 1.00000
  4.500E+05 4.501E+05 3.710E+00 3.367E-01 4.891E-01 1.843E-01 1.010E+00 4.720E+00 1.124E+05  7.9203 1.00000
  5.000E+05 5.001E+05 3.723E+00 3.787E-01 5.502E-01 2.056E-01 1.135E+00 4.858E+00 1.228E+05  8.1309 1.00000
  5.500E+05 5.501E+05 3.735E+00 4.211E-01 6.118E-01 2.268E-01 1.260E+00 4.994E+00 1.329E+05  8.3214 1.00000
  6.000E+05 6.001E+05 3.745E+00 4.637E-01 6.737E-01 2.481E-01 1.385E+00 5.131E+00 1.428E+05  8.4954 1.00000
  7.000E+05 7.001E+05 3.764E+00 5.498E-01 7.984E-01 2.910E-01 1.639E+00 5.403E+00 1.618E+05  8.8037 1.00000
  8.000E+05 8.001E+05 3.780E+00 6.368E-01 9.241E-01 3.345E-01 1.895E+00 5.676E+00 1.799E+05  9.0707 1.00000
  9.000E+05 9.001E+05 3.795E+00 7.246E-01 1.051E+00 3.783E-01 2.153E+00 5.948E+00 1.971E+05  9.3062 1.00000
  1.000E+06 1.000E+06 3.808E+00 8.130E-01 1.178E+00 4.226E-01 2.413E+00 6.221E+00 2.135E+05  9.5169 1.00000
  1.200E+06 1.200E+06 3.830E+00 9.913E-01 1.433E+00 5.123E-01 2.937E+00 6.767E+00 2.444E+05  9.8815 1.00000
  1.400E+06 1.400E+06 3.850E+00 1.171E+00 1.691E+00 6.032E-01 3.465E+00 7.315E+00 2.728E+05 10.1898 1.00000
  1.700E+06 1.700E+06 3.874E+00 1.444E+00 2.079E+00 7.418E-01 4.265E+00 8.139E+00 3.118E+05 10.5781 1.00000
  2.000E+06 2.000E+06 3.894E+00 1.719E+00 2.469E+00 8.827E-01 5.071E+00 8.965E+00 3.469E+05 10.9031 1.00000
  2.500E+06 2.500E+06 3.923E+00 2.181E+00 3.123E+00 1.122E+00 6.426E+00 1.035E+01 3.990E+05 11.3494 1.00000
  3.000E+06 3.000E+06 3.946E+00 2.648E+00 3.779E+00 1.366E+00 7.793E+00 1.174E+01 4.444E+05 11.7140 1.00000
  3.500E+06 3.500E+06 3.966E+00 3.117E+00 4.438E+00 1.613E+00 9.168E+00 1.313E+01 4.848E+05 12.0223 1.00000
  4.000E+06 4.000E+06 3.983E+00 3.588E+00 5.098E+00 1.865E+00 1.055E+01 1.453E+01 5.210E+05 12.2893 1.00000
  4.500E+06 4.500E+06 3.999E+00 4.061E+00 5.760E+00 2.119E+00 1.194E+01 1.594E+01 5.539E+05 12.5249 1.00000
  5.000E+06 5.000E+06 4.012E+00 4.536E+00 6.422E+00 2.376E+00 1.333E+01 1.735E+01 5.840E+05 12.7356 1.00000
  5.500E+06 5.500E+06 4.025E+00 5.012E+00 7.085E+00 2.636E+00 1.473E+01 1.876E+01 6.117E+05 12.9262 1.00000
  6.000E+06 6.000E+06 4.036E+00 5.489E+00 7.749E+00 2.899E+00 1.614E+01 2.017E+01 6.374E+05 13.1003 1.00000
  7.000E+06 7.000E+06 4.057E+00 6.446E+00 9.079E+00 3.430E+00 1.896E+01 2.301E+01 6.840E+05 13.4085 1.00000
  8.000E+06 8.000E+06 4.075E+00 7.406E+00 1.041E+01 3.970E+00 2.179E+01 2.586E+01 7.250E+05 13.6756 1.00000
  9.000E+06 9.000E+06 4.091E+00 8.369E+00 1.174E+01 4.516E+00 2.463E+01 2.872E+01 7.618E+05 13.9112 1.00000
  1.000E+07 1.000E+07 4.105E+00 9.333E+00 1.308E+01 5.069E+00 2.748E+01 3.158E+01 7.950E+05 14.1219 1.00000
  1.200E+07 1.200E+07 4.130E+00 1.127E+01 1.575E+01 6.192E+00 3.321E+01 3.734E+01 8.535E+05 14.4865 1.00000
  1.400E+07 1.400E+07 4.151E+00 1.321E+01 1.842E+01 7.335E+00 3.896E+01 4.311E+01 9.034E+05 14.7948 1.00000
  1.700E+07 1.700E+07 4.177E+00 1.612E+01 2.243E+01 9.083E+00 4.764E+01 5.181E+01 9.672E+05 15.1831 1.00000
  2.000E+07 2.000E+07 4.200E+00 1.904E+01 2.645E+01 1.086E+01 5.635E+01 6.055E+01 1.021E+06 15.5082 1.00000
  2.500E+07 2.500E+07 4.231E+00 2.392E+01 3.315E+01 1.389E+01 7.096E+01 7.519E+01 1.095E+06 15.9545 1.00000
  3.000E+07 3.000E+07 4.257E+00 2.881E+01 3.985E+01 1.699E+01 8.565E+01 8.991E+01 1.156E+06 16.3191 1.00000
  3.500E+07 3.500E+07 4.279E+00 3.370E+01 4.655E+01 2.015E+01 1.004E+02 1.047E+02 1.208E+06 16.6274 1.00000
  4.000E+07 4.000E+07 4.298E+00 3.860E+01 5.326E+01 2.336E+01 1.152E+02 1.195E+02 1.253E+06 16.8945 1.00000
  4.500E+07 4.500E+07 4.316E+00 4.350E+01 5.997E+01 2.661E+01 1.301E+02 1.344E+02 1.292E+06 17.1300 1.00000
  5.000E+07 5.000E+07 4.331E+00 4.841E+01 6.668E+01 2.990E+01 1.450E+02 1.493E+02 1.328E+06 17.3407 1.00000
  5.500E+07 5.500E+07 4.345E+00 5.332E+01 7.339E+01 3.323E+01 1.599E+02 1.643E+02 1.360E+06 17.5314 1.00000
  6.000E+07 6.000E+07 4.358E+00 5.823E+01 8.010E+01 3.659E+01 1.749E+02 1.793E+02 1.389E+06 17.7054 1.00000
  7.000E+07 7.000E+07 4.380E+00 6.805E+01 9.353E+01 4.340E+01 2.050E+02 2.094E+02 1.441E+06 18.0137 1.00000
  8.000E+07 8.000E+07 4.400E+00 7.788E+01 1.070E+02 5.033E+01 2.352E+02 2.396E+02 1.485E+06 18.2808 1.00000
  9.000E+07 9.000E+07 4.418E+00 8.772E+01 1.204E+02 5.736E+01 2.655E+02 2.699E+02 1.525E+06 18.5163 1.00000
  1.000E+08 1.000E+08 4.434E+00 9.756E+01 1.338E+02 6.447E+01 2.958E+02 3.003E+02 1.560E+06 18.7270 1.00000
  1.200E+08 1.200E+08 4.461E+00 1.172E+02 1.607E+02 7.893E+01 3.569E+02 3.613E+02 1.621E+06 19.0917 1.00000
  1.400E+08 1.400E+08 4.485E+00 1.369E+02 1.875E+02 9.367E+01 4.181E+02 4.226E+02 1.672E+06 19.4000 1.00000
  1.700E+08 1.700E+08 4.515E+00 1.665E+02 2.278E+02 1.162E+02 5.106E+02 5.151E+02 1.737E+06 19.7883 1.00000
  2.000E+08 2.000E+08 4.540E+00 1.961E+02 2.681E+02 1.393E+02 6.034E+02 6.080E+02 1.791E+06 20.1133 1.00000
  2.500E+08 2.500E+08 4.575E+00 2.453E+02 3.353E+02 1.785E+02 7.591E+02 7.637E+02 1.865E+06 20.5596 1.00000
  3.000E+08 3.000E+08 4.603E+00 2.946E+02 4.025E+02 2.186E+02 9.158E+02 9.204E+02 1.925E+06 20.9243 1.00000
  3.500E+08 3.500E+08 4.628E+00 3.439E+02 4.697E+02 2.596E+02 1.073E+03 1.078E+03 1.975E+06 21.2326 1.00000
  4.000E+08 4.000E+08 4.649E+00 3.932E+02 5.369E+02 3.012E+02 1.231E+03 1.236E+03 2.018E+06 21.4996 1.00000
  4.500E+08 4.500E+08 4.669E+00 4.426E+02 6.040E+02 3.435E+02 1.390E+03 1.395E+03 2.056E+06 21.7352 1.00000
  5.000E+08 5.000E+08 4.686E+00 4.919E+02 6.712E+02 3.862E+02 1.549E+03 1.554E+03 2.090E+06 21.9459 1.00000
  5.500E+08 5.500E+08 4.701E+00 5.412E+02 7.384E+02 4.295E+02 1.709E+03 1.714E+03 2.121E+06 22.1365 1.00000
  6.000E+08 6.000E+08 4.715E+00 5.905E+02 8.056E+02 4.733E+02 1.869E+03 1.874E+03 2.149E+06 22.3106 1.00000
  7.000E+08 7.000E+08 4.741E+00 6.892E+02 9.399E+02 5.621E+02 2.191E+03 2.196E+03 2.199E+06 22.6189 1.00000
  8.000E+08 8.000E+08 4.763E+00 7.878E+02 1.074E+03 6.524E+02 2.515E+03 2.519E+03 2.241E+06 22.8859 1.00000
  9.000E+08 9.000E+08 4.783E+00 8.865E+02 1.209E+03 7.440E+02 2.839E+03 2.844E+03 2.279E+06 23.1215 1.00000
  1.000E+09 1.000E+09 4.800E+00 9.851E+02 1.343E+03 8.369E+02 3.165E+03 3.170E+03 2.312E+06 23.3322 1.00000
