 Incident particle is a Muon with M = 105.65839 MeV
 Index = 0: Protactinium
      Absorber with <Z/A> = 0.39388
 Sternheimer coef:  a     k=m_s   x_0    x_1    I[eV]   Cbar  delta0
                 0.1477  2.9845  0.3144  3.5079  878.0  6.0327 0.14

 *** Table generated with PUMAS v1.00 ***

      T         p     Ionization  brems     pair     photonuc  Radloss    dE/dx   CSDA Range  delta   beta
    [MeV]    [MeV/c]  -----------------------[MeV cm^2/g]------------------------  [g/cm^2]
  1.000E+00 1.457E+01 1.992E+01 6.093E-06 0.000E+00 0.000E+00 6.093E-06 1.992E+01 2.510E-02  0.0006 0.13661
  1.200E+00 1.597E+01 1.762E+01 6.995E-06 0.000E+00 0.000E+00 6.995E-06 1.762E+01 3.580E-02  0.0008 0.14944
  1.400E+00 1.726E+01 1.585E+01 7.848E-06 0.000E+00 0.000E+00 7.848E-06 1.585E+01 4.779E-02  0.0009 0.16119
  1.700E+00 1.903E+01 1.384E+01 9.053E-06 0.000E+00 0.000E+00 9.053E-06 1.384E+01 6.809E-02  0.0011 0.17725
  2.000E+00 2.066E+01 1.233E+01 1.018E-05 0.000E+00 0.000E+00 1.018E-05 1.233E+01 9.110E-02  0.0013 0.19186
  2.500E+00 2.312E+01 1.051E+01 1.193E-05 0.000E+00 0.000E+00 1.193E-05 1.051E+01 1.352E-01  0.0016 0.21376
  3.000E+00 2.536E+01 9.206E+00 1.354E-05 0.000E+00 0.000E+00 1.354E-05 9.206E+00 1.861E-01  0.0019 0.23336
  3.500E+00 2.742E+01 8.228E+00 1.504E-05 0.000E+00 0.000E+00 1.504E-05 8.228E+00 2.437E-01  0.0022 0.25120
  4.000E+00 2.935E+01 7.464E+00 1.646E-05 0.000E+00 0.000E+00 1.646E-05 7.464E+00 3.075E-01  0.0025 0.26763
  4.500E+00 3.116E+01 6.848E+00 1.779E-05 0.000E+00 0.000E+00 1.779E-05 6.848E+00 3.775E-01  0.0029 0.28290
  5.000E+00 3.289E+01 6.341E+00 1.906E-05 0.000E+00 0.000E+00 1.906E-05 6.341E+00 4.535E-01  0.0032 0.29720
  5.500E+00 3.453E+01 5.915E+00 2.027E-05 0.000E+00 0.000E+00 2.027E-05 5.915E+00 5.352E-01  0.0035 0.31066
  6.000E+00 3.611E+01 5.552E+00 2.142E-05 0.000E+00 0.000E+00 2.142E-05 5.552E+00 6.225E-01  0.0038 0.32339
  7.000E+00 3.909E+01 4.966E+00 2.360E-05 0.000E+00 0.000E+00 2.360E-05 4.966E+00 8.132E-01  0.0045 0.34700
  8.000E+00 4.189E+01 4.511E+00 2.564E-05 0.000E+00 0.000E+00 2.564E-05 4.511E+00 1.025E+00  0.0052 0.36854
  9.000E+00 4.453E+01 4.148E+00 2.755E-05 0.000E+00 0.000E+00 2.755E-05 4.148E+00 1.256E+00  0.0058 0.38836
  1.000E+01 4.704E+01 3.851E+00 2.936E-05 0.000E+00 0.000E+00 2.936E-05 3.851E+00 1.507E+00  0.0065 0.40675
  1.200E+01 5.177E+01 3.393E+00 3.272E-05 0.000E+00 0.000E+00 3.272E-05 3.393E+00 2.061E+00  0.0079 0.43998
  1.400E+01 5.616E+01 3.055E+00 3.583E-05 0.000E+00 0.000E+00 3.583E-05 3.055E+00 2.683E+00  0.0093 0.46937
  1.700E+01 6.230E+01 2.688E+00 4.012E-05 0.000E+00 0.000E+00 4.012E-05 2.688E+00 3.732E+00  0.0114 0.50792
  2.000E+01 6.802E+01 2.425E+00 4.410E-05 0.000E+00 0.000E+00 4.410E-05 2.425E+00 4.909E+00  0.0136 0.54129
  2.500E+01 7.686E+01 2.119E+00 5.025E-05 0.000E+00 0.000E+00 5.025E-05 2.119E+00 7.120E+00  0.0174 0.58827
  3.000E+01 8.509E+01 1.911E+00 5.601E-05 0.000E+00 0.000E+00 5.601E-05 1.911E+00 9.607E+00  0.0213 0.62720
  3.500E+01 9.285E+01 1.762E+00 6.153E-05 0.000E+00 0.000E+00 6.153E-05 1.762E+00 1.233E+01  0.0254 0.66011
  4.000E+01 1.003E+02 1.649E+00 6.690E-05 0.000E+00 0.000E+00 6.690E-05 1.649E+00 1.527E+01  0.0296 0.68834
  4.500E+01 1.074E+02 1.562E+00 7.219E-05 0.000E+00 0.000E+00 7.219E-05 1.562E+00 1.839E+01  0.0340 0.71286
  5.000E+01 1.143E+02 1.492E+00 7.742E-05 0.000E+00 0.000E+00 7.742E-05 1.492E+00 2.166E+01  0.0385 0.73434
  5.500E+01 1.210E+02 1.436E+00 8.264E-05 0.000E+00 0.000E+00 8.264E-05 1.436E+00 2.508E+01  0.0432 0.75332
  6.000E+01 1.276E+02 1.389E+00 8.786E-05 0.000E+00 0.000E+00 8.786E-05 1.389E+00 2.862E+01  0.0480 0.77019
  7.000E+01 1.403E+02 1.318E+00 9.836E-05 0.000E+00 0.000E+00 9.836E-05 1.318E+00 3.601E+01  0.0581 0.79887
  8.000E+01 1.527E+02 1.266E+00 1.090E-04 0.000E+00 0.000E+00 1.090E-04 1.266E+00 4.376E+01  0.0687 0.82227
  9.000E+01 1.647E+02 1.228E+00 1.198E-04 0.000E+00 0.000E+00 1.198E-04 1.228E+00 5.178E+01  0.0799 0.84166
  1.000E+02 1.764E+02 1.199E+00 1.309E-04 0.000E+00 0.000E+00 1.309E-04 1.199E+00 6.002E+01  0.0918 0.85794
  1.200E+02 1.994E+02 1.159E+00 1.537E-04 0.000E+00 0.000E+00 1.537E-04 1.159E+00 7.699E+01  0.1172 0.88361
  1.400E+02 2.218E+02 1.135E+00 1.774E-04 0.000E+00 0.000E+00 1.774E-04 1.135E+00 9.442E+01  0.1413 0.90278
  1.700E+02 2.546E+02 1.117E+00 2.148E-04 0.000E+00 0.000E+00 2.148E-04 1.117E+00 1.211E+02  0.1588 0.92363
  2.000E+02 2.868E+02 1.109E+00 2.543E-04 0.000E+00 0.000E+00 2.543E-04 1.110E+00 1.480E+02  0.1817 0.93835
  2.500E+02 3.396E+02 1.109E+00 3.245E-04 0.000E+00 0.000E+00 3.245E-04 1.109E+00 1.931E+02  0.2262 0.95485
  3.000E+02 3.917E+02 1.116E+00 3.998E-04 0.000E+00 0.000E+00 3.998E-04 1.116E+00 2.380E+02  0.2747 0.96548
  3.500E+02 4.432E+02 1.126E+00 4.797E-04 0.000E+00 0.000E+00 4.797E-04 1.126E+00 2.826E+02  0.3246 0.97274
  4.000E+02 4.945E+02 1.137E+00 5.639E-04 0.000E+00 0.000E+00 5.639E-04 1.137E+00 3.268E+02  0.3747 0.97793
  4.500E+02 5.455E+02 1.148E+00 6.521E-04 0.000E+00 0.000E+00 6.521E-04 1.149E+00 3.705E+02  0.4243 0.98176
  5.000E+02 5.964E+02 1.160E+00 7.439E-04 6.024E-05 0.000E+00 8.041E-04 1.161E+00 4.138E+02  0.4732 0.98467
  5.500E+02 6.471E+02 1.171E+00 8.391E-04 1.184E-04 0.000E+00 9.575E-04 1.172E+00 4.567E+02  0.5211 0.98693
  6.000E+02 6.977E+02 1.182E+00 9.375E-04 1.606E-04 0.000E+00 1.098E-03 1.183E+00 4.992E+02  0.5678 0.98873
  7.000E+02 7.987E+02 1.203E+00 1.143E-03 2.560E-04 0.000E+00 1.399E-03 1.204E+00 5.829E+02  0.6580 0.99136
  8.000E+02 8.995E+02 1.222E+00 1.360E-03 3.699E-04 0.000E+00 1.730E-03 1.223E+00 6.653E+02  0.7437 0.99317
  9.000E+02 1.000E+03 1.239E+00 1.587E-03 5.015E-04 0.000E+00 2.088E-03 1.241E+00 7.465E+02  0.8252 0.99447
  1.000E+03 1.101E+03 1.255E+00 1.823E-03 6.498E-04 0.000E+00 2.472E-03 1.257E+00 8.265E+02  0.9028 0.99542
  1.200E+03 1.301E+03 1.283E+00 2.319E-03 9.925E-04 2.244E-05 3.334E-03 1.286E+00 9.839E+02  1.0474 0.99672
  1.400E+03 1.502E+03 1.307E+00 2.844E-03 1.391E-03 6.079E-05 4.296E-03 1.311E+00 1.138E+03  1.1799 0.99753
  1.700E+03 1.803E+03 1.337E+00 3.678E-03 2.083E-03 1.286E-04 5.890E-03 1.343E+00 1.364E+03  1.3600 0.99829
  2.000E+03 2.103E+03 1.363E+00 4.562E-03 2.874E-03 2.072E-04 7.643E-03 1.370E+00 1.585E+03  1.5217 0.99874
  2.500E+03 2.604E+03 1.397E+00 6.127E-03 4.382E-03 3.569E-04 1.087E-02 1.408E+00 1.945E+03  1.7598 0.99918
  3.000E+03 3.104E+03 1.425E+00 7.789E-03 6.095E-03 5.115E-04 1.440E-02 1.440E+00 2.296E+03  1.9676 0.99942
  3.500E+03 3.604E+03 1.449E+00 9.534E-03 7.982E-03 6.733E-04 1.819E-02 1.467E+00 2.640E+03  2.1524 0.99957
  4.000E+03 4.104E+03 1.468E+00 1.135E-02 1.003E-02 8.447E-04 2.222E-02 1.491E+00 2.979E+03  2.3190 0.99967
  4.500E+03 4.604E+03 1.486E+00 1.323E-02 1.222E-02 1.022E-03 2.647E-02 1.512E+00 3.312E+03  2.4709 0.99974
  5.000E+03 5.105E+03 1.501E+00 1.516E-02 1.453E-02 1.190E-03 3.088E-02 1.532E+00 3.640E+03  2.6104 0.99979
  5.500E+03 5.605E+03 1.515E+00 1.715E-02 1.695E-02 1.372E-03 3.547E-02 1.550E+00 3.965E+03  2.7397 0.99982
  6.000E+03 6.105E+03 1.527E+00 1.918E-02 1.947E-02 1.540E-03 4.020E-02 1.567E+00 4.285E+03  2.8601 0.99985
  7.000E+03 7.105E+03 1.548E+00 2.337E-02 2.479E-02 1.894E-03 5.005E-02 1.598E+00 4.917E+03  3.0790 0.99989
  8.000E+03 8.105E+03 1.566E+00 2.771E-02 3.042E-02 2.244E-03 6.037E-02 1.626E+00 5.538E+03  3.2741 0.99992
  9.000E+03 9.105E+03 1.582E+00 3.217E-02 3.633E-02 2.572E-03 7.107E-02 1.653E+00 6.148E+03  3.4504 0.99993
  1.000E+04 1.011E+04 1.595E+00 3.675E-02 4.248E-02 2.908E-03 8.214E-02 1.677E+00 6.748E+03  3.6112 0.99995
  1.200E+04 1.211E+04 1.618E+00 4.620E-02 5.543E-02 3.586E-03 1.052E-01 1.723E+00 7.925E+03  3.8963 0.99996
  1.400E+04 1.411E+04 1.637E+00 5.600E-02 6.909E-02 4.262E-03 1.293E-01 1.766E+00 9.071E+03  4.1437 0.99997
  1.700E+04 1.711E+04 1.660E+00 7.122E-02 9.069E-02 5.258E-03 1.672E-01 1.827E+00 1.074E+04  4.4634 0.99998
  2.000E+04 2.011E+04 1.679E+00 8.697E-02 1.134E-01 6.229E-03 2.066E-01 1.885E+00 1.236E+04  4.7373 0.99999
  2.500E+04 2.511E+04 1.703E+00 1.142E-01 1.531E-01 7.815E-03 2.751E-01 1.978E+00 1.495E+04  5.1224 0.99999
  3.000E+04 3.011E+04 1.722E+00 1.424E-01 1.948E-01 9.363E-03 3.465E-01 2.069E+00 1.742E+04  5.4442 0.99999
  3.500E+04 3.511E+04 1.738E+00 1.713E-01 2.379E-01 1.092E-02 4.202E-01 2.158E+00 1.979E+04  5.7209 1.00000
  4.000E+04 4.011E+04 1.751E+00 2.010E-01 2.823E-01 1.246E-02 4.958E-01 2.247E+00 2.206E+04  5.9638 1.00000
  4.500E+04 4.511E+04 1.763E+00 2.312E-01 3.278E-01 1.397E-02 5.729E-01 2.336E+00 2.424E+04  6.1804 1.00000
  5.000E+04 5.011E+04 1.773E+00 2.619E-01 3.741E-01 1.547E-02 6.515E-01 2.424E+00 2.634E+04  6.3759 1.00000
  5.500E+04 5.511E+04 1.782E+00 2.931E-01 4.212E-01 1.699E-02 7.313E-01 2.513E+00 2.837E+04  6.5541 1.00000
  6.000E+04 6.011E+04 1.790E+00 3.247E-01 4.689E-01 1.848E-02 8.121E-01 2.602E+00 3.032E+04  6.7179 1.00000
  7.000E+04 7.011E+04 1.804E+00 3.888E-01 5.662E-01 2.145E-02 9.764E-01 2.780E+00 3.404E+04  7.0104 1.00000
  8.000E+04 8.011E+04 1.816E+00 4.542E-01 6.653E-01 2.441E-02 1.144E+00 2.960E+00 3.753E+04  7.2660 1.00000
  9.000E+04 9.011E+04 1.826E+00 5.205E-01 7.661E-01 2.737E-02 1.314E+00 3.140E+00 4.081E+04  7.4930 1.00000
  1.000E+05 1.001E+05 1.835E+00 5.878E-01 8.681E-01 3.027E-02 1.486E+00 3.321E+00 4.391E+04  7.6972 1.00000
  1.200E+05 1.201E+05 1.851E+00 7.245E-01 1.076E+00 3.616E-02 1.836E+00 3.687E+00 4.963E+04  8.0530 1.00000
  1.400E+05 1.401E+05 1.863E+00 8.637E-01 1.286E+00 4.204E-02 2.192E+00 4.056E+00 5.481E+04  8.3558 1.00000
  1.700E+05 1.701E+05 1.880E+00 1.076E+00 1.608E+00 5.085E-02 2.735E+00 4.614E+00 6.176E+04  8.7393 1.00000
  2.000E+05 2.001E+05 1.893E+00 1.292E+00 1.934E+00 5.969E-02 3.286E+00 5.178E+00 6.791E+04  9.0619 1.00000
  2.500E+05 2.501E+05 1.911E+00 1.658E+00 2.484E+00 7.444E-02 4.217E+00 6.128E+00 7.682E+04  9.5065 1.00000
  3.000E+05 3.001E+05 1.926E+00 2.031E+00 3.042E+00 8.927E-02 5.162E+00 7.087E+00 8.442E+04  9.8707 1.00000
  3.500E+05 3.501E+05 1.938E+00 2.407E+00 3.604E+00 1.043E-01 6.116E+00 8.054E+00 9.106E+04 10.1789 1.00000
  4.000E+05 4.001E+05 1.949E+00 2.788E+00 4.171E+00 1.193E-01 7.078E+00 9.027E+00 9.693E+04 10.4458 1.00000
  4.500E+05 4.501E+05 1.958E+00 3.172E+00 4.741E+00 1.345E-01 8.047E+00 1.000E+01 1.022E+05 10.6814 1.00000
  5.000E+05 5.001E+05 1.967E+00 3.558E+00 5.313E+00 1.497E-01 9.020E+00 1.099E+01 1.070E+05 10.8920 1.00000
  5.500E+05 5.501E+05 1.975E+00 3.946E+00 5.887E+00 1.648E-01 9.998E+00 1.197E+01 1.113E+05 11.0826 1.00000
  6.000E+05 6.001E+05 1.982E+00 4.337E+00 6.464E+00 1.800E-01 1.098E+01 1.296E+01 1.154E+05 11.2566 1.00000
  7.000E+05 7.001E+05 1.994E+00 5.123E+00 7.621E+00 2.107E-01 1.295E+01 1.495E+01 1.226E+05 11.5649 1.00000
  8.000E+05 8.001E+05 2.005E+00 5.914E+00 8.783E+00 2.416E-01 1.494E+01 1.694E+01 1.288E+05 11.8319 1.00000
  9.000E+05 9.001E+05 2.015E+00 6.710E+00 9.949E+00 2.729E-01 1.693E+01 1.895E+01 1.344E+05 12.0674 1.00000
  1.000E+06 1.000E+06 2.024E+00 7.509E+00 1.112E+01 3.044E-01 1.893E+01 2.096E+01 1.395E+05 12.2781 1.00000
  1.200E+06 1.200E+06 2.039E+00 9.118E+00 1.346E+01 3.681E-01 2.295E+01 2.499E+01 1.482E+05 12.6427 1.00000
  1.400E+06 1.400E+06 2.051E+00 1.074E+01 1.582E+01 4.328E-01 2.699E+01 2.904E+01 1.557E+05 12.9510 1.00000
  1.700E+06 1.700E+06 2.068E+00 1.318E+01 1.936E+01 5.312E-01 3.307E+01 3.513E+01 1.651E+05 13.3393 1.00000
  2.000E+06 2.000E+06 2.081E+00 1.563E+01 2.291E+01 6.313E-01 3.917E+01 4.125E+01 1.730E+05 13.6643 1.00000
  2.500E+06 2.500E+06 2.100E+00 1.974E+01 2.884E+01 8.009E-01 4.938E+01 5.148E+01 1.839E+05 14.1106 1.00000
  3.000E+06 3.000E+06 2.116E+00 2.387E+01 3.479E+01 9.739E-01 5.963E+01 6.174E+01 1.928E+05 14.4752 1.00000
  3.500E+06 3.500E+06 2.129E+00 2.801E+01 4.074E+01 1.150E+00 6.990E+01 7.203E+01 2.004E+05 14.7835 1.00000
  4.000E+06 4.000E+06 2.141E+00 3.216E+01 4.670E+01 1.328E+00 8.019E+01 8.233E+01 2.069E+05 15.0505 1.00000
  4.500E+06 4.500E+06 2.151E+00 3.632E+01 5.267E+01 1.508E+00 9.050E+01 9.265E+01 2.126E+05 15.2861 1.00000
  5.000E+06 5.000E+06 2.160E+00 4.049E+01 5.864E+01 1.690E+00 1.008E+02 1.030E+02 2.177E+05 15.4968 1.00000
  5.500E+06 5.500E+06 2.169E+00 4.466E+01 6.462E+01 1.875E+00 1.112E+02 1.133E+02 2.224E+05 15.6874 1.00000
  6.000E+06 6.000E+06 2.176E+00 4.884E+01 7.060E+01 2.061E+00 1.215E+02 1.237E+02 2.266E+05 15.8615 1.00000
  7.000E+06 7.000E+06 2.190E+00 5.720E+01 8.256E+01 2.437E+00 1.422E+02 1.444E+02 2.341E+05 16.1697 1.00000
  8.000E+06 8.000E+06 2.202E+00 6.558E+01 9.454E+01 2.819E+00 1.629E+02 1.651E+02 2.406E+05 16.4368 1.00000
  9.000E+06 9.000E+06 2.212E+00 7.397E+01 1.065E+02 3.206E+00 1.837E+02 1.859E+02 2.463E+05 16.6724 1.00000
  1.000E+07 1.000E+07 2.222E+00 8.237E+01 1.185E+02 3.598E+00 2.045E+02 2.067E+02 2.514E+05 16.8831 1.00000
  1.200E+07 1.200E+07 2.238E+00 9.918E+01 1.425E+02 4.393E+00 2.461E+02 2.483E+02 2.603E+05 17.2477 1.00000
  1.400E+07 1.400E+07 2.253E+00 1.160E+02 1.665E+02 5.202E+00 2.877E+02 2.899E+02 2.678E+05 17.5560 1.00000
  1.700E+07 1.700E+07 2.270E+00 1.413E+02 2.025E+02 6.439E+00 3.502E+02 3.525E+02 2.772E+05 17.9443 1.00000
  2.000E+07 2.000E+07 2.286E+00 1.666E+02 2.385E+02 7.700E+00 4.128E+02 4.150E+02 2.851E+05 18.2694 1.00000
  2.500E+07 2.500E+07 2.307E+00 2.088E+02 2.985E+02 9.845E+00 5.171E+02 5.194E+02 2.959E+05 18.7157 1.00000
  3.000E+07 3.000E+07 2.324E+00 2.510E+02 3.586E+02 1.204E+01 6.216E+02 6.239E+02 3.047E+05 19.0803 1.00000
  3.500E+07 3.500E+07 2.339E+00 2.932E+02 4.186E+02 1.427E+01 7.262E+02 7.285E+02 3.122E+05 19.3886 1.00000
  4.000E+07 4.000E+07 2.351E+00 3.355E+02 4.787E+02 1.654E+01 8.308E+02 8.331E+02 3.186E+05 19.6557 1.00000
  4.500E+07 4.500E+07 2.363E+00 3.778E+02 5.388E+02 1.884E+01 9.354E+02 9.378E+02 3.243E+05 19.8912 1.00000
  5.000E+07 5.000E+07 2.373E+00 4.201E+02 5.989E+02 2.117E+01 1.040E+03 1.043E+03 3.293E+05 20.1019 1.00000
  5.500E+07 5.500E+07 2.382E+00 4.624E+02 6.590E+02 2.353E+01 1.145E+03 1.147E+03 3.339E+05 20.2926 1.00000
  6.000E+07 6.000E+07 2.391E+00 5.047E+02 7.191E+02 2.591E+01 1.250E+03 1.252E+03 3.381E+05 20.4666 1.00000
  7.000E+07 7.000E+07 2.406E+00 5.893E+02 8.393E+02 3.073E+01 1.459E+03 1.462E+03 3.455E+05 20.7749 1.00000
  8.000E+07 8.000E+07 2.419E+00 6.739E+02 9.595E+02 3.563E+01 1.669E+03 1.671E+03 3.519E+05 21.0420 1.00000
  9.000E+07 9.000E+07 2.431E+00 7.586E+02 1.080E+03 4.060E+01 1.879E+03 1.881E+03 3.575E+05 21.2775 1.00000
  1.000E+08 1.000E+08 2.442E+00 8.432E+02 1.200E+03 4.564E+01 2.089E+03 2.091E+03 3.626E+05 21.4882 1.00000
  1.200E+08 1.200E+08 2.460E+00 1.013E+03 1.440E+03 5.587E+01 2.509E+03 2.511E+03 3.714E+05 21.8529 1.00000
  1.400E+08 1.400E+08 2.476E+00 1.182E+03 1.681E+03 6.630E+01 2.929E+03 2.931E+03 3.788E+05 22.1612 1.00000
  1.700E+08 1.700E+08 2.496E+00 1.436E+03 2.042E+03 8.227E+01 3.560E+03 3.562E+03 3.881E+05 22.5495 1.00000
  2.000E+08 2.000E+08 2.513E+00 1.690E+03 2.402E+03 9.856E+01 4.191E+03 4.193E+03 3.959E+05 22.8745 1.00000
  2.500E+08 2.500E+08 2.536E+00 2.114E+03 3.003E+03 1.263E+02 5.243E+03 5.246E+03 4.066E+05 23.3208 1.00000
  3.000E+08 3.000E+08 2.555E+00 2.537E+03 3.605E+03 1.547E+02 6.296E+03 6.299E+03 4.153E+05 23.6855 1.00000
  3.500E+08 3.500E+08 2.572E+00 2.961E+03 4.206E+03 1.837E+02 7.350E+03 7.353E+03 4.227E+05 23.9938 1.00000
  4.000E+08 4.000E+08 2.586E+00 3.384E+03 4.807E+03 2.132E+02 8.404E+03 8.407E+03 4.291E+05 24.2608 1.00000
  4.500E+08 4.500E+08 2.599E+00 3.808E+03 5.408E+03 2.431E+02 9.459E+03 9.461E+03 4.347E+05 24.4964 1.00000
  5.000E+08 5.000E+08 2.610E+00 4.231E+03 6.009E+03 2.733E+02 1.051E+04 1.052E+04 4.397E+05 24.7071 1.00000
  5.500E+08 5.500E+08 2.620E+00 4.655E+03 6.610E+03 3.040E+02 1.157E+04 1.157E+04 4.442E+05 24.8977 1.00000
  6.000E+08 6.000E+08 2.630E+00 5.078E+03 7.211E+03 3.350E+02 1.262E+04 1.263E+04 4.484E+05 25.0718 1.00000
  7.000E+08 7.000E+08 2.647E+00 5.926E+03 8.414E+03 3.978E+02 1.474E+04 1.474E+04 4.557E+05 25.3801 1.00000
  8.000E+08 8.000E+08 2.662E+00 6.773E+03 9.616E+03 4.617E+02 1.685E+04 1.685E+04 4.621E+05 25.6471 1.00000
  9.000E+08 9.000E+08 2.675E+00 7.620E+03 1.082E+04 5.265E+02 1.896E+04 1.897E+04 4.677E+05 25.8827 1.00000
  1.000E+09 1.000E+09 2.687E+00 8.467E+03 1.202E+04 5.923E+02 2.108E+04 2.108E+04 4.727E+05 26.0934 1.00000
