 Incident particle is a Muon with M = 105.65839 MeV
 Index = 0: Pyridine
      Absorber with <Z/A> = 0.53092
 Sternheimer coef:  a     k=m_s   x_0    x_1    I[eV]   Cbar  delta0
                 0.1640  3.1977  0.1670  2.5245   66.2  3.3148 0.00

 *** Table generated with PUMAS v1.00 ***

      T         p     Ionization  brems     pair     photonuc  Radloss    dE/dx   CSDA Range  delta   beta
    [MeV]    [MeV/c]  -----------------------[MeV cm^2/g]------------------------  [g/cm^2]
  1.000E+00 1.457E+01 4.943E+01 6.527E-07 0.000E+00 0.000E+00 6.527E-07 4.943E+01 1.011E-02  0.0000 0.13661
  1.200E+00 1.597E+01 4.262E+01 7.473E-07 0.000E+00 0.000E+00 7.473E-07 4.262E+01 1.448E-02  0.0000 0.14944
  1.400E+00 1.726E+01 3.758E+01 8.376E-07 0.000E+00 0.000E+00 8.376E-07 3.758E+01 1.949E-02  0.0000 0.16119
  1.700E+00 1.903E+01 3.207E+01 9.666E-07 0.000E+00 0.000E+00 9.666E-07 3.207E+01 2.816E-02  0.0000 0.17725
  2.000E+00 2.066E+01 2.807E+01 1.089E-06 0.000E+00 0.000E+00 1.089E-06 2.807E+01 3.818E-02  0.0000 0.19186
  2.500E+00 2.312E+01 2.339E+01 1.281E-06 0.000E+00 0.000E+00 1.281E-06 2.339E+01 5.778E-02  0.0000 0.21376
  3.000E+00 2.536E+01 2.015E+01 1.461E-06 0.000E+00 0.000E+00 1.461E-06 2.015E+01 8.087E-02  0.0000 0.23336
  3.500E+00 2.742E+01 1.777E+01 1.631E-06 0.000E+00 0.000E+00 1.631E-06 1.777E+01 1.073E-01  0.0000 0.25120
  4.000E+00 2.935E+01 1.595E+01 1.792E-06 0.000E+00 0.000E+00 1.792E-06 1.595E+01 1.371E-01  0.0000 0.26763
  4.500E+00 3.116E+01 1.450E+01 1.946E-06 0.000E+00 0.000E+00 1.946E-06 1.450E+01 1.700E-01  0.0000 0.28290
  5.000E+00 3.289E+01 1.332E+01 2.094E-06 0.000E+00 0.000E+00 2.094E-06 1.332E+01 2.060E-01  0.0000 0.29720
  5.500E+00 3.453E+01 1.234E+01 2.237E-06 0.000E+00 0.000E+00 2.237E-06 1.234E+01 2.450E-01  0.0000 0.31066
  6.000E+00 3.611E+01 1.152E+01 2.374E-06 0.000E+00 0.000E+00 2.374E-06 1.152E+01 2.870E-01  0.0000 0.32339
  7.000E+00 3.909E+01 1.020E+01 2.636E-06 0.000E+00 0.000E+00 2.636E-06 1.020E+01 3.795E-01  0.0000 0.34700
  8.000E+00 4.189E+01 9.187E+00 2.883E-06 0.000E+00 0.000E+00 2.883E-06 9.187E+00 4.829E-01  0.0000 0.36854
  9.000E+00 4.453E+01 8.388E+00 3.118E-06 0.000E+00 0.000E+00 3.118E-06 8.388E+00 5.970E-01  0.0000 0.38836
  1.000E+01 4.704E+01 7.741E+00 3.342E-06 0.000E+00 0.000E+00 3.342E-06 7.741E+00 7.212E-01  0.0000 0.40675
  1.200E+01 5.177E+01 6.753E+00 3.764E-06 0.000E+00 0.000E+00 3.764E-06 6.753E+00 9.984E-01  0.0000 0.43998
  1.400E+01 5.616E+01 6.035E+00 4.157E-06 0.000E+00 0.000E+00 4.157E-06 6.035E+00 1.312E+00  0.0000 0.46937
  1.700E+01 6.230E+01 5.261E+00 4.706E-06 0.000E+00 0.000E+00 4.706E-06 5.261E+00 1.846E+00  0.0000 0.50792
  2.000E+01 6.802E+01 4.710E+00 5.219E-06 0.000E+00 0.000E+00 5.219E-06 4.710E+00 2.449E+00  0.0000 0.54129
  2.500E+01 7.686E+01 4.078E+00 6.014E-06 0.000E+00 0.000E+00 6.014E-06 4.078E+00 3.593E+00  0.0000 0.58827
  3.000E+01 8.509E+01 3.652E+00 6.760E-06 0.000E+00 0.000E+00 6.760E-06 3.652E+00 4.891E+00  0.0000 0.62720
  3.500E+01 9.285E+01 3.346E+00 7.473E-06 0.000E+00 0.000E+00 7.473E-06 3.346E+00 6.322E+00  0.0000 0.66011
  4.000E+01 1.003E+02 3.117E+00 8.165E-06 0.000E+00 0.000E+00 8.165E-06 3.117E+00 7.872E+00  0.0000 0.68834
  4.500E+01 1.074E+02 2.940E+00 8.842E-06 0.000E+00 0.000E+00 8.842E-06 2.940E+00 9.524E+00  0.0000 0.71286
  5.000E+01 1.143E+02 2.798E+00 9.509E-06 0.000E+00 0.000E+00 9.509E-06 2.798E+00 1.127E+01  0.0000 0.73434
  5.500E+01 1.210E+02 2.684E+00 1.017E-05 0.000E+00 0.000E+00 1.017E-05 2.684E+00 1.309E+01  0.0000 0.75332
  6.000E+01 1.276E+02 2.589E+00 1.083E-05 0.000E+00 0.000E+00 1.083E-05 2.589E+00 1.499E+01  0.0000 0.77019
  7.000E+01 1.403E+02 2.444E+00 1.215E-05 0.000E+00 0.000E+00 1.215E-05 2.444E+00 1.897E+01  0.0000 0.79887
  8.000E+01 1.527E+02 2.338E+00 1.348E-05 0.000E+00 0.000E+00 1.348E-05 2.338E+00 2.315E+01  0.0000 0.82227
  9.000E+01 1.647E+02 2.256E+00 1.482E-05 0.000E+00 0.000E+00 1.482E-05 2.256E+00 2.751E+01  0.0308 0.84166
  1.000E+02 1.764E+02 2.191E+00 1.618E-05 0.000E+00 0.000E+00 1.618E-05 2.191E+00 3.200E+01  0.0692 0.85794
  1.200E+02 1.994E+02 2.099E+00 1.897E-05 0.000E+00 0.000E+00 1.897E-05 2.099E+00 4.133E+01  0.1442 0.88361
  1.400E+02 2.218E+02 2.039E+00 2.186E-05 0.000E+00 0.000E+00 2.186E-05 2.039E+00 5.100E+01  0.2163 0.90278
  1.700E+02 2.546E+02 1.984E+00 2.638E-05 3.856E-14 0.000E+00 2.638E-05 1.984E+00 6.591E+01  0.3194 0.92363
  2.000E+02 2.868E+02 1.952E+00 3.111E-05 8.613E-12 0.000E+00 3.111E-05 1.952E+00 8.116E+01  0.4167 0.93835
  2.500E+02 3.396E+02 1.926E+00 3.946E-05 7.109E-08 0.000E+00 3.953E-05 1.926E+00 1.069E+02  0.5674 0.95485
  3.000E+02 3.917E+02 1.918E+00 4.835E-05 6.241E-07 0.000E+00 4.897E-05 1.918E+00 1.330E+02  0.7058 0.96548
  3.500E+02 4.432E+02 1.919E+00 5.771E-05 1.712E-06 0.000E+00 5.943E-05 1.919E+00 1.590E+02  0.8339 0.97274
  4.000E+02 4.945E+02 1.924E+00 6.752E-05 3.310E-06 0.000E+00 7.083E-05 1.924E+00 1.850E+02  0.9532 0.97793
  4.500E+02 5.455E+02 1.931E+00 7.775E-05 5.399E-06 0.000E+00 8.315E-05 1.931E+00 2.110E+02  1.0648 0.98176
  5.000E+02 5.964E+02 1.940E+00 8.835E-05 7.962E-06 0.000E+00 9.631E-05 1.940E+00 2.368E+02  1.1699 0.98467
  5.500E+02 6.471E+02 1.949E+00 9.930E-05 1.098E-05 0.000E+00 1.103E-04 1.949E+00 2.625E+02  1.2692 0.98693
  6.000E+02 6.977E+02 1.958E+00 1.106E-04 1.444E-05 0.000E+00 1.250E-04 1.958E+00 2.881E+02  1.3632 0.98873
  7.000E+02 7.987E+02 1.977E+00 1.341E-04 2.263E-05 0.000E+00 1.567E-04 1.977E+00 3.389E+02  1.5379 0.99136
  8.000E+02 8.995E+02 1.995E+00 1.587E-04 3.241E-05 0.000E+00 1.911E-04 1.995E+00 3.893E+02  1.6974 0.99317
  9.000E+02 1.000E+03 2.012E+00 1.843E-04 4.369E-05 0.000E+00 2.280E-04 2.012E+00 4.392E+02  1.8442 0.99447
  1.000E+03 1.101E+03 2.028E+00 2.109E-04 5.637E-05 0.000E+00 2.672E-04 2.028E+00 4.887E+02  1.9804 0.99542
  1.200E+03 1.301E+03 2.056E+00 2.664E-04 8.563E-05 2.256E-05 3.746E-04 2.057E+00 5.866E+02  2.2265 0.99672
  1.400E+03 1.502E+03 2.081E+00 3.250E-04 1.196E-04 6.185E-05 5.065E-04 2.082E+00 6.833E+02  2.4444 0.99753
  1.700E+03 1.803E+03 2.113E+00 4.176E-04 1.785E-04 1.328E-04 7.289E-04 2.114E+00 8.263E+02  2.7313 0.99829
  2.000E+03 2.103E+03 2.140E+00 5.152E-04 2.458E-04 2.167E-04 9.777E-04 2.141E+00 9.673E+02  2.9813 0.99874
  2.500E+03 2.604E+03 2.177E+00 6.872E-04 3.742E-04 3.796E-04 1.441E-03 2.178E+00 1.199E+03  3.3384 0.99918
  3.000E+03 3.104E+03 2.207E+00 8.693E-04 5.200E-04 5.514E-04 1.941E-03 2.208E+00 1.427E+03  3.6411 0.99942
  3.500E+03 3.604E+03 2.232E+00 1.060E-03 6.807E-04 7.340E-04 2.475E-03 2.234E+00 1.652E+03  3.9041 0.99957
  4.000E+03 4.104E+03 2.253E+00 1.258E-03 8.695E-04 9.296E-04 3.057E-03 2.256E+00 1.875E+03  4.1367 0.99967
  4.500E+03 4.604E+03 2.271E+00 1.463E-03 1.077E-03 1.133E-03 3.673E-03 2.275E+00 2.095E+03  4.3454 0.99974
  5.000E+03 5.105E+03 2.288E+00 1.674E-03 1.296E-03 1.330E-03 4.300E-03 2.292E+00 2.314E+03  4.5346 0.99979
  5.500E+03 5.605E+03 2.303E+00 1.890E-03 1.527E-03 1.542E-03 4.959E-03 2.308E+00 2.532E+03  4.7078 0.99982
  6.000E+03 6.105E+03 2.316E+00 2.111E-03 1.769E-03 1.739E-03 5.619E-03 2.322E+00 2.748E+03  4.8674 0.99985
  7.000E+03 7.105E+03 2.339E+00 2.567E-03 2.280E-03 2.159E-03 7.006E-03 2.346E+00 3.176E+03  5.1535 0.99989
  8.000E+03 8.105E+03 2.359E+00 3.038E-03 2.825E-03 2.577E-03 8.440E-03 2.367E+00 3.601E+03  5.4045 0.99992
  9.000E+03 9.105E+03 2.376E+00 3.524E-03 3.400E-03 2.971E-03 9.895E-03 2.386E+00 4.021E+03  5.6281 0.99993
  1.000E+04 1.011E+04 2.391E+00 4.023E-03 4.001E-03 3.378E-03 1.140E-02 2.402E+00 4.439E+03  5.8298 0.99995
  1.200E+04 1.211E+04 2.416E+00 5.052E-03 5.273E-03 4.205E-03 1.453E-02 2.431E+00 5.267E+03  6.1818 0.99996
  1.400E+04 1.411E+04 2.437E+00 6.121E-03 6.625E-03 5.036E-03 1.778E-02 2.455E+00 6.085E+03  6.4821 0.99997
  1.700E+04 1.711E+04 2.463E+00 7.784E-03 8.778E-03 6.270E-03 2.283E-02 2.486E+00 7.300E+03  6.8632 0.99998
  2.000E+04 2.011E+04 2.485E+00 9.509E-03 1.106E-02 7.484E-03 2.805E-02 2.513E+00 8.500E+03  7.1841 0.99999
  2.500E+04 2.511E+04 2.513E+00 1.250E-02 1.508E-02 9.483E-03 3.706E-02 2.550E+00 1.048E+04  7.6268 0.99999
  3.000E+04 3.011E+04 2.535E+00 1.560E-02 1.934E-02 1.145E-02 4.639E-02 2.582E+00 1.242E+04  7.9897 0.99999
  3.500E+04 3.511E+04 2.554E+00 1.880E-02 2.379E-02 1.344E-02 5.603E-02 2.610E+00 1.435E+04  8.2970 1.00000
  4.000E+04 4.011E+04 2.570E+00 2.208E-02 2.839E-02 1.542E-02 6.588E-02 2.636E+00 1.626E+04  8.5633 1.00000
  4.500E+04 4.511E+04 2.584E+00 2.543E-02 3.313E-02 1.737E-02 7.592E-02 2.660E+00 1.814E+04  8.7983 1.00000
  5.000E+04 5.011E+04 2.597E+00 2.884E-02 3.798E-02 1.932E-02 8.614E-02 2.683E+00 2.002E+04  9.0086 1.00000
  5.500E+04 5.511E+04 2.608E+00 3.231E-02 4.294E-02 2.129E-02 9.654E-02 2.704E+00 2.187E+04  9.1988 1.00000
  6.000E+04 6.011E+04 2.618E+00 3.583E-02 4.799E-02 2.324E-02 1.071E-01 2.725E+00 2.371E+04  9.3725 1.00000
  7.000E+04 7.011E+04 2.635E+00 4.300E-02 5.833E-02 2.712E-02 1.284E-01 2.764E+00 2.736E+04  9.6803 1.00000
  8.000E+04 8.011E+04 2.650E+00 5.032E-02 6.894E-02 3.101E-02 1.503E-01 2.801E+00 3.095E+04  9.9470 1.00000
  9.000E+04 9.011E+04 2.664E+00 5.778E-02 7.979E-02 3.490E-02 1.725E-01 2.836E+00 3.450E+04 10.1823 1.00000
  1.000E+05 1.001E+05 2.675E+00 6.535E-02 9.083E-02 3.873E-02 1.949E-01 2.870E+00 3.801E+04 10.3927 1.00000
  1.200E+05 1.201E+05 2.695E+00 8.079E-02 1.134E-01 4.653E-02 2.407E-01 2.936E+00 4.490E+04 10.7570 1.00000
  1.400E+05 1.401E+05 2.712E+00 9.658E-02 1.365E-01 5.434E-02 2.874E-01 3.000E+00 5.164E+04 11.0651 1.00000
  1.700E+05 1.701E+05 2.734E+00 1.208E-01 1.720E-01 6.607E-02 3.588E-01 3.093E+00 6.149E+04 11.4531 1.00000
  2.000E+05 2.001E+05 2.751E+00 1.454E-01 2.082E-01 7.788E-02 4.316E-01 3.183E+00 7.105E+04 11.7780 1.00000
  2.500E+05 2.501E+05 2.776E+00 1.875E-01 2.699E-01 9.765E-02 5.550E-01 3.331E+00 8.641E+04 12.2241 1.00000
  3.000E+05 3.001E+05 2.795E+00 2.304E-01 3.328E-01 1.176E-01 6.808E-01 3.476E+00 1.011E+05 12.5886 1.00000
  3.500E+05 3.501E+05 2.812E+00 2.740E-01 3.966E-01 1.378E-01 8.083E-01 3.621E+00 1.152E+05 12.8968 1.00000
  4.000E+05 4.001E+05 2.827E+00 3.182E-01 4.611E-01 1.581E-01 9.373E-01 3.764E+00 1.288E+05 13.1637 1.00000
  4.500E+05 4.501E+05 2.840E+00 3.628E-01 5.262E-01 1.785E-01 1.067E+00 3.907E+00 1.418E+05 13.3993 1.00000
  5.000E+05 5.001E+05 2.851E+00 4.079E-01 5.918E-01 1.991E-01 1.199E+00 4.050E+00 1.544E+05 13.6099 1.00000
  5.500E+05 5.501E+05 2.862E+00 4.534E-01 6.578E-01 2.195E-01 1.331E+00 4.192E+00 1.665E+05 13.8005 1.00000
  6.000E+05 6.001E+05 2.871E+00 4.992E-01 7.242E-01 2.401E-01 1.463E+00 4.334E+00 1.782E+05 13.9745 1.00000
  7.000E+05 7.001E+05 2.888E+00 5.916E-01 8.578E-01 2.816E-01 1.731E+00 4.619E+00 2.006E+05 14.2828 1.00000
  8.000E+05 8.001E+05 2.903E+00 6.849E-01 9.925E-01 3.236E-01 2.001E+00 4.904E+00 2.216E+05 14.5498 1.00000
  9.000E+05 9.001E+05 2.916E+00 7.790E-01 1.128E+00 3.660E-01 2.273E+00 5.189E+00 2.414E+05 14.7853 1.00000
  1.000E+06 1.000E+06 2.927E+00 8.737E-01 1.264E+00 4.088E-01 2.546E+00 5.474E+00 2.602E+05 14.9960 1.00000
  1.200E+06 1.200E+06 2.948E+00 1.065E+00 1.538E+00 4.954E-01 3.098E+00 6.046E+00 2.950E+05 15.3606 1.00000
  1.400E+06 1.400E+06 2.965E+00 1.258E+00 1.813E+00 5.832E-01 3.654E+00 6.619E+00 3.267E+05 15.6689 1.00000
  1.700E+06 1.700E+06 2.987E+00 1.550E+00 2.229E+00 7.171E-01 4.495E+00 7.482E+00 3.694E+05 16.0572 1.00000
  2.000E+06 2.000E+06 3.005E+00 1.844E+00 2.646E+00 8.531E-01 5.343E+00 8.349E+00 4.074E+05 16.3822 1.00000
  2.500E+06 2.500E+06 3.031E+00 2.339E+00 3.345E+00 1.084E+00 6.768E+00 9.799E+00 4.629E+05 16.8285 1.00000
  3.000E+06 3.000E+06 3.052E+00 2.838E+00 4.047E+00 1.319E+00 8.204E+00 1.126E+01 5.106E+05 17.1931 1.00000
  3.500E+06 3.500E+06 3.070E+00 3.339E+00 4.751E+00 1.559E+00 9.649E+00 1.272E+01 5.524E+05 17.5014 1.00000
  4.000E+06 4.000E+06 3.085E+00 3.843E+00 5.456E+00 1.801E+00 1.110E+01 1.419E+01 5.897E+05 17.7684 1.00000
  4.500E+06 4.500E+06 3.099E+00 4.349E+00 6.163E+00 2.047E+00 1.256E+01 1.566E+01 6.233E+05 18.0040 1.00000
  5.000E+06 5.000E+06 3.112E+00 4.856E+00 6.871E+00 2.296E+00 1.402E+01 1.713E+01 6.539E+05 18.2147 1.00000
  5.500E+06 5.500E+06 3.123E+00 5.365E+00 7.580E+00 2.547E+00 1.549E+01 1.861E+01 6.819E+05 18.4053 1.00000
  6.000E+06 6.000E+06 3.133E+00 5.875E+00 8.289E+00 2.800E+00 1.696E+01 2.010E+01 7.078E+05 18.5794 1.00000
  7.000E+06 7.000E+06 3.152E+00 6.897E+00 9.710E+00 3.313E+00 1.992E+01 2.307E+01 7.543E+05 18.8876 1.00000
  8.000E+06 8.000E+06 3.168E+00 7.922E+00 1.113E+01 3.834E+00 2.289E+01 2.606E+01 7.952E+05 19.1547 1.00000
  9.000E+06 9.000E+06 3.182E+00 8.950E+00 1.256E+01 4.362E+00 2.587E+01 2.905E+01 8.316E+05 19.3903 1.00000
  1.000E+07 1.000E+07 3.195E+00 9.980E+00 1.398E+01 4.896E+00 2.886E+01 3.205E+01 8.644E+05 19.6010 1.00000
  1.200E+07 1.200E+07 3.217E+00 1.204E+01 1.683E+01 5.980E+00 3.486E+01 3.807E+01 9.218E+05 19.9656 1.00000
  1.400E+07 1.400E+07 3.236E+00 1.411E+01 1.969E+01 7.084E+00 4.089E+01 4.412E+01 9.708E+05 20.2739 1.00000
  1.700E+07 1.700E+07 3.260E+00 1.723E+01 2.397E+01 8.771E+00 4.997E+01 5.323E+01 1.033E+06 20.6622 1.00000
  2.000E+07 2.000E+07 3.281E+00 2.034E+01 2.826E+01 1.049E+01 5.910E+01 6.238E+01 1.085E+06 20.9873 1.00000
  2.500E+07 2.500E+07 3.309E+00 2.555E+01 3.541E+01 1.342E+01 7.438E+01 7.769E+01 1.157E+06 21.4336 1.00000
  3.000E+07 3.000E+07 3.332E+00 3.076E+01 4.257E+01 1.641E+01 8.974E+01 9.308E+01 1.216E+06 21.7982 1.00000
  3.500E+07 3.500E+07 3.352E+00 3.598E+01 4.973E+01 1.946E+01 1.052E+02 1.085E+02 1.266E+06 22.1065 1.00000
  4.000E+07 4.000E+07 3.369E+00 4.121E+01 5.689E+01 2.255E+01 1.207E+02 1.240E+02 1.310E+06 22.3736 1.00000
  4.500E+07 4.500E+07 3.385E+00 4.644E+01 6.406E+01 2.569E+01 1.362E+02 1.396E+02 1.348E+06 22.6091 1.00000
  5.000E+07 5.000E+07 3.398E+00 5.167E+01 7.122E+01 2.887E+01 1.518E+02 1.552E+02 1.382E+06 22.8198 1.00000
  5.500E+07 5.500E+07 3.411E+00 5.690E+01 7.839E+01 3.208E+01 1.674E+02 1.708E+02 1.412E+06 23.0105 1.00000
  6.000E+07 6.000E+07 3.422E+00 6.214E+01 8.555E+01 3.533E+01 1.830E+02 1.864E+02 1.440E+06 23.1845 1.00000
  7.000E+07 7.000E+07 3.443E+00 7.262E+01 9.989E+01 4.191E+01 2.144E+02 2.179E+02 1.490E+06 23.4928 1.00000
  8.000E+07 8.000E+07 3.461E+00 8.310E+01 1.142E+02 4.860E+01 2.459E+02 2.494E+02 1.533E+06 23.7599 1.00000
  9.000E+07 9.000E+07 3.477E+00 9.359E+01 1.286E+02 5.538E+01 2.775E+02 2.810E+02 1.571E+06 23.9954 1.00000
  1.000E+08 1.000E+08 3.491E+00 1.041E+02 1.429E+02 6.225E+01 3.092E+02 3.127E+02 1.605E+06 24.2061 1.00000
  1.200E+08 1.200E+08 3.516E+00 1.251E+02 1.716E+02 7.622E+01 3.729E+02 3.764E+02 1.663E+06 24.5708 1.00000
  1.400E+08 1.400E+08 3.537E+00 1.461E+02 2.003E+02 9.045E+01 4.368E+02 4.403E+02 1.713E+06 24.8791 1.00000
  1.700E+08 1.700E+08 3.564E+00 1.776E+02 2.433E+02 1.122E+02 5.331E+02 5.367E+02 1.775E+06 25.2674 1.00000
  2.000E+08 2.000E+08 3.587E+00 2.091E+02 2.863E+02 1.345E+02 6.299E+02 6.335E+02 1.826E+06 25.5924 1.00000
  2.500E+08 2.500E+08 3.618E+00 2.616E+02 3.580E+02 1.723E+02 7.920E+02 7.957E+02 1.897E+06 26.0387 1.00000
  3.000E+08 3.000E+08 3.644E+00 3.142E+02 4.298E+02 2.111E+02 9.551E+02 9.587E+02 1.955E+06 26.4034 1.00000
  3.500E+08 3.500E+08 3.666E+00 3.668E+02 5.015E+02 2.506E+02 1.119E+03 1.123E+03 2.003E+06 26.7117 1.00000
  4.000E+08 4.000E+08 3.685E+00 4.193E+02 5.732E+02 2.908E+02 1.283E+03 1.287E+03 2.045E+06 26.9787 1.00000
  4.500E+08 4.500E+08 3.703E+00 4.719E+02 6.450E+02 3.316E+02 1.448E+03 1.452E+03 2.081E+06 27.2143 1.00000
  5.000E+08 5.000E+08 3.718E+00 5.245E+02 7.167E+02 3.729E+02 1.614E+03 1.618E+03 2.114E+06 27.4250 1.00000
  5.500E+08 5.500E+08 3.732E+00 5.771E+02 7.884E+02 4.148E+02 1.780E+03 1.784E+03 2.144E+06 27.6156 1.00000
  6.000E+08 6.000E+08 3.745E+00 6.297E+02 8.601E+02 4.570E+02 1.947E+03 1.951E+03 2.170E+06 27.7897 1.00000
  7.000E+08 7.000E+08 3.768E+00 7.348E+02 1.004E+03 5.427E+02 2.281E+03 2.285E+03 2.218E+06 28.0980 1.00000
  8.000E+08 8.000E+08 3.788E+00 8.400E+02 1.147E+03 6.299E+02 2.617E+03 2.621E+03 2.259E+06 28.3650 1.00000
  9.000E+08 9.000E+08 3.805E+00 9.452E+02 1.290E+03 7.184E+02 2.954E+03 2.958E+03 2.295E+06 28.6006 1.00000
  1.000E+09 1.000E+09 3.821E+00 1.050E+03 1.434E+03 8.081E+02 3.292E+03 3.296E+03 2.327E+06 28.8113 1.00000
