 Incident particle is a Muon with M = 105.65839 MeV
 Index = 0: Radium
      Absorber with <Z/A> = 0.38934
 Sternheimer coef:  a     k=m_s   x_0    x_1    I[eV]   Cbar  delta0
                 0.0880  3.2454  0.5991  3.9428  826.0  7.0452 0.14

 *** Table generated with PUMAS v1.00 ***

      T         p     Ionization  brems     pair     photonuc  Radloss    dE/dx   CSDA Range  delta   beta
    [MeV]    [MeV/c]  -----------------------[MeV cm^2/g]------------------------  [g/cm^2]
  1.000E+00 1.457E+01 2.008E+01 5.835E-06 0.000E+00 0.000E+00 5.835E-06 2.008E+01 2.490E-02  0.0002 0.13661
  1.200E+00 1.597E+01 1.774E+01 6.699E-06 0.000E+00 0.000E+00 6.699E-06 1.774E+01 3.551E-02  0.0002 0.14944
  1.400E+00 1.726E+01 1.595E+01 7.516E-06 0.000E+00 0.000E+00 7.516E-06 1.595E+01 4.742E-02  0.0002 0.16119
  1.700E+00 1.903E+01 1.391E+01 8.670E-06 0.000E+00 0.000E+00 8.670E-06 1.391E+01 6.761E-02  0.0003 0.17725
  2.000E+00 2.066E+01 1.239E+01 9.752E-06 0.000E+00 0.000E+00 9.752E-06 1.239E+01 9.050E-02  0.0003 0.19186
  2.500E+00 2.312E+01 1.055E+01 1.143E-05 0.000E+00 0.000E+00 1.143E-05 1.055E+01 1.344E-01  0.0004 0.21376
  3.000E+00 2.536E+01 9.236E+00 1.297E-05 0.000E+00 0.000E+00 1.297E-05 9.236E+00 1.852E-01  0.0005 0.23336
  3.500E+00 2.742E+01 8.251E+00 1.441E-05 0.000E+00 0.000E+00 1.441E-05 8.251E+00 2.425E-01  0.0006 0.25120
  4.000E+00 2.935E+01 7.481E+00 1.576E-05 0.000E+00 0.000E+00 1.576E-05 7.481E+00 3.062E-01  0.0007 0.26763
  4.500E+00 3.116E+01 6.862E+00 1.704E-05 0.000E+00 0.000E+00 1.704E-05 6.862E+00 3.761E-01  0.0008 0.28290
  5.000E+00 3.289E+01 6.352E+00 1.826E-05 0.000E+00 0.000E+00 1.826E-05 6.352E+00 4.519E-01  0.0009 0.29720
  5.500E+00 3.453E+01 5.924E+00 1.942E-05 0.000E+00 0.000E+00 1.942E-05 5.924E+00 5.334E-01  0.0009 0.31066
  6.000E+00 3.611E+01 5.559E+00 2.053E-05 0.000E+00 0.000E+00 2.053E-05 5.559E+00 6.206E-01  0.0010 0.32339
  7.000E+00 3.909E+01 4.971E+00 2.262E-05 0.000E+00 0.000E+00 2.262E-05 4.971E+00 8.111E-01  0.0012 0.34700
  8.000E+00 4.189E+01 4.514E+00 2.457E-05 0.000E+00 0.000E+00 2.457E-05 4.514E+00 1.022E+00  0.0014 0.36854
  9.000E+00 4.453E+01 4.150E+00 2.640E-05 0.000E+00 0.000E+00 2.640E-05 4.150E+00 1.254E+00  0.0016 0.38836
  1.000E+01 4.704E+01 3.852E+00 2.813E-05 0.000E+00 0.000E+00 2.813E-05 3.852E+00 1.504E+00  0.0018 0.40675
  1.200E+01 5.177E+01 3.393E+00 3.136E-05 0.000E+00 0.000E+00 3.136E-05 3.393E+00 2.058E+00  0.0021 0.43998
  1.400E+01 5.616E+01 3.055E+00 3.434E-05 0.000E+00 0.000E+00 3.434E-05 3.055E+00 2.680E+00  0.0025 0.46937
  1.700E+01 6.230E+01 2.687E+00 3.846E-05 0.000E+00 0.000E+00 3.846E-05 2.687E+00 3.729E+00  0.0031 0.50792
  2.000E+01 6.802E+01 2.424E+00 4.227E-05 0.000E+00 0.000E+00 4.227E-05 2.424E+00 4.907E+00  0.0037 0.54129
  2.500E+01 7.686E+01 2.118E+00 4.817E-05 0.000E+00 0.000E+00 4.817E-05 2.118E+00 7.119E+00  0.0047 0.58827
  3.000E+01 8.509E+01 1.910E+00 5.370E-05 0.000E+00 0.000E+00 5.370E-05 1.910E+00 9.608E+00  0.0058 0.62720
  3.500E+01 9.285E+01 1.761E+00 5.900E-05 0.000E+00 0.000E+00 5.900E-05 1.761E+00 1.234E+01  0.0068 0.66011
  4.000E+01 1.003E+02 1.648E+00 6.415E-05 0.000E+00 0.000E+00 6.415E-05 1.648E+00 1.527E+01  0.0080 0.68834
  4.500E+01 1.074E+02 1.561E+00 6.922E-05 0.000E+00 0.000E+00 6.922E-05 1.561E+00 1.839E+01  0.0092 0.71286
  5.000E+01 1.143E+02 1.491E+00 7.424E-05 0.000E+00 0.000E+00 7.424E-05 1.491E+00 2.167E+01  0.0104 0.73434
  5.500E+01 1.210E+02 1.435E+00 7.924E-05 0.000E+00 0.000E+00 7.924E-05 1.435E+00 2.509E+01  0.0116 0.75332
  6.000E+01 1.276E+02 1.389E+00 8.425E-05 0.000E+00 0.000E+00 8.425E-05 1.389E+00 2.863E+01  0.0129 0.77019
  7.000E+01 1.403E+02 1.318E+00 9.432E-05 0.000E+00 0.000E+00 9.432E-05 1.318E+00 3.602E+01  0.0156 0.79887
  8.000E+01 1.527E+02 1.267E+00 1.045E-04 0.000E+00 0.000E+00 1.045E-04 1.267E+00 4.376E+01  0.0185 0.82227
  9.000E+01 1.647E+02 1.229E+00 1.149E-04 0.000E+00 0.000E+00 1.149E-04 1.229E+00 5.178E+01  0.0215 0.84166
  1.000E+02 1.764E+02 1.200E+00 1.255E-04 0.000E+00 0.000E+00 1.255E-04 1.200E+00 6.001E+01  0.0247 0.85794
  1.200E+02 1.994E+02 1.162E+00 1.473E-04 0.000E+00 0.000E+00 1.473E-04 1.162E+00 7.695E+01  0.0316 0.88361
  1.400E+02 2.218E+02 1.138E+00 1.701E-04 0.000E+00 0.000E+00 1.701E-04 1.139E+00 9.434E+01  0.0391 0.90278
  1.700E+02 2.546E+02 1.120E+00 2.060E-04 0.000E+00 0.000E+00 2.060E-04 1.120E+00 1.209E+02  0.0515 0.92363
  2.000E+02 2.868E+02 1.113E+00 2.439E-04 0.000E+00 0.000E+00 2.439E-04 1.113E+00 1.478E+02  0.0654 0.93835
  2.500E+02 3.396E+02 1.113E+00 3.112E-04 0.000E+00 0.000E+00 3.112E-04 1.113E+00 1.927E+02  0.0916 0.95485
  3.000E+02 3.917E+02 1.120E+00 3.833E-04 0.000E+00 0.000E+00 3.833E-04 1.121E+00 2.375E+02  0.1219 0.96548
  3.500E+02 4.432E+02 1.132E+00 4.599E-04 0.000E+00 0.000E+00 4.599E-04 1.132E+00 2.818E+02  0.1459 0.97274
  4.000E+02 4.945E+02 1.144E+00 5.406E-04 0.000E+00 0.000E+00 5.406E-04 1.145E+00 3.258E+02  0.1671 0.97793
  4.500E+02 5.455E+02 1.157E+00 6.251E-04 0.000E+00 0.000E+00 6.251E-04 1.158E+00 3.692E+02  0.1915 0.98176
  5.000E+02 5.964E+02 1.170E+00 7.131E-04 6.698E-05 0.000E+00 7.800E-04 1.171E+00 4.121E+02  0.2181 0.98467
  5.500E+02 6.471E+02 1.182E+00 8.043E-04 1.142E-04 0.000E+00 9.185E-04 1.183E+00 4.546E+02  0.2460 0.98693
  6.000E+02 6.977E+02 1.194E+00 8.987E-04 1.539E-04 0.000E+00 1.053E-03 1.195E+00 4.967E+02  0.2747 0.98873
  7.000E+02 7.987E+02 1.216E+00 1.096E-03 2.450E-04 0.000E+00 1.341E-03 1.217E+00 5.796E+02  0.3333 0.99136
  8.000E+02 8.995E+02 1.236E+00 1.304E-03 3.540E-04 0.000E+00 1.658E-03 1.238E+00 6.610E+02  0.3922 0.99317
  9.000E+02 1.000E+03 1.255E+00 1.521E-03 4.799E-04 0.000E+00 2.001E-03 1.257E+00 7.412E+02  0.4505 0.99447
  1.000E+03 1.101E+03 1.271E+00 1.747E-03 6.217E-04 0.000E+00 2.369E-03 1.274E+00 8.203E+02  0.5076 0.99542
  1.200E+03 1.301E+03 1.301E+00 2.222E-03 9.495E-04 2.244E-05 3.194E-03 1.304E+00 9.755E+02  0.6178 0.99672
  1.400E+03 1.502E+03 1.326E+00 2.725E-03 1.331E-03 6.080E-05 4.117E-03 1.330E+00 1.127E+03  0.7219 0.99753
  1.700E+03 1.803E+03 1.358E+00 3.525E-03 1.993E-03 1.286E-04 5.646E-03 1.364E+00 1.350E+03  0.8674 0.99829
  2.000E+03 2.103E+03 1.385E+00 4.371E-03 2.749E-03 2.072E-04 7.328E-03 1.393E+00 1.568E+03  1.0011 0.99874
  2.500E+03 2.604E+03 1.422E+00 5.870E-03 4.192E-03 3.571E-04 1.042E-02 1.432E+00 1.922E+03  1.2023 0.99918
  3.000E+03 3.104E+03 1.451E+00 7.463E-03 5.830E-03 5.118E-04 1.380E-02 1.465E+00 2.267E+03  1.3812 0.99942
  3.500E+03 3.604E+03 1.476E+00 9.134E-03 7.634E-03 6.737E-04 1.744E-02 1.493E+00 2.605E+03  1.5424 0.99957
  4.000E+03 4.104E+03 1.497E+00 1.087E-02 9.594E-03 8.452E-04 2.131E-02 1.518E+00 2.937E+03  1.6892 0.99967
  4.500E+03 4.604E+03 1.515E+00 1.267E-02 1.169E-02 1.022E-03 2.538E-02 1.540E+00 3.264E+03  1.8240 0.99974
  5.000E+03 5.105E+03 1.531E+00 1.453E-02 1.390E-02 1.191E-03 2.962E-02 1.560E+00 3.587E+03  1.9487 0.99979
  5.500E+03 5.605E+03 1.545E+00 1.643E-02 1.622E-02 1.373E-03 3.402E-02 1.579E+00 3.905E+03  2.0649 0.99982
  6.000E+03 6.105E+03 1.558E+00 1.837E-02 1.863E-02 1.541E-03 3.854E-02 1.596E+00 4.220E+03  2.1736 0.99985
  7.000E+03 7.105E+03 1.580E+00 2.239E-02 2.371E-02 1.896E-03 4.800E-02 1.628E+00 4.841E+03  2.3722 0.99989
  8.000E+03 8.105E+03 1.599E+00 2.654E-02 2.910E-02 2.247E-03 5.789E-02 1.656E+00 5.450E+03  2.5504 0.99992
  9.000E+03 9.105E+03 1.615E+00 3.082E-02 3.476E-02 2.574E-03 6.815E-02 1.683E+00 6.049E+03  2.7122 0.99993
  1.000E+04 1.011E+04 1.629E+00 3.520E-02 4.065E-02 2.911E-03 7.876E-02 1.708E+00 6.639E+03  2.8603 0.99995
  1.200E+04 1.211E+04 1.653E+00 4.425E-02 5.303E-02 3.590E-03 1.009E-01 1.754E+00 7.794E+03  3.1243 0.99996
  1.400E+04 1.411E+04 1.673E+00 5.363E-02 6.611E-02 4.267E-03 1.240E-01 1.797E+00 8.921E+03  3.3546 0.99997
  1.700E+04 1.711E+04 1.697E+00 6.821E-02 8.678E-02 5.264E-03 1.603E-01 1.857E+00 1.056E+04  3.6534 0.99998
  2.000E+04 2.011E+04 1.716E+00 8.330E-02 1.085E-01 6.237E-03 1.980E-01 1.914E+00 1.216E+04  3.9107 0.99999
  2.500E+04 2.511E+04 1.741E+00 1.094E-01 1.465E-01 7.825E-03 2.637E-01 2.005E+00 1.471E+04  4.2741 0.99999
  3.000E+04 3.011E+04 1.761E+00 1.364E-01 1.864E-01 9.376E-03 3.321E-01 2.094E+00 1.715E+04  4.5790 0.99999
  3.500E+04 3.511E+04 1.778E+00 1.641E-01 2.277E-01 1.094E-02 4.028E-01 2.181E+00 1.949E+04  4.8421 1.00000
  4.000E+04 4.011E+04 1.792E+00 1.925E-01 2.703E-01 1.247E-02 4.752E-01 2.267E+00 2.174E+04  5.0736 1.00000
  4.500E+04 4.511E+04 1.804E+00 2.214E-01 3.138E-01 1.399E-02 5.492E-01 2.353E+00 2.390E+04  5.2806 1.00000
  5.000E+04 5.011E+04 1.814E+00 2.509E-01 3.581E-01 1.550E-02 6.245E-01 2.438E+00 2.599E+04  5.4677 1.00000
  5.500E+04 5.511E+04 1.823E+00 2.807E-01 4.032E-01 1.701E-02 7.010E-01 2.524E+00 2.801E+04  5.6386 1.00000
  6.000E+04 6.011E+04 1.832E+00 3.109E-01 4.490E-01 1.851E-02 7.784E-01 2.610E+00 2.996E+04  5.7959 1.00000
  7.000E+04 7.011E+04 1.846E+00 3.724E-01 5.421E-01 2.148E-02 9.360E-01 2.782E+00 3.367E+04  6.0774 1.00000
  8.000E+04 8.011E+04 1.858E+00 4.350E-01 6.371E-01 2.445E-02 1.097E+00 2.955E+00 3.716E+04  6.3239 1.00000
  9.000E+04 9.011E+04 1.869E+00 4.986E-01 7.336E-01 2.742E-02 1.260E+00 3.129E+00 4.045E+04  6.5433 1.00000
  1.000E+05 1.001E+05 1.878E+00 5.630E-01 8.314E-01 3.032E-02 1.425E+00 3.303E+00 4.356E+04  6.7411 1.00000
  1.200E+05 1.201E+05 1.894E+00 6.939E-01 1.030E+00 3.622E-02 1.760E+00 3.655E+00 4.932E+04  7.0863 1.00000
  1.400E+05 1.401E+05 1.908E+00 8.273E-01 1.232E+00 4.211E-02 2.102E+00 4.009E+00 5.455E+04  7.3809 1.00000
  1.700E+05 1.701E+05 1.924E+00 1.031E+00 1.540E+00 5.094E-02 2.622E+00 4.546E+00 6.160E+04  7.7553 1.00000
  2.000E+05 2.001E+05 1.938E+00 1.238E+00 1.852E+00 5.980E-02 3.150E+00 5.087E+00 6.784E+04  8.0710 1.00000
  2.500E+05 2.501E+05 1.956E+00 1.589E+00 2.380E+00 7.458E-02 4.043E+00 5.999E+00 7.693E+04  8.5077 1.00000
  3.000E+05 3.001E+05 1.971E+00 1.945E+00 2.914E+00 8.945E-02 4.949E+00 6.920E+00 8.471E+04  8.8668 1.00000
  3.500E+05 3.501E+05 1.983E+00 2.306E+00 3.453E+00 1.045E-01 5.864E+00 7.847E+00 9.150E+04  9.1717 1.00000
  4.000E+05 4.001E+05 1.994E+00 2.671E+00 3.996E+00 1.196E-01 6.787E+00 8.781E+00 9.754E+04  9.4367 1.00000
  4.500E+05 4.501E+05 2.003E+00 3.038E+00 4.542E+00 1.347E-01 7.716E+00 9.719E+00 1.030E+05  9.6709 1.00000
  5.000E+05 5.001E+05 2.012E+00 3.408E+00 5.091E+00 1.500E-01 8.649E+00 1.066E+01 1.079E+05  9.8807 1.00000
  5.500E+05 5.501E+05 2.020E+00 3.781E+00 5.642E+00 1.651E-01 9.587E+00 1.161E+01 1.124E+05 10.0708 1.00000
  6.000E+05 6.001E+05 2.027E+00 4.155E+00 6.194E+00 1.804E-01 1.053E+01 1.256E+01 1.165E+05 10.2445 1.00000
  7.000E+05 7.001E+05 2.039E+00 4.908E+00 7.303E+00 2.111E-01 1.242E+01 1.446E+01 1.240E+05 10.5524 1.00000
  8.000E+05 8.001E+05 2.050E+00 5.666E+00 8.417E+00 2.421E-01 1.433E+01 1.638E+01 1.305E+05 10.8194 1.00000
  9.000E+05 9.001E+05 2.059E+00 6.429E+00 9.535E+00 2.734E-01 1.624E+01 1.830E+01 1.363E+05 11.0549 1.00000
  1.000E+06 1.000E+06 2.068E+00 7.195E+00 1.066E+01 3.050E-01 1.816E+01 2.022E+01 1.415E+05 11.2656 1.00000
  1.200E+06 1.200E+06 2.083E+00 8.736E+00 1.290E+01 3.689E-01 2.201E+01 2.409E+01 1.506E+05 11.6302 1.00000
  1.400E+06 1.400E+06 2.096E+00 1.029E+01 1.516E+01 4.337E-01 2.588E+01 2.798E+01 1.583E+05 11.9385 1.00000
  1.700E+06 1.700E+06 2.112E+00 1.263E+01 1.856E+01 5.324E-01 3.171E+01 3.383E+01 1.681E+05 12.3268 1.00000
  2.000E+06 2.000E+06 2.125E+00 1.498E+01 2.196E+01 6.326E-01 3.757E+01 3.969E+01 1.763E+05 12.6518 1.00000
  2.500E+06 2.500E+06 2.144E+00 1.892E+01 2.765E+01 8.027E-01 4.736E+01 4.951E+01 1.876E+05 13.0981 1.00000
  3.000E+06 3.000E+06 2.159E+00 2.287E+01 3.335E+01 9.759E-01 5.719E+01 5.935E+01 1.969E+05 13.4627 1.00000
  3.500E+06 3.500E+06 2.172E+00 2.684E+01 3.905E+01 1.152E+00 6.705E+01 6.922E+01 2.047E+05 13.7710 1.00000
  4.000E+06 4.000E+06 2.184E+00 3.082E+01 4.477E+01 1.331E+00 7.692E+01 7.911E+01 2.115E+05 14.0380 1.00000
  4.500E+06 4.500E+06 2.194E+00 3.481E+01 5.049E+01 1.511E+00 8.681E+01 8.901E+01 2.175E+05 14.2736 1.00000
  5.000E+06 5.000E+06 2.203E+00 3.880E+01 5.622E+01 1.694E+00 9.671E+01 9.892E+01 2.228E+05 14.4843 1.00000
  5.500E+06 5.500E+06 2.211E+00 4.280E+01 6.195E+01 1.879E+00 1.066E+02 1.088E+02 2.276E+05 14.6749 1.00000
  6.000E+06 6.000E+06 2.219E+00 4.681E+01 6.768E+01 2.065E+00 1.166E+02 1.188E+02 2.320E+05 14.8490 1.00000
  7.000E+06 7.000E+06 2.233E+00 5.483E+01 7.915E+01 2.442E+00 1.364E+02 1.387E+02 2.398E+05 15.1572 1.00000
  8.000E+06 8.000E+06 2.244E+00 6.286E+01 9.063E+01 2.825E+00 1.563E+02 1.586E+02 2.466E+05 15.4243 1.00000
  9.000E+06 9.000E+06 2.255E+00 7.090E+01 1.021E+02 3.213E+00 1.762E+02 1.785E+02 2.526E+05 15.6599 1.00000
  1.000E+07 1.000E+07 2.264E+00 7.895E+01 1.136E+02 3.606E+00 1.962E+02 1.984E+02 2.579E+05 15.8706 1.00000
  1.200E+07 1.200E+07 2.280E+00 9.507E+01 1.366E+02 4.402E+00 2.361E+02 2.383E+02 2.671E+05 16.2352 1.00000
  1.400E+07 1.400E+07 2.294E+00 1.112E+02 1.596E+02 5.214E+00 2.760E+02 2.783E+02 2.749E+05 16.5435 1.00000
  1.700E+07 1.700E+07 2.312E+00 1.354E+02 1.941E+02 6.453E+00 3.360E+02 3.383E+02 2.847E+05 16.9318 1.00000
  2.000E+07 2.000E+07 2.327E+00 1.597E+02 2.286E+02 7.716E+00 3.960E+02 3.984E+02 2.929E+05 17.2569 1.00000
  2.500E+07 2.500E+07 2.348E+00 2.001E+02 2.862E+02 9.867E+00 4.962E+02 4.985E+02 3.042E+05 17.7032 1.00000
  3.000E+07 3.000E+07 2.365E+00 2.406E+02 3.438E+02 1.206E+01 5.964E+02 5.988E+02 3.134E+05 18.0678 1.00000
  3.500E+07 3.500E+07 2.379E+00 2.811E+02 4.014E+02 1.430E+01 6.968E+02 6.992E+02 3.212E+05 18.3761 1.00000
  4.000E+07 4.000E+07 2.392E+00 3.216E+02 4.590E+02 1.658E+01 7.972E+02 7.996E+02 3.279E+05 18.6432 1.00000
  4.500E+07 4.500E+07 2.403E+00 3.621E+02 5.166E+02 1.888E+01 8.976E+02 9.000E+02 3.338E+05 18.8787 1.00000
  5.000E+07 5.000E+07 2.413E+00 4.027E+02 5.742E+02 2.122E+01 9.981E+02 1.000E+03 3.390E+05 19.0894 1.00000
  5.500E+07 5.500E+07 2.423E+00 4.432E+02 6.318E+02 2.358E+01 1.099E+03 1.101E+03 3.438E+05 19.2801 1.00000
  6.000E+07 6.000E+07 2.431E+00 4.838E+02 6.894E+02 2.596E+01 1.199E+03 1.202E+03 3.482E+05 19.4541 1.00000
  7.000E+07 7.000E+07 2.446E+00 5.649E+02 8.047E+02 3.080E+01 1.400E+03 1.403E+03 3.559E+05 19.7624 1.00000
  8.000E+07 8.000E+07 2.459E+00 6.460E+02 9.199E+02 3.571E+01 1.602E+03 1.604E+03 3.626E+05 20.0295 1.00000
  9.000E+07 9.000E+07 2.471E+00 7.272E+02 1.035E+03 4.069E+01 1.803E+03 1.805E+03 3.685E+05 20.2650 1.00000
  1.000E+08 1.000E+08 2.481E+00 8.083E+02 1.150E+03 4.574E+01 2.004E+03 2.007E+03 3.737E+05 20.4757 1.00000
  1.200E+08 1.200E+08 2.499E+00 9.706E+02 1.381E+03 5.599E+01 2.408E+03 2.410E+03 3.828E+05 20.8404 1.00000
  1.400E+08 1.400E+08 2.515E+00 1.133E+03 1.612E+03 6.645E+01 2.811E+03 2.813E+03 3.906E+05 21.1487 1.00000
  1.700E+08 1.700E+08 2.535E+00 1.377E+03 1.957E+03 8.245E+01 3.416E+03 3.419E+03 4.003E+05 21.5370 1.00000
  2.000E+08 2.000E+08 2.551E+00 1.620E+03 2.303E+03 9.877E+01 4.022E+03 4.025E+03 4.084E+05 21.8620 1.00000
  2.500E+08 2.500E+08 2.574E+00 2.026E+03 2.880E+03 1.266E+02 5.032E+03 5.035E+03 4.196E+05 22.3083 1.00000
  3.000E+08 3.000E+08 2.594E+00 2.432E+03 3.456E+03 1.551E+02 6.043E+03 6.046E+03 4.287E+05 22.6730 1.00000
  3.500E+08 3.500E+08 2.610E+00 2.838E+03 4.032E+03 1.841E+02 7.055E+03 7.057E+03 4.363E+05 22.9813 1.00000
  4.000E+08 4.000E+08 2.624E+00 3.244E+03 4.609E+03 2.136E+02 8.066E+03 8.069E+03 4.430E+05 23.2483 1.00000
  4.500E+08 4.500E+08 2.636E+00 3.650E+03 5.185E+03 2.436E+02 9.079E+03 9.081E+03 4.488E+05 23.4839 1.00000
  5.000E+08 5.000E+08 2.648E+00 4.056E+03 5.761E+03 2.739E+02 1.009E+04 1.009E+04 4.541E+05 23.6946 1.00000
  5.500E+08 5.500E+08 2.658E+00 4.462E+03 6.338E+03 3.046E+02 1.110E+04 1.111E+04 4.588E+05 23.8852 1.00000
  6.000E+08 6.000E+08 2.667E+00 4.868E+03 6.914E+03 3.357E+02 1.212E+04 1.212E+04 4.631E+05 24.0593 1.00000
  7.000E+08 7.000E+08 2.684E+00 5.681E+03 8.067E+03 3.987E+02 1.415E+04 1.415E+04 4.708E+05 24.3676 1.00000
  8.000E+08 8.000E+08 2.699E+00 6.493E+03 9.219E+03 4.627E+02 1.617E+04 1.618E+04 4.774E+05 24.6346 1.00000
  9.000E+08 9.000E+08 2.712E+00 7.305E+03 1.037E+04 5.277E+02 1.820E+04 1.821E+04 4.832E+05 24.8702 1.00000
  1.000E+09 1.000E+09 2.724E+00 8.117E+03 1.152E+04 5.936E+02 2.024E+04 2.024E+04 4.884E+05 25.0809 1.00000
