 Incident particle is a Muon with M = 105.65839 MeV
 Index = 0: Radon
      Absorber with <Z/A> = 0.38736
 Sternheimer coef:  a     k=m_s   x_0    x_1    I[eV]   Cbar  delta0
                 0.2080  2.7409  1.5368  4.9889  794.0 13.2839 0.00

 *** Table generated with PUMAS v1.00 ***

      T         p     Ionization  brems     pair     photonuc  Radloss    dE/dx   CSDA Range  delta   beta
    [MeV]    [MeV/c]  -----------------------[MeV cm^2/g]------------------------  [g/cm^2]
  1.000E+00 1.457E+01 2.023E+01 5.681E-06 0.000E+00 0.000E+00 5.681E-06 2.023E+01 2.471E-02  0.0000 0.13661
  1.200E+00 1.597E+01 1.786E+01 6.523E-06 0.000E+00 0.000E+00 6.523E-06 1.786E+01 3.525E-02  0.0000 0.14944
  1.400E+00 1.726E+01 1.605E+01 7.319E-06 0.000E+00 0.000E+00 7.319E-06 1.605E+01 4.708E-02  0.0000 0.16119
  1.700E+00 1.903E+01 1.399E+01 8.443E-06 0.000E+00 0.000E+00 8.443E-06 1.399E+01 6.715E-02  0.0000 0.17725
  2.000E+00 2.066E+01 1.245E+01 9.497E-06 0.000E+00 0.000E+00 9.497E-06 1.245E+01 8.992E-02  0.0000 0.19186
  2.500E+00 2.312E+01 1.060E+01 1.113E-05 0.000E+00 0.000E+00 1.113E-05 1.060E+01 1.336E-01  0.0000 0.21376
  3.000E+00 2.536E+01 9.275E+00 1.263E-05 0.000E+00 0.000E+00 1.263E-05 9.275E+00 1.841E-01  0.0000 0.23336
  3.500E+00 2.742E+01 8.284E+00 1.404E-05 0.000E+00 0.000E+00 1.404E-05 8.284E+00 2.413E-01  0.0000 0.25120
  4.000E+00 2.935E+01 7.509E+00 1.535E-05 0.000E+00 0.000E+00 1.535E-05 7.509E+00 3.047E-01  0.0000 0.26763
  4.500E+00 3.116E+01 6.886E+00 1.660E-05 0.000E+00 0.000E+00 1.660E-05 6.886E+00 3.743E-01  0.0000 0.28290
  5.000E+00 3.289E+01 6.373E+00 1.778E-05 0.000E+00 0.000E+00 1.778E-05 6.373E+00 4.499E-01  0.0000 0.29720
  5.500E+00 3.453E+01 5.943E+00 1.891E-05 0.000E+00 0.000E+00 1.891E-05 5.943E+00 5.312E-01  0.0000 0.31066
  6.000E+00 3.611E+01 5.577E+00 1.999E-05 0.000E+00 0.000E+00 1.999E-05 5.577E+00 6.180E-01  0.0000 0.32339
  7.000E+00 3.909E+01 4.985E+00 2.203E-05 0.000E+00 0.000E+00 2.203E-05 4.985E+00 8.080E-01  0.0000 0.34700
  8.000E+00 4.189E+01 4.527E+00 2.393E-05 0.000E+00 0.000E+00 2.393E-05 4.527E+00 1.019E+00  0.0000 0.36854
  9.000E+00 4.453E+01 4.161E+00 2.572E-05 0.000E+00 0.000E+00 2.572E-05 4.161E+00 1.249E+00  0.0000 0.38836
  1.000E+01 4.704E+01 3.862E+00 2.741E-05 0.000E+00 0.000E+00 2.741E-05 3.862E+00 1.499E+00  0.0000 0.40675
  1.200E+01 5.177E+01 3.401E+00 3.056E-05 0.000E+00 0.000E+00 3.056E-05 3.401E+00 2.052E+00  0.0000 0.43998
  1.400E+01 5.616E+01 3.062E+00 3.346E-05 0.000E+00 0.000E+00 3.346E-05 3.062E+00 2.673E+00  0.0000 0.46937
  1.700E+01 6.230E+01 2.693E+00 3.748E-05 0.000E+00 0.000E+00 3.748E-05 2.693E+00 3.720E+00  0.0000 0.50792
  2.000E+01 6.802E+01 2.428E+00 4.120E-05 0.000E+00 0.000E+00 4.120E-05 2.428E+00 4.895E+00  0.0000 0.54129
  2.500E+01 7.686E+01 2.121E+00 4.695E-05 0.000E+00 0.000E+00 4.695E-05 2.121E+00 7.103E+00  0.0000 0.58827
  3.000E+01 8.509E+01 1.913E+00 5.234E-05 0.000E+00 0.000E+00 5.234E-05 1.913E+00 9.588E+00  0.0000 0.62720
  3.500E+01 9.285E+01 1.763E+00 5.751E-05 0.000E+00 0.000E+00 5.751E-05 1.763E+00 1.231E+01  0.0000 0.66011
  4.000E+01 1.003E+02 1.651E+00 6.253E-05 0.000E+00 0.000E+00 6.253E-05 1.651E+00 1.524E+01  0.0000 0.68834
  4.500E+01 1.074E+02 1.563E+00 6.747E-05 0.000E+00 0.000E+00 6.747E-05 1.563E+00 1.836E+01  0.0000 0.71286
  5.000E+01 1.143E+02 1.494E+00 7.237E-05 0.000E+00 0.000E+00 7.237E-05 1.494E+00 2.163E+01  0.0000 0.73434
  5.500E+01 1.210E+02 1.437E+00 7.725E-05 0.000E+00 0.000E+00 7.725E-05 1.437E+00 2.504E+01  0.0000 0.75332
  6.000E+01 1.276E+02 1.391E+00 8.213E-05 0.000E+00 0.000E+00 8.213E-05 1.391E+00 2.858E+01  0.0000 0.77019
  7.000E+01 1.403E+02 1.320E+00 9.194E-05 0.000E+00 0.000E+00 9.194E-05 1.320E+00 3.596E+01  0.0000 0.79887
  8.000E+01 1.527E+02 1.269E+00 1.019E-04 0.000E+00 0.000E+00 1.019E-04 1.269E+00 4.369E+01  0.0000 0.82227
  9.000E+01 1.647E+02 1.231E+00 1.120E-04 0.000E+00 0.000E+00 1.120E-04 1.231E+00 5.169E+01  0.0000 0.84166
  1.000E+02 1.764E+02 1.203E+00 1.223E-04 0.000E+00 0.000E+00 1.223E-04 1.203E+00 5.991E+01  0.0000 0.85794
  1.200E+02 1.994E+02 1.164E+00 1.436E-04 0.000E+00 0.000E+00 1.436E-04 1.164E+00 7.681E+01  0.0000 0.88361
  1.400E+02 2.218E+02 1.141E+00 1.658E-04 0.000E+00 0.000E+00 1.658E-04 1.141E+00 9.416E+01  0.0000 0.90278
  1.700E+02 2.546E+02 1.123E+00 2.008E-04 0.000E+00 0.000E+00 2.008E-04 1.124E+00 1.207E+02  0.0000 0.92363
  2.000E+02 2.868E+02 1.117E+00 2.377E-04 0.000E+00 0.000E+00 2.377E-04 1.117E+00 1.474E+02  0.0000 0.93835
  2.500E+02 3.396E+02 1.118E+00 3.033E-04 0.000E+00 0.000E+00 3.033E-04 1.119E+00 1.922E+02  0.0000 0.95485
  3.000E+02 3.917E+02 1.128E+00 3.736E-04 0.000E+00 0.000E+00 3.736E-04 1.128E+00 2.367E+02  0.0000 0.96548
  3.500E+02 4.432E+02 1.140E+00 4.483E-04 0.000E+00 0.000E+00 4.483E-04 1.140E+00 2.808E+02  0.0000 0.97274
  4.000E+02 4.945E+02 1.154E+00 5.269E-04 0.000E+00 0.000E+00 5.269E-04 1.154E+00 3.243E+02  0.0000 0.97793
  4.500E+02 5.455E+02 1.168E+00 6.092E-04 0.000E+00 0.000E+00 6.092E-04 1.169E+00 3.674E+02  0.0000 0.98176
  5.000E+02 5.964E+02 1.182E+00 6.949E-04 6.917E-05 0.000E+00 7.641E-04 1.183E+00 4.099E+02  0.0000 0.98467
  5.500E+02 6.471E+02 1.196E+00 7.838E-04 1.115E-04 0.000E+00 8.954E-04 1.197E+00 4.519E+02  0.0000 0.98693
  6.000E+02 6.977E+02 1.209E+00 8.758E-04 1.499E-04 0.000E+00 1.026E-03 1.210E+00 4.935E+02  0.0000 0.98873
  7.000E+02 7.987E+02 1.235E+00 1.068E-03 2.385E-04 0.000E+00 1.306E-03 1.236E+00 5.752E+02  0.0000 0.99136
  8.000E+02 8.995E+02 1.258E+00 1.270E-03 3.444E-04 0.000E+00 1.615E-03 1.260E+00 6.554E+02  0.0000 0.99317
  9.000E+02 1.000E+03 1.280E+00 1.482E-03 4.669E-04 0.000E+00 1.949E-03 1.282E+00 7.340E+02  0.0000 0.99447
  1.000E+03 1.101E+03 1.300E+00 1.702E-03 6.048E-04 0.000E+00 2.307E-03 1.302E+00 8.114E+02  0.0000 0.99542
  1.200E+03 1.301E+03 1.336E+00 2.165E-03 9.237E-04 2.244E-05 3.111E-03 1.339E+00 9.629E+02  0.0000 0.99672
  1.400E+03 1.502E+03 1.367E+00 2.655E-03 1.295E-03 6.081E-05 4.011E-03 1.371E+00 1.110E+03  0.0000 0.99753
  1.700E+03 1.803E+03 1.408E+00 3.434E-03 1.938E-03 1.286E-04 5.501E-03 1.414E+00 1.326E+03  0.0000 0.99829
  2.000E+03 2.103E+03 1.443E+00 4.259E-03 2.674E-03 2.073E-04 7.140E-03 1.450E+00 1.536E+03  0.0000 0.99874
  2.500E+03 2.604E+03 1.491E+00 5.719E-03 4.078E-03 3.572E-04 1.015E-02 1.501E+00 1.875E+03  0.0000 0.99918
  3.000E+03 3.104E+03 1.531E+00 7.269E-03 5.670E-03 5.120E-04 1.345E-02 1.544E+00 2.203E+03  0.0000 0.99942
  3.500E+03 3.604E+03 1.565E+00 8.897E-03 7.426E-03 6.740E-04 1.700E-02 1.582E+00 2.523E+03  0.0000 0.99957
  4.000E+03 4.104E+03 1.595E+00 1.059E-02 9.332E-03 8.457E-04 2.077E-02 1.616E+00 2.836E+03 -0.0130 0.99967
  4.500E+03 4.604E+03 1.621E+00 1.234E-02 1.137E-02 1.023E-03 2.474E-02 1.646E+00 3.142E+03 -0.0196 0.99974
  5.000E+03 5.105E+03 1.645E+00 1.415E-02 1.352E-02 1.192E-03 2.886E-02 1.673E+00 3.444E+03 -0.0204 0.99979
  5.500E+03 5.605E+03 1.665E+00 1.600E-02 1.577E-02 1.374E-03 3.315E-02 1.699E+00 3.740E+03 -0.0169 0.99982
  6.000E+03 6.105E+03 1.684E+00 1.790E-02 1.812E-02 1.542E-03 3.756E-02 1.722E+00 4.032E+03 -0.0103 0.99985
  7.000E+03 7.105E+03 1.717E+00 2.180E-02 2.307E-02 1.897E-03 4.677E-02 1.764E+00 4.606E+03  0.0094 0.99989
  8.000E+03 8.105E+03 1.745E+00 2.585E-02 2.831E-02 2.248E-03 5.641E-02 1.801E+00 5.167E+03  0.0348 0.99992
  9.000E+03 9.105E+03 1.769E+00 3.001E-02 3.382E-02 2.576E-03 6.640E-02 1.835E+00 5.717E+03  0.0634 0.99993
  1.000E+04 1.011E+04 1.790E+00 3.428E-02 3.955E-02 2.913E-03 7.674E-02 1.867E+00 6.258E+03  0.0940 0.99995
  1.200E+04 1.211E+04 1.826E+00 4.310E-02 5.160E-02 3.593E-03 9.829E-02 1.924E+00 7.313E+03  0.1579 0.99996
  1.400E+04 1.411E+04 1.855E+00 5.223E-02 6.432E-02 4.271E-03 1.208E-01 1.976E+00 8.339E+03  0.2226 0.99997
  1.700E+04 1.711E+04 1.891E+00 6.643E-02 8.444E-02 5.269E-03 1.561E-01 2.047E+00 9.831E+03  0.3177 0.99998
  2.000E+04 2.011E+04 1.920E+00 8.111E-02 1.056E-01 6.243E-03 1.929E-01 2.113E+00 1.127E+04  0.4089 0.99999
  2.500E+04 2.511E+04 1.959E+00 1.065E-01 1.426E-01 7.834E-03 2.569E-01 2.216E+00 1.358E+04  0.5508 0.99999
  3.000E+04 3.011E+04 1.989E+00 1.328E-01 1.814E-01 9.387E-03 3.236E-01 2.313E+00 1.579E+04  0.6809 0.99999
  3.500E+04 3.511E+04 2.014E+00 1.598E-01 2.216E-01 1.095E-02 3.924E-01 2.406E+00 1.791E+04  0.8006 1.00000
  4.000E+04 4.011E+04 2.035E+00 1.875E-01 2.630E-01 1.249E-02 4.630E-01 2.498E+00 1.995E+04  0.9113 1.00000
  4.500E+04 4.511E+04 2.053E+00 2.156E-01 3.054E-01 1.400E-02 5.350E-01 2.588E+00 2.192E+04  1.0142 1.00000
  5.000E+04 5.011E+04 2.069E+00 2.443E-01 3.486E-01 1.552E-02 6.084E-01 2.677E+00 2.382E+04  1.1105 1.00000
  5.500E+04 5.511E+04 2.083E+00 2.734E-01 3.925E-01 1.704E-02 6.829E-01 2.766E+00 2.566E+04  1.2009 1.00000
  6.000E+04 6.011E+04 2.095E+00 3.028E-01 4.370E-01 1.854E-02 7.583E-01 2.854E+00 2.744E+04  1.2862 1.00000
  7.000E+04 7.011E+04 2.117E+00 3.626E-01 5.277E-01 2.151E-02 9.118E-01 3.029E+00 3.084E+04  1.4436 1.00000
  8.000E+04 8.011E+04 2.135E+00 4.236E-01 6.202E-01 2.448E-02 1.068E+00 3.204E+00 3.405E+04  1.5863 1.00000
  9.000E+04 9.011E+04 2.151E+00 4.855E-01 7.142E-01 2.745E-02 1.227E+00 3.378E+00 3.709E+04  1.7170 1.00000
  1.000E+05 1.001E+05 2.165E+00 5.482E-01 8.094E-01 3.036E-02 1.388E+00 3.553E+00 3.998E+04  1.8377 1.00000
  1.200E+05 1.201E+05 2.189E+00 6.758E-01 1.003E+00 3.627E-02 1.715E+00 3.904E+00 4.536E+04  2.0548 1.00000
  1.400E+05 1.401E+05 2.208E+00 8.056E-01 1.200E+00 4.217E-02 2.047E+00 4.255E+00 5.027E+04  2.2463 1.00000
  1.700E+05 1.701E+05 2.232E+00 1.004E+00 1.499E+00 5.101E-02 2.554E+00 4.786E+00 5.693E+04  2.4975 1.00000
  2.000E+05 2.001E+05 2.251E+00 1.205E+00 1.804E+00 5.989E-02 3.069E+00 5.320E+00 6.288E+04  2.7162 1.00000
  2.500E+05 2.501E+05 2.276E+00 1.547E+00 2.317E+00 7.469E-02 3.939E+00 6.216E+00 7.160E+04  3.0284 1.00000
  3.000E+05 3.001E+05 2.297E+00 1.894E+00 2.838E+00 8.959E-02 4.822E+00 7.119E+00 7.914E+04  3.2933 1.00000
  3.500E+05 3.501E+05 2.314E+00 2.246E+00 3.363E+00 1.046E-01 5.714E+00 8.027E+00 8.576E+04  3.5241 1.00000
  4.000E+05 4.001E+05 2.328E+00 2.601E+00 3.892E+00 1.198E-01 6.613E+00 8.941E+00 9.167E+04  3.7287 1.00000
  4.500E+05 4.501E+05 2.340E+00 2.959E+00 4.424E+00 1.349E-01 7.518E+00 9.858E+00 9.701E+04  3.9128 1.00000
  5.000E+05 5.001E+05 2.351E+00 3.320E+00 4.958E+00 1.502E-01 8.428E+00 1.078E+01 1.019E+05  4.0803 1.00000
  5.500E+05 5.501E+05 2.361E+00 3.682E+00 5.495E+00 1.654E-01 9.342E+00 1.170E+01 1.063E+05  4.2339 1.00000
  6.000E+05 6.001E+05 2.370E+00 4.047E+00 6.033E+00 1.807E-01 1.026E+01 1.263E+01 1.104E+05  4.3760 1.00000
  7.000E+05 7.001E+05 2.386E+00 4.780E+00 7.113E+00 2.114E-01 1.210E+01 1.449E+01 1.178E+05  4.6317 1.00000
  8.000E+05 8.001E+05 2.399E+00 5.519E+00 8.198E+00 2.425E-01 1.396E+01 1.636E+01 1.243E+05  4.8573 1.00000
  9.000E+05 9.001E+05 2.410E+00 6.262E+00 9.287E+00 2.739E-01 1.582E+01 1.823E+01 1.301E+05  5.0593 1.00000
  1.000E+06 1.000E+06 2.420E+00 7.008E+00 1.038E+01 3.055E-01 1.769E+01 2.011E+01 1.354E+05  5.2423 1.00000
  1.200E+06 1.200E+06 2.438E+00 8.509E+00 1.257E+01 3.695E-01 2.145E+01 2.389E+01 1.445E+05  5.5638 1.00000
  1.400E+06 1.400E+06 2.452E+00 1.002E+01 1.477E+01 4.344E-01 2.522E+01 2.767E+01 1.523E+05  5.8403 1.00000
  1.700E+06 1.700E+06 2.470E+00 1.230E+01 1.807E+01 5.333E-01 3.091E+01 3.338E+01 1.622E+05  6.1942 1.00000
  2.000E+06 2.000E+06 2.485E+00 1.459E+01 2.139E+01 6.337E-01 3.661E+01 3.910E+01 1.706E+05  6.4950 1.00000
  2.500E+06 2.500E+06 2.505E+00 1.843E+01 2.693E+01 8.040E-01 4.616E+01 4.867E+01 1.821E+05  6.9142 1.00000
  3.000E+06 3.000E+06 2.522E+00 2.228E+01 3.248E+01 9.776E-01 5.574E+01 5.826E+01 1.915E+05  7.2616 1.00000
  3.500E+06 3.500E+06 2.536E+00 2.615E+01 3.805E+01 1.154E+00 6.535E+01 6.788E+01 1.995E+05  7.5584 1.00000
  4.000E+06 4.000E+06 2.547E+00 3.002E+01 4.362E+01 1.333E+00 7.497E+01 7.752E+01 2.064E+05  7.8175 1.00000
  4.500E+06 4.500E+06 2.558E+00 3.391E+01 4.919E+01 1.514E+00 8.461E+01 8.717E+01 2.125E+05  8.0475 1.00000
  5.000E+06 5.000E+06 2.567E+00 3.780E+01 5.477E+01 1.697E+00 9.427E+01 9.683E+01 2.180E+05  8.2543 1.00000
  5.500E+06 5.500E+06 2.576E+00 4.170E+01 6.035E+01 1.882E+00 1.039E+02 1.065E+02 2.229E+05  8.4421 1.00000
  6.000E+06 6.000E+06 2.583E+00 4.560E+01 6.593E+01 2.069E+00 1.136E+02 1.162E+02 2.274E+05  8.6142 1.00000
  7.000E+06 7.000E+06 2.597E+00 5.341E+01 7.711E+01 2.447E+00 1.330E+02 1.356E+02 2.354E+05  8.9201 1.00000
  8.000E+06 8.000E+06 2.609E+00 6.124E+01 8.829E+01 2.830E+00 1.524E+02 1.550E+02 2.423E+05  9.1861 1.00000
  9.000E+06 9.000E+06 2.619E+00 6.907E+01 9.948E+01 3.219E+00 1.718E+02 1.744E+02 2.484E+05  9.4213 1.00000
  1.000E+07 1.000E+07 2.628E+00 7.691E+01 1.107E+02 3.612E+00 1.912E+02 1.938E+02 2.538E+05  9.6319 1.00000
  1.200E+07 1.200E+07 2.645E+00 9.262E+01 1.331E+02 4.410E+00 2.301E+02 2.327E+02 2.633E+05  9.9965 1.00000
  1.400E+07 1.400E+07 2.658E+00 1.083E+02 1.555E+02 5.223E+00 2.690E+02 2.717E+02 2.713E+05 10.3048 1.00000
  1.700E+07 1.700E+07 2.676E+00 1.319E+02 1.891E+02 6.465E+00 3.275E+02 3.302E+02 2.813E+05 10.6931 1.00000
  2.000E+07 2.000E+07 2.691E+00 1.556E+02 2.228E+02 7.730E+00 3.860E+02 3.887E+02 2.897E+05 11.0182 1.00000
  2.500E+07 2.500E+07 2.712E+00 1.950E+02 2.788E+02 9.884E+00 4.837E+02 4.864E+02 3.013E+05 11.4645 1.00000
  3.000E+07 3.000E+07 2.729E+00 2.344E+02 3.349E+02 1.209E+01 5.814E+02 5.842E+02 3.107E+05 11.8291 1.00000
  3.500E+07 3.500E+07 2.743E+00 2.739E+02 3.911E+02 1.433E+01 6.793E+02 6.820E+02 3.187E+05 12.1374 1.00000
  4.000E+07 4.000E+07 2.756E+00 3.133E+02 4.472E+02 1.661E+01 7.771E+02 7.799E+02 3.255E+05 12.4045 1.00000
  4.500E+07 4.500E+07 2.767E+00 3.528E+02 5.033E+02 1.892E+01 8.750E+02 8.778E+02 3.316E+05 12.6400 1.00000
  5.000E+07 5.000E+07 2.777E+00 3.923E+02 5.594E+02 2.126E+01 9.730E+02 9.758E+02 3.370E+05 12.8507 1.00000
  5.500E+07 5.500E+07 2.786E+00 4.318E+02 6.156E+02 2.362E+01 1.071E+03 1.074E+03 3.419E+05 13.0414 1.00000
  6.000E+07 6.000E+07 2.794E+00 4.713E+02 6.717E+02 2.601E+01 1.169E+03 1.172E+03 3.464E+05 13.2154 1.00000
  7.000E+07 7.000E+07 2.809E+00 5.504E+02 7.840E+02 3.085E+01 1.365E+03 1.368E+03 3.543E+05 13.5237 1.00000
  8.000E+07 8.000E+07 2.822E+00 6.294E+02 8.963E+02 3.577E+01 1.561E+03 1.564E+03 3.611E+05 13.7908 1.00000
  9.000E+07 9.000E+07 2.834E+00 7.085E+02 1.009E+03 4.076E+01 1.758E+03 1.761E+03 3.672E+05 14.0263 1.00000
  1.000E+08 1.000E+08 2.844E+00 7.875E+02 1.121E+03 4.582E+01 1.954E+03 1.957E+03 3.726E+05 14.2370 1.00000
  1.200E+08 1.200E+08 2.863E+00 9.457E+02 1.345E+03 5.609E+01 2.347E+03 2.350E+03 3.819E+05 14.6017 1.00000
  1.400E+08 1.400E+08 2.878E+00 1.104E+03 1.570E+03 6.657E+01 2.741E+03 2.743E+03 3.898E+05 14.9100 1.00000
  1.700E+08 1.700E+08 2.898E+00 1.341E+03 1.907E+03 8.259E+01 3.331E+03 3.334E+03 3.998E+05 15.2983 1.00000
  2.000E+08 2.000E+08 2.914E+00 1.579E+03 2.244E+03 9.895E+01 3.921E+03 3.924E+03 4.081E+05 15.6233 1.00000
  2.500E+08 2.500E+08 2.937E+00 1.974E+03 2.806E+03 1.268E+02 4.906E+03 4.909E+03 4.196E+05 16.0696 1.00000
  3.000E+08 3.000E+08 2.956E+00 2.370E+03 3.367E+03 1.554E+02 5.892E+03 5.895E+03 4.289E+05 16.4343 1.00000
  3.500E+08 3.500E+08 2.972E+00 2.765E+03 3.929E+03 1.844E+02 6.878E+03 6.881E+03 4.368E+05 16.7426 1.00000
  4.000E+08 4.000E+08 2.986E+00 3.161E+03 4.490E+03 2.140E+02 7.865E+03 7.868E+03 4.436E+05 17.0096 1.00000
  4.500E+08 4.500E+08 2.999E+00 3.557E+03 5.052E+03 2.440E+02 8.852E+03 8.855E+03 4.496E+05 17.2452 1.00000
  5.000E+08 5.000E+08 3.010E+00 3.952E+03 5.613E+03 2.744E+02 9.840E+03 9.843E+03 4.550E+05 17.4559 1.00000
  5.500E+08 5.500E+08 3.020E+00 4.348E+03 6.175E+03 3.052E+02 1.083E+04 1.083E+04 4.598E+05 17.6465 1.00000
  6.000E+08 6.000E+08 3.030E+00 4.743E+03 6.736E+03 3.363E+02 1.182E+04 1.182E+04 4.642E+05 17.8206 1.00000
  7.000E+08 7.000E+08 3.046E+00 5.535E+03 7.859E+03 3.994E+02 1.379E+04 1.380E+04 4.721E+05 18.1289 1.00000
  8.000E+08 8.000E+08 3.061E+00 6.326E+03 8.982E+03 4.635E+02 1.577E+04 1.578E+04 4.789E+05 18.3959 1.00000
  9.000E+08 9.000E+08 3.074E+00 7.117E+03 1.011E+04 5.286E+02 1.775E+04 1.775E+04 4.849E+05 18.6315 1.00000
  1.000E+09 1.000E+09 3.085E+00 7.909E+03 1.123E+04 5.946E+02 1.973E+04 1.973E+04 4.902E+05 18.8422 1.00000
