 Incident particle is a Muon with M = 105.65839 MeV
 Index = 0: Rhenium
      Absorber with <Z/A> = 0.40278
 Sternheimer coef:  a     k=m_s   x_0    x_1    I[eV]   Cbar  delta0
                 0.1518  2.8627  0.0559  3.4845  736.0  5.3445 0.08

 *** Table generated with PUMAS v1.00 ***

      T         p     Ionization  brems     pair     photonuc  Radloss    dE/dx   CSDA Range  delta   beta
    [MeV]    [MeV/c]  -----------------------[MeV cm^2/g]------------------------  [g/cm^2]
  1.000E+00 1.457E+01 2.154E+01 5.221E-06 0.000E+00 0.000E+00 5.221E-06 2.154E+01 2.322E-02  0.0012 0.13661
  1.200E+00 1.597E+01 1.899E+01 5.995E-06 0.000E+00 0.000E+00 5.995E-06 1.899E+01 3.313E-02  0.0014 0.14944
  1.400E+00 1.726E+01 1.704E+01 6.729E-06 0.000E+00 0.000E+00 6.729E-06 1.704E+01 4.426E-02  0.0016 0.16119
  1.700E+00 1.903E+01 1.484E+01 7.766E-06 0.000E+00 0.000E+00 7.766E-06 1.484E+01 6.317E-02  0.0020 0.17725
  2.000E+00 2.066E+01 1.320E+01 8.739E-06 0.000E+00 0.000E+00 8.739E-06 1.320E+01 8.464E-02  0.0024 0.19186
  2.500E+00 2.312E+01 1.122E+01 1.025E-05 0.000E+00 0.000E+00 1.025E-05 1.122E+01 1.259E-01  0.0030 0.21376
  3.000E+00 2.536E+01 9.813E+00 1.164E-05 0.000E+00 0.000E+00 1.164E-05 9.813E+00 1.736E-01  0.0036 0.23336
  3.500E+00 2.742E+01 8.758E+00 1.294E-05 0.000E+00 0.000E+00 1.294E-05 8.758E+00 2.276E-01  0.0042 0.25120
  4.000E+00 2.935E+01 7.935E+00 1.416E-05 0.000E+00 0.000E+00 1.416E-05 7.935E+00 2.877E-01  0.0048 0.26763
  4.500E+00 3.116E+01 7.273E+00 1.531E-05 0.000E+00 0.000E+00 1.531E-05 7.273E+00 3.536E-01  0.0054 0.28290
  5.000E+00 3.289E+01 6.729E+00 1.641E-05 0.000E+00 0.000E+00 1.641E-05 6.729E+00 4.251E-01  0.0060 0.29720
  5.500E+00 3.453E+01 6.273E+00 1.746E-05 0.000E+00 0.000E+00 1.746E-05 6.273E+00 5.021E-01  0.0066 0.31066
  6.000E+00 3.611E+01 5.884E+00 1.846E-05 0.000E+00 0.000E+00 1.846E-05 5.884E+00 5.844E-01  0.0072 0.32339
  7.000E+00 3.909E+01 5.257E+00 2.036E-05 0.000E+00 0.000E+00 2.036E-05 5.257E+00 7.645E-01  0.0085 0.34700
  8.000E+00 4.189E+01 4.772E+00 2.212E-05 0.000E+00 0.000E+00 2.212E-05 4.772E+00 9.644E-01  0.0097 0.36854
  9.000E+00 4.453E+01 4.384E+00 2.379E-05 0.000E+00 0.000E+00 2.379E-05 4.384E+00 1.183E+00  0.0110 0.38836
  1.000E+01 4.704E+01 4.067E+00 2.536E-05 0.000E+00 0.000E+00 2.536E-05 4.067E+00 1.420E+00  0.0123 0.40675
  1.200E+01 5.177E+01 3.580E+00 2.829E-05 0.000E+00 0.000E+00 2.829E-05 3.580E+00 1.945E+00  0.0148 0.43998
  1.400E+01 5.616E+01 3.221E+00 3.100E-05 0.000E+00 0.000E+00 3.100E-05 3.221E+00 2.535E+00  0.0175 0.46937
  1.700E+01 6.230E+01 2.831E+00 3.474E-05 0.000E+00 0.000E+00 3.474E-05 2.831E+00 3.531E+00  0.0215 0.50792
  2.000E+01 6.802E+01 2.551E+00 3.821E-05 0.000E+00 0.000E+00 3.821E-05 2.551E+00 4.648E+00  0.0256 0.54129
  2.500E+01 7.686E+01 2.227E+00 4.358E-05 0.000E+00 0.000E+00 4.358E-05 2.227E+00 6.751E+00  0.0327 0.58827
  3.000E+01 8.509E+01 2.007E+00 4.861E-05 0.000E+00 0.000E+00 4.861E-05 2.007E+00 9.119E+00  0.0401 0.62720
  3.500E+01 9.285E+01 1.848E+00 5.342E-05 0.000E+00 0.000E+00 5.342E-05 1.848E+00 1.172E+01  0.0478 0.66011
  4.000E+01 1.003E+02 1.729E+00 5.811E-05 0.000E+00 0.000E+00 5.811E-05 1.729E+00 1.452E+01  0.0557 0.68834
  4.500E+01 1.074E+02 1.636E+00 6.271E-05 0.000E+00 0.000E+00 6.271E-05 1.636E+00 1.749E+01  0.0639 0.71286
  5.000E+01 1.143E+02 1.562E+00 6.727E-05 0.000E+00 0.000E+00 6.727E-05 1.562E+00 2.062E+01  0.0724 0.73434
  5.500E+01 1.210E+02 1.502E+00 7.181E-05 0.000E+00 0.000E+00 7.181E-05 1.502E+00 2.388E+01  0.0798 0.75332
  6.000E+01 1.276E+02 1.453E+00 7.636E-05 0.000E+00 0.000E+00 7.636E-05 1.453E+00 2.727E+01  0.0873 0.77019
  7.000E+01 1.403E+02 1.377E+00 8.549E-05 0.000E+00 0.000E+00 8.549E-05 1.377E+00 3.434E+01  0.1038 0.79887
  8.000E+01 1.527E+02 1.322E+00 9.474E-05 0.000E+00 0.000E+00 9.474E-05 1.322E+00 4.175E+01  0.1218 0.82227
  9.000E+01 1.647E+02 1.281E+00 1.042E-04 0.000E+00 0.000E+00 1.042E-04 1.281E+00 4.943E+01  0.1405 0.84166
  1.000E+02 1.764E+02 1.250E+00 1.138E-04 0.000E+00 0.000E+00 1.138E-04 1.250E+00 5.734E+01  0.1597 0.85794
  1.200E+02 1.994E+02 1.207E+00 1.335E-04 0.000E+00 0.000E+00 1.335E-04 1.207E+00 7.362E+01  0.1987 0.88361
  1.400E+02 2.218E+02 1.180E+00 1.541E-04 0.000E+00 0.000E+00 1.541E-04 1.180E+00 9.038E+01  0.2377 0.90278
  1.700E+02 2.546E+02 1.158E+00 1.866E-04 0.000E+00 0.000E+00 1.866E-04 1.158E+00 1.160E+02  0.2952 0.92363
  2.000E+02 2.868E+02 1.147E+00 2.208E-04 0.000E+00 0.000E+00 2.208E-04 1.147E+00 1.421E+02  0.3511 0.93835
  2.500E+02 3.396E+02 1.143E+00 2.817E-04 0.000E+00 0.000E+00 2.817E-04 1.144E+00 1.857E+02  0.4400 0.95485
  3.000E+02 3.917E+02 1.148E+00 3.469E-04 0.000E+00 0.000E+00 3.469E-04 1.148E+00 2.294E+02  0.5238 0.96548
  3.500E+02 4.432E+02 1.156E+00 4.160E-04 0.000E+00 0.000E+00 4.160E-04 1.156E+00 2.728E+02  0.6028 0.97274
  4.000E+02 4.945E+02 1.166E+00 4.888E-04 0.000E+00 0.000E+00 4.888E-04 1.166E+00 3.158E+02  0.6775 0.97793
  4.500E+02 5.455E+02 1.176E+00 5.650E-04 2.775E-06 0.000E+00 5.678E-04 1.177E+00 3.585E+02  0.7483 0.98176
  5.000E+02 5.964E+02 1.187E+00 6.444E-04 7.132E-05 0.000E+00 7.157E-04 1.188E+00 4.008E+02  0.8157 0.98467
  5.500E+02 6.471E+02 1.197E+00 7.266E-04 1.029E-04 0.000E+00 8.295E-04 1.198E+00 4.427E+02  0.8800 0.98693
  6.000E+02 6.977E+02 1.208E+00 8.117E-04 1.370E-04 0.000E+00 9.487E-04 1.209E+00 4.842E+02  0.9413 0.98873
  7.000E+02 7.987E+02 1.227E+00 9.894E-04 2.174E-04 0.000E+00 1.207E-03 1.228E+00 5.663E+02  1.0566 0.99136
  8.000E+02 8.995E+02 1.245E+00 1.176E-03 3.138E-04 0.000E+00 1.490E-03 1.247E+00 6.471E+02  1.1632 0.99317
  9.000E+02 1.000E+03 1.262E+00 1.372E-03 4.252E-04 0.000E+00 1.797E-03 1.263E+00 7.268E+02  1.2624 0.99447
  1.000E+03 1.101E+03 1.277E+00 1.575E-03 5.506E-04 0.000E+00 2.126E-03 1.279E+00 8.055E+02  1.3552 0.99542
  1.200E+03 1.301E+03 1.304E+00 2.003E-03 8.405E-04 2.245E-05 2.866E-03 1.307E+00 9.602E+02  1.5250 0.99672
  1.400E+03 1.502E+03 1.327E+00 2.455E-03 1.178E-03 6.086E-05 3.694E-03 1.331E+00 1.112E+03  1.6774 0.99753
  1.700E+03 1.803E+03 1.357E+00 3.174E-03 1.763E-03 1.288E-04 5.065E-03 1.362E+00 1.335E+03  1.8809 0.99829
  2.000E+03 2.103E+03 1.382E+00 3.934E-03 2.432E-03 2.078E-04 6.573E-03 1.388E+00 1.553E+03  2.0608 0.99874
  2.500E+03 2.604E+03 1.416E+00 5.279E-03 3.707E-03 3.584E-04 9.345E-03 1.425E+00 1.908E+03  2.3216 0.99918
  3.000E+03 3.104E+03 1.444E+00 6.708E-03 5.155E-03 5.141E-04 1.238E-02 1.456E+00 2.256E+03  2.5463 0.99942
  3.500E+03 3.604E+03 1.467E+00 8.207E-03 6.750E-03 6.772E-04 1.563E-02 1.482E+00 2.596E+03  2.7441 0.99957
  4.000E+03 4.104E+03 1.486E+00 9.766E-03 8.485E-03 8.500E-04 1.910E-02 1.505E+00 2.931E+03  2.9211 0.99967
  4.500E+03 4.604E+03 1.503E+00 1.138E-02 1.034E-02 1.029E-03 2.275E-02 1.526E+00 3.261E+03  3.0814 0.99974
  5.000E+03 5.105E+03 1.519E+00 1.304E-02 1.230E-02 1.199E-03 2.654E-02 1.545E+00 3.586E+03  3.2281 0.99979
  5.500E+03 5.605E+03 1.532E+00 1.474E-02 1.435E-02 1.382E-03 3.047E-02 1.563E+00 3.908E+03  3.3634 0.99982
  6.000E+03 6.105E+03 1.544E+00 1.649E-02 1.649E-02 1.552E-03 3.453E-02 1.579E+00 4.226E+03  3.4890 0.99985
  7.000E+03 7.105E+03 1.565E+00 2.008E-02 2.099E-02 1.911E-03 4.298E-02 1.608E+00 4.854E+03  3.7163 0.99989
  8.000E+03 8.105E+03 1.583E+00 2.380E-02 2.577E-02 2.265E-03 5.183E-02 1.635E+00 5.471E+03  3.9181 0.99992
  9.000E+03 9.105E+03 1.599E+00 2.763E-02 3.078E-02 2.596E-03 6.100E-02 1.660E+00 6.078E+03  4.0997 0.99993
  1.000E+04 1.011E+04 1.613E+00 3.155E-02 3.600E-02 2.937E-03 7.049E-02 1.683E+00 6.676E+03  4.2648 0.99995
  1.200E+04 1.211E+04 1.636E+00 3.965E-02 4.698E-02 3.625E-03 9.026E-02 1.726E+00 7.849E+03  4.5566 0.99996
  1.400E+04 1.411E+04 1.655E+00 4.805E-02 5.858E-02 4.310E-03 1.109E-01 1.766E+00 8.995E+03  4.8090 0.99997
  1.700E+04 1.711E+04 1.678E+00 6.109E-02 7.692E-02 5.320E-03 1.433E-01 1.821E+00 1.067E+04  5.1339 0.99998
  2.000E+04 2.011E+04 1.697E+00 7.458E-02 9.619E-02 6.306E-03 1.771E-01 1.874E+00 1.229E+04  5.4115 0.99999
  2.500E+04 2.511E+04 1.721E+00 9.789E-02 1.300E-01 7.917E-03 2.358E-01 1.957E+00 1.490E+04  5.8007 0.99999
  3.000E+04 3.011E+04 1.741E+00 1.220E-01 1.654E-01 9.491E-03 2.969E-01 2.038E+00 1.741E+04  6.1251 0.99999
  3.500E+04 3.511E+04 1.757E+00 1.468E-01 2.021E-01 1.107E-02 3.600E-01 2.117E+00 1.982E+04  6.4036 1.00000
  4.000E+04 4.011E+04 1.770E+00 1.722E-01 2.399E-01 1.264E-02 4.248E-01 2.195E+00 2.214E+04  6.6478 1.00000
  4.500E+04 4.511E+04 1.782E+00 1.981E-01 2.786E-01 1.417E-02 4.909E-01 2.273E+00 2.437E+04  6.8653 1.00000
  5.000E+04 5.011E+04 1.792E+00 2.244E-01 3.181E-01 1.571E-02 5.582E-01 2.351E+00 2.654E+04  7.0615 1.00000
  5.500E+04 5.511E+04 1.801E+00 2.511E-01 3.582E-01 1.725E-02 6.266E-01 2.428E+00 2.863E+04  7.2402 1.00000
  6.000E+04 6.011E+04 1.810E+00 2.781E-01 3.989E-01 1.877E-02 6.958E-01 2.505E+00 3.066E+04  7.4043 1.00000
  7.000E+04 7.011E+04 1.824E+00 3.331E-01 4.818E-01 2.179E-02 8.367E-01 2.661E+00 3.453E+04  7.6973 1.00000
  8.000E+04 8.011E+04 1.836E+00 3.891E-01 5.664E-01 2.481E-02 9.803E-01 2.816E+00 3.819E+04  7.9533 1.00000
  9.000E+04 9.011E+04 1.847E+00 4.459E-01 6.524E-01 2.783E-02 1.126E+00 2.973E+00 4.165E+04  8.1805 1.00000
  1.000E+05 1.001E+05 1.856E+00 5.035E-01 7.395E-01 3.078E-02 1.274E+00 3.130E+00 4.493E+04  8.3849 1.00000
  1.200E+05 1.201E+05 1.872E+00 6.206E-01 9.166E-01 3.679E-02 1.574E+00 3.446E+00 5.102E+04  8.7408 1.00000
  1.400E+05 1.401E+05 1.885E+00 7.399E-01 1.097E+00 4.278E-02 1.879E+00 3.764E+00 5.658E+04  9.0437 1.00000
  1.700E+05 1.701E+05 1.901E+00 9.220E-01 1.371E+00 5.176E-02 2.345E+00 4.246E+00 6.410E+04  9.4273 1.00000
  2.000E+05 2.001E+05 1.915E+00 1.107E+00 1.650E+00 6.078E-02 2.818E+00 4.733E+00 7.080E+04  9.7500 1.00000
  2.500E+05 2.501E+05 1.933E+00 1.421E+00 2.121E+00 7.584E-02 3.618E+00 5.551E+00 8.059E+04 10.1946 1.00000
  3.000E+05 3.001E+05 1.948E+00 1.740E+00 2.598E+00 9.098E-02 4.429E+00 6.377E+00 8.901E+04 10.5589 1.00000
  3.500E+05 3.501E+05 1.961E+00 2.063E+00 3.079E+00 1.063E-01 5.248E+00 7.210E+00 9.640E+04 10.8671 1.00000
  4.000E+05 4.001E+05 1.972E+00 2.389E+00 3.564E+00 1.217E-01 6.075E+00 8.047E+00 1.030E+05 11.1340 1.00000
  4.500E+05 4.501E+05 1.982E+00 2.718E+00 4.052E+00 1.371E-01 6.907E+00 8.889E+00 1.089E+05 11.3696 1.00000
  5.000E+05 5.001E+05 1.991E+00 3.050E+00 4.542E+00 1.527E-01 7.744E+00 9.735E+00 1.143E+05 11.5802 1.00000
  5.500E+05 5.501E+05 1.998E+00 3.383E+00 5.033E+00 1.681E-01 8.585E+00 1.058E+01 1.192E+05 11.7708 1.00000
  6.000E+05 6.001E+05 2.006E+00 3.718E+00 5.527E+00 1.836E-01 9.428E+00 1.143E+01 1.238E+05 11.9448 1.00000
  7.000E+05 7.001E+05 2.019E+00 4.392E+00 6.518E+00 2.149E-01 1.113E+01 1.314E+01 1.319E+05 12.2531 1.00000
  8.000E+05 8.001E+05 2.030E+00 5.071E+00 7.513E+00 2.465E-01 1.283E+01 1.486E+01 1.391E+05 12.5201 1.00000
  9.000E+05 9.001E+05 2.040E+00 5.754E+00 8.512E+00 2.784E-01 1.454E+01 1.658E+01 1.455E+05 12.7556 1.00000
  1.000E+06 1.000E+06 2.048E+00 6.441E+00 9.514E+00 3.106E-01 1.626E+01 1.831E+01 1.512E+05 12.9663 1.00000
  1.200E+06 1.200E+06 2.064E+00 7.821E+00 1.152E+01 3.758E-01 1.972E+01 2.178E+01 1.613E+05 13.3309 1.00000
  1.400E+06 1.400E+06 2.077E+00 9.210E+00 1.354E+01 4.418E-01 2.319E+01 2.527E+01 1.698E+05 13.6392 1.00000
  1.700E+06 1.700E+06 2.094E+00 1.131E+01 1.658E+01 5.424E-01 2.842E+01 3.052E+01 1.807E+05 14.0275 1.00000
  2.000E+06 2.000E+06 2.108E+00 1.341E+01 1.962E+01 6.446E-01 3.368E+01 3.578E+01 1.898E+05 14.3525 1.00000
  2.500E+06 2.500E+06 2.127E+00 1.694E+01 2.470E+01 8.179E-01 4.246E+01 4.459E+01 2.024E+05 14.7988 1.00000
  3.000E+06 3.000E+06 2.143E+00 2.049E+01 2.980E+01 9.946E-01 5.128E+01 5.343E+01 2.127E+05 15.1634 1.00000
  3.500E+06 3.500E+06 2.157E+00 2.405E+01 3.491E+01 1.174E+00 6.012E+01 6.228E+01 2.214E+05 15.4717 1.00000
  4.000E+06 4.000E+06 2.168E+00 2.761E+01 4.002E+01 1.356E+00 6.899E+01 7.115E+01 2.289E+05 15.7387 1.00000
  4.500E+06 4.500E+06 2.179E+00 3.119E+01 4.513E+01 1.540E+00 7.786E+01 8.004E+01 2.355E+05 15.9743 1.00000
  5.000E+06 5.000E+06 2.188E+00 3.477E+01 5.025E+01 1.727E+00 8.675E+01 8.894E+01 2.415E+05 16.1850 1.00000
  5.500E+06 5.500E+06 2.197E+00 3.835E+01 5.538E+01 1.915E+00 9.565E+01 9.784E+01 2.468E+05 16.3756 1.00000
  6.000E+06 6.000E+06 2.205E+00 4.194E+01 6.050E+01 2.105E+00 1.046E+02 1.068E+02 2.517E+05 16.5497 1.00000
  7.000E+06 7.000E+06 2.219E+00 4.913E+01 7.076E+01 2.490E+00 1.224E+02 1.246E+02 2.604E+05 16.8579 1.00000
  8.000E+06 8.000E+06 2.231E+00 5.634E+01 8.103E+01 2.880E+00 1.402E+02 1.425E+02 2.679E+05 17.1250 1.00000
  9.000E+06 9.000E+06 2.242E+00 6.355E+01 9.130E+01 3.275E+00 1.581E+02 1.604E+02 2.746E+05 17.3606 1.00000
  1.000E+07 1.000E+07 2.251E+00 7.076E+01 1.016E+02 3.675E+00 1.760E+02 1.783E+02 2.805E+05 17.5713 1.00000
  1.200E+07 1.200E+07 2.268E+00 8.522E+01 1.221E+02 4.488E+00 2.118E+02 2.141E+02 2.908E+05 17.9359 1.00000
  1.400E+07 1.400E+07 2.283E+00 9.968E+01 1.427E+02 5.315E+00 2.477E+02 2.500E+02 2.994E+05 18.2442 1.00000
  1.700E+07 1.700E+07 2.301E+00 1.214E+02 1.736E+02 6.579E+00 3.016E+02 3.039E+02 3.104E+05 18.6325 1.00000
  2.000E+07 2.000E+07 2.316E+00 1.432E+02 2.045E+02 7.867E+00 3.555E+02 3.578E+02 3.195E+05 18.9576 1.00000
  2.500E+07 2.500E+07 2.338E+00 1.794E+02 2.560E+02 1.006E+01 4.454E+02 4.478E+02 3.321E+05 19.4039 1.00000
  3.000E+07 3.000E+07 2.356E+00 2.157E+02 3.075E+02 1.230E+01 5.355E+02 5.379E+02 3.423E+05 19.7685 1.00000
  3.500E+07 3.500E+07 2.371E+00 2.521E+02 3.590E+02 1.458E+01 6.256E+02 6.280E+02 3.509E+05 20.0768 1.00000
  4.000E+07 4.000E+07 2.384E+00 2.884E+02 4.105E+02 1.690E+01 7.158E+02 7.182E+02 3.584E+05 20.3439 1.00000
  4.500E+07 4.500E+07 2.395E+00 3.247E+02 4.620E+02 1.925E+01 8.060E+02 8.084E+02 3.650E+05 20.5794 1.00000
  5.000E+07 5.000E+07 2.406E+00 3.611E+02 5.136E+02 2.163E+01 8.963E+02 8.987E+02 3.708E+05 20.7901 1.00000
  5.500E+07 5.500E+07 2.415E+00 3.975E+02 5.651E+02 2.404E+01 9.866E+02 9.890E+02 3.761E+05 20.9808 1.00000
  6.000E+07 6.000E+07 2.424E+00 4.338E+02 6.166E+02 2.647E+01 1.077E+03 1.079E+03 3.810E+05 21.1548 1.00000
  7.000E+07 7.000E+07 2.440E+00 5.066E+02 7.197E+02 3.140E+01 1.258E+03 1.260E+03 3.896E+05 21.4631 1.00000
  8.000E+07 8.000E+07 2.453E+00 5.794E+02 8.228E+02 3.641E+01 1.439E+03 1.441E+03 3.970E+05 21.7302 1.00000
  9.000E+07 9.000E+07 2.465E+00 6.521E+02 9.259E+02 4.149E+01 1.620E+03 1.622E+03 4.036E+05 21.9657 1.00000
  1.000E+08 1.000E+08 2.476E+00 7.249E+02 1.029E+03 4.663E+01 1.801E+03 1.803E+03 4.094E+05 22.1764 1.00000
  1.200E+08 1.200E+08 2.495E+00 8.705E+02 1.235E+03 5.709E+01 2.163E+03 2.165E+03 4.196E+05 22.5411 1.00000
  1.400E+08 1.400E+08 2.511E+00 1.016E+03 1.441E+03 6.775E+01 2.525E+03 2.528E+03 4.282E+05 22.8494 1.00000
  1.700E+08 1.700E+08 2.531E+00 1.235E+03 1.751E+03 8.406E+01 3.069E+03 3.072E+03 4.390E+05 23.2377 1.00000
  2.000E+08 2.000E+08 2.549E+00 1.453E+03 2.060E+03 1.007E+02 3.614E+03 3.616E+03 4.480E+05 23.5627 1.00000
  2.500E+08 2.500E+08 2.572E+00 1.817E+03 2.576E+03 1.291E+02 4.522E+03 4.525E+03 4.605E+05 24.0090 1.00000
  3.000E+08 3.000E+08 2.592E+00 2.181E+03 3.091E+03 1.581E+02 5.431E+03 5.433E+03 4.706E+05 24.3737 1.00000
  3.500E+08 3.500E+08 2.609E+00 2.546E+03 3.607E+03 1.877E+02 6.340E+03 6.343E+03 4.791E+05 24.6820 1.00000
  4.000E+08 4.000E+08 2.624E+00 2.910E+03 4.122E+03 2.178E+02 7.250E+03 7.253E+03 4.865E+05 24.9490 1.00000
  4.500E+08 4.500E+08 2.637E+00 3.274E+03 4.638E+03 2.484E+02 8.160E+03 8.163E+03 4.930E+05 25.1846 1.00000
  5.000E+08 5.000E+08 2.648E+00 3.638E+03 5.154E+03 2.793E+02 9.071E+03 9.074E+03 4.988E+05 25.3953 1.00000
  5.500E+08 5.500E+08 2.659E+00 4.003E+03 5.669E+03 3.106E+02 9.982E+03 9.985E+03 5.041E+05 25.5859 1.00000
  6.000E+08 6.000E+08 2.669E+00 4.367E+03 6.185E+03 3.423E+02 1.089E+04 1.090E+04 5.089E+05 25.7600 1.00000
  7.000E+08 7.000E+08 2.686E+00 5.095E+03 7.216E+03 4.065E+02 1.272E+04 1.272E+04 5.174E+05 26.0683 1.00000
  8.000E+08 8.000E+08 2.701E+00 5.824E+03 8.247E+03 4.718E+02 1.454E+04 1.455E+04 5.248E+05 26.3353 1.00000
  9.000E+08 9.000E+08 2.715E+00 6.552E+03 9.278E+03 5.380E+02 1.637E+04 1.637E+04 5.313E+05 26.5709 1.00000
  1.000E+09 1.000E+09 2.727E+00 7.281E+03 1.031E+04 6.052E+02 1.819E+04 1.820E+04 5.371E+05 26.7816 1.00000
