 Incident particle is a Muon with M = 105.65839 MeV
 Index = 0: RubberNeoprene
      Absorber with <Z/A> = 0.51952
 Sternheimer coef:  a     k=m_s   x_0    x_1    I[eV]   Cbar  delta0
                 0.0976  3.3632  0.1501  2.9461   93.0  3.7911 0.00

 *** Table generated with PUMAS v1.00 ***

      T         p     Ionization  brems     pair     photonuc  Radloss    dE/dx   CSDA Range  delta   beta
    [MeV]    [MeV/c]  -----------------------[MeV cm^2/g]------------------------  [g/cm^2]
  1.000E+00 1.457E+01 4.546E+01 1.017E-06 0.000E+00 0.000E+00 1.017E-06 4.546E+01 1.100E-02  0.0000 0.13661
  1.200E+00 1.597E+01 3.928E+01 1.167E-06 0.000E+00 0.000E+00 1.167E-06 3.928E+01 1.574E-02  0.0000 0.14944
  1.400E+00 1.726E+01 3.469E+01 1.311E-06 0.000E+00 0.000E+00 1.311E-06 3.469E+01 2.117E-02  0.0000 0.16119
  1.700E+00 1.903E+01 2.965E+01 1.514E-06 0.000E+00 0.000E+00 1.514E-06 2.965E+01 3.055E-02  0.0000 0.17725
  2.000E+00 2.066E+01 2.600E+01 1.707E-06 0.000E+00 0.000E+00 1.707E-06 2.600E+01 4.138E-02  0.0000 0.19186
  2.500E+00 2.312E+01 2.170E+01 2.009E-06 0.000E+00 0.000E+00 2.009E-06 2.170E+01 6.252E-02  0.0000 0.21376
  3.000E+00 2.536E+01 1.872E+01 2.290E-06 0.000E+00 0.000E+00 2.290E-06 1.872E+01 8.739E-02  0.0000 0.23336
  3.500E+00 2.742E+01 1.653E+01 2.556E-06 0.000E+00 0.000E+00 2.556E-06 1.653E+01 1.159E-01  0.0000 0.25120
  4.000E+00 2.935E+01 1.485E+01 2.807E-06 0.000E+00 0.000E+00 2.807E-06 1.485E+01 1.478E-01  0.0000 0.26763
  4.500E+00 3.116E+01 1.351E+01 3.047E-06 0.000E+00 0.000E+00 3.047E-06 1.351E+01 1.832E-01  0.0000 0.28290
  5.000E+00 3.289E+01 1.242E+01 3.277E-06 0.000E+00 0.000E+00 3.277E-06 1.242E+01 2.218E-01  0.0000 0.29720
  5.500E+00 3.453E+01 1.152E+01 3.497E-06 0.000E+00 0.000E+00 3.497E-06 1.152E+01 2.636E-01  0.0000 0.31066
  6.000E+00 3.611E+01 1.075E+01 3.709E-06 0.000E+00 0.000E+00 3.709E-06 1.075E+01 3.086E-01  0.0000 0.32339
  7.000E+00 3.909E+01 9.527E+00 4.113E-06 0.000E+00 0.000E+00 4.113E-06 9.527E+00 4.076E-01  0.0000 0.34700
  8.000E+00 4.189E+01 8.590E+00 4.493E-06 0.000E+00 0.000E+00 4.493E-06 8.590E+00 5.183E-01  0.0000 0.36854
  9.000E+00 4.453E+01 7.849E+00 4.854E-06 0.000E+00 0.000E+00 4.854E-06 7.849E+00 6.402E-01  0.0000 0.38836
  1.000E+01 4.704E+01 7.247E+00 5.197E-06 0.000E+00 0.000E+00 5.197E-06 7.247E+00 7.729E-01  0.0000 0.40675
  1.200E+01 5.177E+01 6.328E+00 5.841E-06 0.000E+00 0.000E+00 5.841E-06 6.328E+00 1.069E+00  0.0000 0.43998
  1.400E+01 5.616E+01 5.659E+00 6.440E-06 0.000E+00 0.000E+00 6.440E-06 5.659E+00 1.404E+00  0.0000 0.46937
  1.700E+01 6.230E+01 4.938E+00 7.274E-06 0.000E+00 0.000E+00 7.274E-06 4.938E+00 1.972E+00  0.0000 0.50792
  2.000E+01 6.802E+01 4.424E+00 8.051E-06 0.000E+00 0.000E+00 8.051E-06 4.424E+00 2.615E+00  0.0000 0.54129
  2.500E+01 7.686E+01 3.834E+00 9.257E-06 0.000E+00 0.000E+00 9.257E-06 3.834E+00 3.833E+00  0.0000 0.58827
  3.000E+01 8.509E+01 3.436E+00 1.039E-05 0.000E+00 0.000E+00 1.039E-05 3.436E+00 5.212E+00  0.0000 0.62720
  3.500E+01 9.285E+01 3.150E+00 1.147E-05 0.000E+00 0.000E+00 1.147E-05 3.150E+00 6.734E+00  0.0000 0.66011
  4.000E+01 1.003E+02 2.936E+00 1.251E-05 0.000E+00 0.000E+00 1.251E-05 2.936E+00 8.379E+00  0.0000 0.68834
  4.500E+01 1.074E+02 2.770E+00 1.354E-05 0.000E+00 0.000E+00 1.354E-05 2.770E+00 1.013E+01  0.0000 0.71286
  5.000E+01 1.143E+02 2.638E+00 1.455E-05 0.000E+00 0.000E+00 1.455E-05 2.638E+00 1.198E+01  0.0000 0.73434
  5.500E+01 1.210E+02 2.531E+00 1.556E-05 0.000E+00 0.000E+00 1.556E-05 2.531E+00 1.392E+01  0.0000 0.75332
  6.000E+01 1.276E+02 2.442E+00 1.656E-05 0.000E+00 0.000E+00 1.656E-05 2.442E+00 1.593E+01  0.0000 0.77019
  7.000E+01 1.403E+02 2.306E+00 1.856E-05 0.000E+00 0.000E+00 1.856E-05 2.306E+00 2.015E+01  0.0000 0.79887
  8.000E+01 1.527E+02 2.207E+00 2.059E-05 0.000E+00 0.000E+00 2.059E-05 2.207E+00 2.458E+01  0.0080 0.82227
  9.000E+01 1.647E+02 2.130E+00 2.264E-05 0.000E+00 0.000E+00 2.264E-05 2.130E+00 2.919E+01  0.0395 0.84166
  1.000E+02 1.764E+02 2.070E+00 2.472E-05 0.000E+00 0.000E+00 2.472E-05 2.070E+00 3.396E+01  0.0712 0.85794
  1.200E+02 1.994E+02 1.986E+00 2.898E-05 0.000E+00 0.000E+00 2.898E-05 1.986E+00 4.382E+01  0.1340 0.88361
  1.400E+02 2.218E+02 1.931E+00 3.341E-05 0.000E+00 0.000E+00 3.341E-05 1.931E+00 5.404E+01  0.1954 0.90278
  1.700E+02 2.546E+02 1.881E+00 4.034E-05 2.206E-14 0.000E+00 4.034E-05 1.881E+00 6.978E+01  0.2842 0.92363
  2.000E+02 2.868E+02 1.853E+00 4.761E-05 4.927E-12 0.000E+00 4.761E-05 1.853E+00 8.585E+01  0.3690 0.93835
  2.500E+02 3.396E+02 1.831E+00 6.046E-05 9.389E-08 0.000E+00 6.056E-05 1.831E+00 1.130E+02  0.5017 0.95485
  3.000E+02 3.917E+02 1.826E+00 7.415E-05 9.883E-07 0.000E+00 7.514E-05 1.826E+00 1.403E+02  0.6247 0.96548
  3.500E+02 4.432E+02 1.828E+00 8.861E-05 2.767E-06 0.000E+00 9.138E-05 1.828E+00 1.677E+02  0.7393 0.97274
  4.000E+02 4.945E+02 1.835E+00 1.038E-04 5.395E-06 0.000E+00 1.092E-04 1.835E+00 1.950E+02  0.8465 0.97793
  4.500E+02 5.455E+02 1.843E+00 1.196E-04 8.842E-06 0.000E+00 1.284E-04 1.843E+00 2.222E+02  0.9473 0.98176
  5.000E+02 5.964E+02 1.853E+00 1.360E-04 1.308E-05 0.000E+00 1.491E-04 1.853E+00 2.492E+02  1.0424 0.98467
  5.500E+02 6.471E+02 1.863E+00 1.529E-04 1.808E-05 0.000E+00 1.710E-04 1.863E+00 2.762E+02  1.1325 0.98693
  6.000E+02 6.977E+02 1.873E+00 1.704E-04 2.382E-05 0.000E+00 1.943E-04 1.873E+00 3.029E+02  1.2181 0.98873
  7.000E+02 7.987E+02 1.893E+00 2.069E-04 3.740E-05 0.000E+00 2.443E-04 1.893E+00 3.560E+02  1.3776 0.99136
  8.000E+02 8.995E+02 1.911E+00 2.451E-04 5.364E-05 0.000E+00 2.987E-04 1.912E+00 4.086E+02  1.5237 0.99317
  9.000E+02 1.000E+03 1.929E+00 2.849E-04 7.238E-05 0.000E+00 3.572E-04 1.929E+00 4.607E+02  1.6587 0.99447
  1.000E+03 1.101E+03 1.945E+00 3.261E-04 9.345E-05 0.000E+00 4.196E-04 1.946E+00 5.123E+02  1.7841 0.99542
  1.200E+03 1.301E+03 1.975E+00 4.125E-04 1.421E-04 2.255E-05 5.772E-04 1.975E+00 6.143E+02  2.0114 0.99672
  1.400E+03 1.502E+03 2.000E+00 5.036E-04 1.986E-04 6.170E-05 7.639E-04 2.001E+00 7.149E+02  2.2135 0.99753
  1.700E+03 1.803E+03 2.033E+00 6.477E-04 2.966E-04 1.322E-04 1.077E-03 2.034E+00 8.636E+02  2.4802 0.99829
  2.000E+03 2.103E+03 2.061E+00 7.997E-04 4.085E-04 2.154E-04 1.424E-03 2.062E+00 1.010E+03  2.7136 0.99874
  2.500E+03 2.604E+03 2.099E+00 1.068E-03 6.220E-04 3.764E-04 2.066E-03 2.101E+00 1.250E+03  3.0480 0.99918
  3.000E+03 3.104E+03 2.130E+00 1.351E-03 8.644E-04 5.456E-04 2.761E-03 2.132E+00 1.487E+03  3.3325 0.99942
  3.500E+03 3.604E+03 2.155E+00 1.648E-03 1.132E-03 7.252E-04 3.505E-03 2.159E+00 1.720E+03  3.5805 0.99957
  4.000E+03 4.104E+03 2.177E+00 1.957E-03 1.435E-03 9.173E-04 4.309E-03 2.181E+00 1.950E+03  3.8004 0.99967
  4.500E+03 4.604E+03 2.196E+00 2.275E-03 1.765E-03 1.117E-03 5.157E-03 2.201E+00 2.178E+03  3.9981 0.99974
  5.000E+03 5.105E+03 2.213E+00 2.603E-03 2.113E-03 1.310E-03 6.026E-03 2.219E+00 2.404E+03  4.1778 0.99979
  5.500E+03 5.605E+03 2.228E+00 2.939E-03 2.480E-03 1.517E-03 6.936E-03 2.235E+00 2.629E+03  4.3425 0.99982
  6.000E+03 6.105E+03 2.242E+00 3.282E-03 2.862E-03 1.710E-03 7.855E-03 2.250E+00 2.852E+03  4.4945 0.99985
  7.000E+03 7.105E+03 2.265E+00 3.990E-03 3.671E-03 2.121E-03 9.782E-03 2.275E+00 3.294E+03  4.7678 0.99989
  8.000E+03 8.105E+03 2.285E+00 4.722E-03 4.531E-03 2.529E-03 1.178E-02 2.297E+00 3.731E+03  5.0081 0.99992
  9.000E+03 9.105E+03 2.303E+00 5.475E-03 5.437E-03 2.912E-03 1.382E-02 2.317E+00 4.165E+03  5.2228 0.99993
  1.000E+04 1.011E+04 2.318E+00 6.247E-03 6.383E-03 3.309E-03 1.594E-02 2.334E+00 4.595E+03  5.4168 0.99995
  1.200E+04 1.211E+04 2.344E+00 7.842E-03 8.381E-03 4.115E-03 2.034E-02 2.365E+00 5.446E+03  5.7565 0.99996
  1.400E+04 1.411E+04 2.366E+00 9.494E-03 1.050E-02 4.923E-03 2.492E-02 2.390E+00 6.287E+03  6.0473 0.99997
  1.700E+04 1.711E+04 2.392E+00 1.206E-02 1.387E-02 6.122E-03 3.205E-02 2.424E+00 7.534E+03  6.4177 0.99998
  2.000E+04 2.011E+04 2.413E+00 1.472E-02 1.743E-02 7.300E-03 3.945E-02 2.453E+00 8.764E+03  6.7309 0.99999
  2.500E+04 2.511E+04 2.442E+00 1.932E-02 2.370E-02 9.238E-03 5.225E-02 2.494E+00 1.079E+04  7.1649 0.99999
  3.000E+04 3.011E+04 2.464E+00 2.409E-02 3.031E-02 1.114E-02 6.554E-02 2.530E+00 1.278E+04  7.5223 0.99999
  3.500E+04 3.511E+04 2.483E+00 2.900E-02 3.720E-02 1.307E-02 7.927E-02 2.562E+00 1.474E+04  7.8262 1.00000
  4.000E+04 4.011E+04 2.499E+00 3.403E-02 4.433E-02 1.498E-02 9.334E-02 2.592E+00 1.668E+04  8.0904 1.00000
  4.500E+04 4.511E+04 2.512E+00 3.916E-02 5.165E-02 1.687E-02 1.077E-01 2.620E+00 1.860E+04  8.3240 1.00000
  5.000E+04 5.011E+04 2.524E+00 4.438E-02 5.915E-02 1.875E-02 1.223E-01 2.647E+00 2.050E+04  8.5334 1.00000
  5.500E+04 5.511E+04 2.535E+00 4.969E-02 6.679E-02 2.066E-02 1.371E-01 2.672E+00 2.238E+04  8.7232 1.00000
  6.000E+04 6.011E+04 2.545E+00 5.506E-02 7.457E-02 2.254E-02 1.522E-01 2.697E+00 2.424E+04  8.8966 1.00000
  7.000E+04 7.011E+04 2.562E+00 6.601E-02 9.047E-02 2.628E-02 1.828E-01 2.745E+00 2.792E+04  9.2041 1.00000
  8.000E+04 8.011E+04 2.577E+00 7.717E-02 1.068E-01 3.003E-02 2.140E-01 2.791E+00 3.153E+04  9.4707 1.00000
  9.000E+04 9.011E+04 2.590E+00 8.853E-02 1.234E-01 3.379E-02 2.457E-01 2.836E+00 3.508E+04  9.7060 1.00000
  1.000E+05 1.001E+05 2.602E+00 1.001E-01 1.403E-01 3.748E-02 2.778E-01 2.879E+00 3.858E+04  9.9164 1.00000
  1.200E+05 1.201E+05 2.621E+00 1.235E-01 1.748E-01 4.500E-02 3.433E-01 2.965E+00 4.543E+04 10.2807 1.00000
  1.400E+05 1.401E+05 2.638E+00 1.475E-01 2.101E-01 5.252E-02 4.101E-01 3.048E+00 5.208E+04 10.5888 1.00000
  1.700E+05 1.701E+05 2.659E+00 1.842E-01 2.641E-01 6.382E-02 5.121E-01 3.171E+00 6.173E+04 10.9768 1.00000
  2.000E+05 2.001E+05 2.676E+00 2.215E-01 3.192E-01 7.519E-02 6.159E-01 3.292E+00 7.102E+04 11.3017 1.00000
  2.500E+05 2.501E+05 2.700E+00 2.851E-01 4.127E-01 9.421E-02 7.920E-01 3.492E+00 8.578E+04 11.7478 1.00000
  3.000E+05 3.001E+05 2.719E+00 3.499E-01 5.078E-01 1.134E-01 9.711E-01 3.690E+00 9.971E+04 12.1123 1.00000
  3.500E+05 3.501E+05 2.736E+00 4.156E-01 6.042E-01 1.328E-01 1.153E+00 3.888E+00 1.129E+05 12.4205 1.00000
  4.000E+05 4.001E+05 2.750E+00 4.821E-01 7.016E-01 1.523E-01 1.336E+00 4.086E+00 1.255E+05 12.6874 1.00000
  4.500E+05 4.501E+05 2.762E+00 5.493E-01 7.997E-01 1.720E-01 1.521E+00 4.283E+00 1.374E+05 12.9230 1.00000
  5.000E+05 5.001E+05 2.774E+00 6.171E-01 8.985E-01 1.918E-01 1.707E+00 4.481E+00 1.488E+05 13.1336 1.00000
  5.500E+05 5.501E+05 2.784E+00 6.854E-01 9.979E-01 2.114E-01 1.895E+00 4.679E+00 1.598E+05 13.3242 1.00000
  6.000E+05 6.001E+05 2.793E+00 7.542E-01 1.098E+00 2.312E-01 2.083E+00 4.876E+00 1.702E+05 13.4982 1.00000
  7.000E+05 7.001E+05 2.810E+00 8.928E-01 1.299E+00 2.711E-01 2.462E+00 5.272E+00 1.900E+05 13.8065 1.00000
  8.000E+05 8.001E+05 2.824E+00 1.033E+00 1.501E+00 3.114E-01 2.845E+00 5.669E+00 2.083E+05 14.0735 1.00000
  9.000E+05 9.001E+05 2.837E+00 1.174E+00 1.704E+00 3.522E-01 3.230E+00 6.066E+00 2.253E+05 14.3090 1.00000
  1.000E+06 1.000E+06 2.848E+00 1.315E+00 1.908E+00 3.933E-01 3.616E+00 6.465E+00 2.413E+05 14.5197 1.00000
  1.200E+06 1.200E+06 2.868E+00 1.601E+00 2.318E+00 4.765E-01 4.396E+00 7.264E+00 2.705E+05 14.8843 1.00000
  1.400E+06 1.400E+06 2.885E+00 1.889E+00 2.730E+00 5.609E-01 5.180E+00 8.065E+00 2.967E+05 15.1926 1.00000
  1.700E+06 1.700E+06 2.907E+00 2.325E+00 3.351E+00 6.895E-01 6.366E+00 9.272E+00 3.315E+05 15.5809 1.00000
  2.000E+06 2.000E+06 2.925E+00 2.764E+00 3.975E+00 8.202E-01 7.559E+00 1.048E+01 3.620E+05 15.9059 1.00000
  2.500E+06 2.500E+06 2.950E+00 3.501E+00 5.019E+00 1.042E+00 9.561E+00 1.251E+01 4.058E+05 16.3522 1.00000
  3.000E+06 3.000E+06 2.970E+00 4.243E+00 6.066E+00 1.268E+00 1.158E+01 1.455E+01 4.430E+05 16.7168 1.00000
  3.500E+06 3.500E+06 2.988E+00 4.988E+00 7.116E+00 1.498E+00 1.360E+01 1.659E+01 4.752E+05 17.0251 1.00000
  4.000E+06 4.000E+06 3.003E+00 5.737E+00 8.168E+00 1.731E+00 1.564E+01 1.864E+01 5.037E+05 17.2921 1.00000
  4.500E+06 4.500E+06 3.016E+00 6.488E+00 9.222E+00 1.967E+00 1.768E+01 2.069E+01 5.292E+05 17.5277 1.00000
  5.000E+06 5.000E+06 3.029E+00 7.241E+00 1.028E+01 2.206E+00 1.972E+01 2.275E+01 5.523E+05 17.7384 1.00000
  5.500E+06 5.500E+06 3.040E+00 7.995E+00 1.133E+01 2.447E+00 2.178E+01 2.482E+01 5.733E+05 17.9290 1.00000
  6.000E+06 6.000E+06 3.050E+00 8.751E+00 1.239E+01 2.690E+00 2.383E+01 2.688E+01 5.927E+05 18.1031 1.00000
  7.000E+06 7.000E+06 3.068E+00 1.027E+01 1.451E+01 3.183E+00 2.796E+01 3.102E+01 6.274E+05 18.4113 1.00000
  8.000E+06 8.000E+06 3.084E+00 1.179E+01 1.662E+01 3.684E+00 3.209E+01 3.518E+01 6.577E+05 18.6784 1.00000
  9.000E+06 9.000E+06 3.097E+00 1.331E+01 1.874E+01 4.190E+00 3.624E+01 3.934E+01 6.847E+05 18.9140 1.00000
  1.000E+07 1.000E+07 3.110E+00 1.483E+01 2.087E+01 4.703E+00 4.040E+01 4.351E+01 7.089E+05 19.1247 1.00000
  1.200E+07 1.200E+07 3.132E+00 1.789E+01 2.511E+01 5.745E+00 4.875E+01 5.188E+01 7.511E+05 19.4893 1.00000
  1.400E+07 1.400E+07 3.150E+00 2.095E+01 2.936E+01 6.805E+00 5.712E+01 6.027E+01 7.870E+05 19.7976 1.00000
  1.700E+07 1.700E+07 3.174E+00 2.555E+01 3.574E+01 8.425E+00 6.972E+01 7.289E+01 8.325E+05 20.1859 1.00000
  2.000E+07 2.000E+07 3.194E+00 3.016E+01 4.213E+01 1.008E+01 8.236E+01 8.556E+01 8.706E+05 20.5110 1.00000
  2.500E+07 2.500E+07 3.222E+00 3.785E+01 5.277E+01 1.289E+01 1.035E+02 1.067E+02 9.232E+05 20.9573 1.00000
  3.000E+07 3.000E+07 3.244E+00 4.555E+01 6.342E+01 1.576E+01 1.247E+02 1.280E+02 9.662E+05 21.3219 1.00000
  3.500E+07 3.500E+07 3.264E+00 5.327E+01 7.407E+01 1.869E+01 1.460E+02 1.493E+02 1.002E+06 21.6302 1.00000
  4.000E+07 4.000E+07 3.281E+00 6.098E+01 8.473E+01 2.166E+01 1.674E+02 1.707E+02 1.034E+06 21.8973 1.00000
  4.500E+07 4.500E+07 3.296E+00 6.870E+01 9.539E+01 2.467E+01 1.888E+02 1.921E+02 1.062E+06 22.1328 1.00000
  5.000E+07 5.000E+07 3.309E+00 7.643E+01 1.060E+02 2.773E+01 2.102E+02 2.135E+02 1.086E+06 22.3435 1.00000
  5.500E+07 5.500E+07 3.322E+00 8.415E+01 1.167E+02 3.081E+01 2.317E+02 2.350E+02 1.109E+06 22.5342 1.00000
  6.000E+07 6.000E+07 3.333E+00 9.188E+01 1.274E+02 3.393E+01 2.532E+02 2.565E+02 1.129E+06 22.7082 1.00000
  7.000E+07 7.000E+07 3.353E+00 1.073E+02 1.487E+02 4.025E+01 2.963E+02 2.996E+02 1.165E+06 23.0165 1.00000
  8.000E+07 8.000E+07 3.370E+00 1.228E+02 1.700E+02 4.667E+01 3.395E+02 3.429E+02 1.196E+06 23.2836 1.00000
  9.000E+07 9.000E+07 3.386E+00 1.383E+02 1.914E+02 5.319E+01 3.828E+02 3.862E+02 1.224E+06 23.5191 1.00000
  1.000E+08 1.000E+08 3.400E+00 1.538E+02 2.127E+02 5.978E+01 4.262E+02 4.296E+02 1.249E+06 23.7298 1.00000
  1.200E+08 1.200E+08 3.424E+00 1.847E+02 2.553E+02 7.320E+01 5.133E+02 5.167E+02 1.291E+06 24.0945 1.00000
  1.400E+08 1.400E+08 3.445E+00 2.157E+02 2.980E+02 8.686E+01 6.006E+02 6.040E+02 1.327E+06 24.4028 1.00000
  1.700E+08 1.700E+08 3.471E+00 2.622E+02 3.620E+02 1.078E+02 7.320E+02 7.355E+02 1.372E+06 24.7911 1.00000
  2.000E+08 2.000E+08 3.493E+00 3.087E+02 4.260E+02 1.291E+02 8.639E+02 8.673E+02 1.410E+06 25.1161 1.00000
  2.500E+08 2.500E+08 3.524E+00 3.862E+02 5.327E+02 1.655E+02 1.084E+03 1.088E+03 1.462E+06 25.5624 1.00000
  3.000E+08 3.000E+08 3.550E+00 4.637E+02 6.394E+02 2.027E+02 1.306E+03 1.309E+03 1.504E+06 25.9271 1.00000
  3.500E+08 3.500E+08 3.571E+00 5.412E+02 7.461E+02 2.407E+02 1.528E+03 1.532E+03 1.539E+06 26.2354 1.00000
  4.000E+08 4.000E+08 3.590E+00 6.187E+02 8.528E+02 2.793E+02 1.751E+03 1.754E+03 1.570E+06 26.5024 1.00000
  4.500E+08 4.500E+08 3.607E+00 6.963E+02 9.595E+02 3.185E+02 1.974E+03 1.978E+03 1.597E+06 26.7380 1.00000
  5.000E+08 5.000E+08 3.622E+00 7.738E+02 1.066E+03 3.582E+02 2.198E+03 2.202E+03 1.621E+06 26.9487 1.00000
  5.500E+08 5.500E+08 3.636E+00 8.513E+02 1.173E+03 3.983E+02 2.423E+03 2.426E+03 1.642E+06 27.1393 1.00000
  6.000E+08 6.000E+08 3.648E+00 9.289E+02 1.280E+03 4.389E+02 2.647E+03 2.651E+03 1.662E+06 27.3134 1.00000
  7.000E+08 7.000E+08 3.671E+00 1.084E+03 1.493E+03 5.212E+02 3.098E+03 3.102E+03 1.697E+06 27.6217 1.00000
  8.000E+08 8.000E+08 3.690E+00 1.239E+03 1.706E+03 6.049E+02 3.550E+03 3.554E+03 1.727E+06 27.8887 1.00000
  9.000E+08 9.000E+08 3.707E+00 1.394E+03 1.920E+03 6.899E+02 4.004E+03 4.007E+03 1.754E+06 28.1243 1.00000
  1.000E+09 1.000E+09 3.723E+00 1.549E+03 2.133E+03 7.760E+02 4.458E+03 4.462E+03 1.778E+06 28.3350 1.00000
