 Incident particle is a Muon with M = 105.65839 MeV
 Index = 0: Rubidium
      Absorber with <Z/A> = 0.43291
 Sternheimer coef:  a     k=m_s   x_0    x_1    I[eV]   Cbar  delta0
                 0.0726  3.4177  0.5737  3.7995  363.0  6.4776 0.14

 *** Table generated with PUMAS v1.00 ***

      T         p     Ionization  brems     pair     photonuc  Radloss    dE/dx   CSDA Range  delta   beta
    [MeV]    [MeV/c]  -----------------------[MeV cm^2/g]------------------------  [g/cm^2]
  1.000E+00 1.457E+01 2.818E+01 2.939E-06 0.000E+00 0.000E+00 2.939E-06 2.818E+01 1.774E-02  0.0002 0.13661
  1.200E+00 1.597E+01 2.462E+01 3.378E-06 0.000E+00 0.000E+00 3.378E-06 2.462E+01 2.535E-02  0.0002 0.14944
  1.400E+00 1.726E+01 2.194E+01 3.795E-06 0.000E+00 0.000E+00 3.795E-06 2.194E+01 3.397E-02  0.0003 0.16119
  1.700E+00 1.903E+01 1.895E+01 4.386E-06 0.000E+00 0.000E+00 4.386E-06 1.895E+01 4.872E-02  0.0003 0.17725
  2.000E+00 2.066E+01 1.674E+01 4.942E-06 0.000E+00 0.000E+00 4.942E-06 1.674E+01 6.560E-02  0.0004 0.19186
  2.500E+00 2.312E+01 1.412E+01 5.807E-06 0.000E+00 0.000E+00 5.807E-06 1.412E+01 9.823E-02  0.0005 0.21376
  3.000E+00 2.536E+01 1.228E+01 6.610E-06 0.000E+00 0.000E+00 6.610E-06 1.228E+01 1.363E-01  0.0006 0.23336
  3.500E+00 2.742E+01 1.091E+01 7.362E-06 0.000E+00 0.000E+00 7.362E-06 1.091E+01 1.796E-01  0.0007 0.25120
  4.000E+00 2.935E+01 9.844E+00 8.071E-06 0.000E+00 0.000E+00 8.071E-06 9.844E+00 2.279E-01  0.0008 0.26763
  4.500E+00 3.116E+01 8.995E+00 8.743E-06 0.000E+00 0.000E+00 8.743E-06 8.995E+00 2.811E-01  0.0009 0.28290
  5.000E+00 3.289E+01 8.300E+00 9.385E-06 0.000E+00 0.000E+00 9.385E-06 8.300E+00 3.390E-01  0.0010 0.29720
  5.500E+00 3.453E+01 7.719E+00 9.998E-06 0.000E+00 0.000E+00 9.998E-06 7.719E+00 4.015E-01  0.0011 0.31066
  6.000E+00 3.611E+01 7.227E+00 1.059E-05 0.000E+00 0.000E+00 1.059E-05 7.227E+00 4.685E-01  0.0012 0.32339
  7.000E+00 3.909E+01 6.434E+00 1.170E-05 0.000E+00 0.000E+00 1.170E-05 6.434E+00 6.154E-01  0.0014 0.34700
  8.000E+00 4.189E+01 5.824E+00 1.275E-05 0.000E+00 0.000E+00 1.275E-05 5.824E+00 7.789E-01  0.0016 0.36854
  9.000E+00 4.453E+01 5.339E+00 1.373E-05 0.000E+00 0.000E+00 1.373E-05 5.339E+00 9.584E-01  0.0018 0.38836
  1.000E+01 4.704E+01 4.944E+00 1.466E-05 0.000E+00 0.000E+00 1.466E-05 4.944E+00 1.153E+00  0.0020 0.40675
  1.200E+01 5.177E+01 4.337E+00 1.641E-05 0.000E+00 0.000E+00 1.641E-05 4.337E+00 1.586E+00  0.0024 0.43998
  1.400E+01 5.616E+01 3.893E+00 1.802E-05 0.000E+00 0.000E+00 1.802E-05 3.893E+00 2.073E+00  0.0028 0.46937
  1.700E+01 6.230E+01 3.412E+00 2.026E-05 0.000E+00 0.000E+00 2.026E-05 3.412E+00 2.898E+00  0.0035 0.50792
  2.000E+01 6.802E+01 3.068E+00 2.234E-05 0.000E+00 0.000E+00 2.234E-05 3.068E+00 3.827E+00  0.0041 0.54129
  2.500E+01 7.686E+01 2.670E+00 2.556E-05 0.000E+00 0.000E+00 2.556E-05 2.670E+00 5.578E+00  0.0053 0.58827
  3.000E+01 8.509E+01 2.402E+00 2.857E-05 0.000E+00 0.000E+00 2.857E-05 2.402E+00 7.555E+00  0.0065 0.62720
  3.500E+01 9.285E+01 2.208E+00 3.145E-05 0.000E+00 0.000E+00 3.145E-05 2.208E+00 9.728E+00  0.0077 0.66011
  4.000E+01 1.003E+02 2.063E+00 3.425E-05 0.000E+00 0.000E+00 3.425E-05 2.063E+00 1.207E+01  0.0090 0.68834
  4.500E+01 1.074E+02 1.950E+00 3.700E-05 0.000E+00 0.000E+00 3.700E-05 1.950E+00 1.457E+01  0.0103 0.71286
  5.000E+01 1.143E+02 1.861E+00 3.971E-05 0.000E+00 0.000E+00 3.971E-05 1.861E+00 1.719E+01  0.0117 0.73434
  5.500E+01 1.210E+02 1.788E+00 4.242E-05 0.000E+00 0.000E+00 4.242E-05 1.788E+00 1.993E+01  0.0131 0.75332
  6.000E+01 1.276E+02 1.728E+00 4.512E-05 0.000E+00 0.000E+00 4.512E-05 1.728E+00 2.278E+01  0.0145 0.77019
  7.000E+01 1.403E+02 1.636E+00 5.054E-05 0.000E+00 0.000E+00 5.054E-05 1.636E+00 2.872E+01  0.0176 0.79887
  8.000E+01 1.527E+02 1.570E+00 5.602E-05 0.000E+00 0.000E+00 5.602E-05 1.570E+00 3.496E+01  0.0208 0.82227
  9.000E+01 1.647E+02 1.520E+00 6.158E-05 0.000E+00 0.000E+00 6.158E-05 1.521E+00 4.144E+01  0.0242 0.84166
  1.000E+02 1.764E+02 1.483E+00 6.725E-05 0.000E+00 0.000E+00 6.725E-05 1.483E+00 4.810E+01  0.0278 0.85794
  1.200E+02 1.994E+02 1.431E+00 7.890E-05 0.000E+00 0.000E+00 7.890E-05 1.431E+00 6.183E+01  0.0355 0.88361
  1.400E+02 2.218E+02 1.399E+00 9.102E-05 0.000E+00 0.000E+00 9.102E-05 1.400E+00 7.596E+01  0.0439 0.90278
  1.700E+02 2.546E+02 1.373E+00 1.101E-04 0.000E+00 0.000E+00 1.101E-04 1.373E+00 9.760E+01  0.0579 0.92363
  2.000E+02 2.868E+02 1.361E+00 1.301E-04 0.000E+00 0.000E+00 1.301E-04 1.361E+00 1.195E+02  0.0735 0.93835
  2.500E+02 3.396E+02 1.357E+00 1.657E-04 0.000E+00 0.000E+00 1.657E-04 1.357E+00 1.563E+02  0.1030 0.95485
  3.000E+02 3.917E+02 1.362E+00 2.037E-04 0.000E+00 0.000E+00 2.037E-04 1.362E+00 1.931E+02  0.1370 0.96548
  3.500E+02 4.432E+02 1.373E+00 2.440E-04 6.515E-06 0.000E+00 2.505E-04 1.373E+00 2.297E+02  0.1622 0.97274
  4.000E+02 4.945E+02 1.385E+00 2.863E-04 1.631E-05 0.000E+00 3.026E-04 1.385E+00 2.659E+02  0.1917 0.97793
  4.500E+02 5.455E+02 1.398E+00 3.305E-04 2.728E-05 0.000E+00 3.578E-04 1.398E+00 3.019E+02  0.2239 0.98176
  5.000E+02 5.964E+02 1.411E+00 3.765E-04 4.069E-05 0.000E+00 4.171E-04 1.411E+00 3.375E+02  0.2579 0.98467
  5.500E+02 6.471E+02 1.424E+00 4.241E-04 5.655E-05 0.000E+00 4.806E-04 1.424E+00 3.727E+02  0.2928 0.98693
  6.000E+02 6.977E+02 1.436E+00 4.732E-04 7.479E-05 0.000E+00 5.480E-04 1.436E+00 4.077E+02  0.3282 0.98873
  7.000E+02 7.987E+02 1.459E+00 5.759E-04 1.180E-04 0.000E+00 6.939E-04 1.460E+00 4.768E+02  0.3993 0.99136
  8.000E+02 8.995E+02 1.480E+00 6.837E-04 1.698E-04 0.000E+00 8.535E-04 1.481E+00 5.448E+02  0.4696 0.99317
  9.000E+02 1.000E+03 1.500E+00 7.962E-04 2.296E-04 0.000E+00 1.026E-03 1.501E+00 6.119E+02  0.5384 0.99447
  1.000E+03 1.101E+03 1.517E+00 9.131E-04 2.969E-04 0.000E+00 1.210E-03 1.519E+00 6.781E+02  0.6052 0.99542
  1.200E+03 1.301E+03 1.549E+00 1.158E-03 4.523E-04 2.248E-05 1.633E-03 1.551E+00 8.084E+02  0.7328 0.99672
  1.400E+03 1.502E+03 1.576E+00 1.417E-03 6.331E-04 6.112E-05 2.112E-03 1.578E+00 9.363E+02  0.8524 0.99753
  1.700E+03 1.803E+03 1.610E+00 1.828E-03 9.465E-04 1.299E-04 2.905E-03 1.613E+00 1.124E+03  1.0178 0.99829
  2.000E+03 2.103E+03 1.639E+00 2.262E-03 1.305E-03 2.101E-04 3.777E-03 1.643E+00 1.309E+03  1.1688 0.99874
  2.500E+03 2.604E+03 1.678E+00 3.028E-03 1.988E-03 3.638E-04 5.380E-03 1.683E+00 1.609E+03  1.3942 0.99918
  3.000E+03 3.104E+03 1.709E+00 3.840E-03 2.764E-03 5.235E-04 7.128E-03 1.716E+00 1.904E+03  1.5932 0.99942
  3.500E+03 3.604E+03 1.735E+00 4.691E-03 3.619E-03 6.915E-04 9.001E-03 1.744E+00 2.193E+03  1.7715 0.99957
  4.000E+03 4.104E+03 1.757E+00 5.575E-03 4.554E-03 8.701E-04 1.100E-02 1.768E+00 2.477E+03  1.9332 0.99967
  4.500E+03 4.604E+03 1.776E+00 6.489E-03 5.557E-03 1.055E-03 1.310E-02 1.789E+00 2.758E+03  2.0811 0.99974
  5.000E+03 5.105E+03 1.793E+00 7.430E-03 6.617E-03 1.232E-03 1.528E-02 1.809E+00 3.036E+03  2.2176 0.99979
  5.500E+03 5.605E+03 1.808E+00 8.394E-03 7.728E-03 1.422E-03 1.754E-02 1.826E+00 3.312E+03  2.3443 0.99982
  6.000E+03 6.105E+03 1.822E+00 9.380E-03 8.886E-03 1.599E-03 1.986E-02 1.842E+00 3.584E+03  2.4626 0.99985
  7.000E+03 7.105E+03 1.846E+00 1.141E-02 1.133E-02 1.973E-03 2.471E-02 1.870E+00 4.123E+03  2.6782 0.99989
  8.000E+03 8.105E+03 1.865E+00 1.351E-02 1.392E-02 2.343E-03 2.977E-02 1.895E+00 4.654E+03  2.8708 0.99992
  9.000E+03 9.105E+03 1.883E+00 1.567E-02 1.664E-02 2.689E-03 3.500E-02 1.918E+00 5.179E+03  3.0452 0.99993
  1.000E+04 1.011E+04 1.898E+00 1.788E-02 1.948E-02 3.046E-03 4.041E-02 1.938E+00 5.697E+03  3.2044 0.99995
  1.200E+04 1.211E+04 1.923E+00 2.245E-02 2.546E-02 3.768E-03 5.168E-02 1.975E+00 6.720E+03  3.4872 0.99996
  1.400E+04 1.411E+04 1.944E+00 2.718E-02 3.179E-02 4.489E-03 6.345E-02 2.007E+00 7.724E+03  3.7329 0.99997
  1.700E+04 1.711E+04 1.969E+00 3.452E-02 4.180E-02 5.554E-03 8.188E-02 2.051E+00 9.203E+03  4.0507 0.99998
  2.000E+04 2.011E+04 1.990E+00 4.212E-02 5.235E-02 6.596E-03 1.011E-01 2.091E+00 1.065E+04  4.3232 0.99999
  2.500E+04 2.511E+04 2.017E+00 5.524E-02 7.086E-02 8.302E-03 1.344E-01 2.151E+00 1.301E+04  4.7064 0.99999
  3.000E+04 3.011E+04 2.038E+00 6.883E-02 9.031E-02 9.972E-03 1.691E-01 2.207E+00 1.530E+04  5.0267 0.99999
  3.500E+04 3.511E+04 2.056E+00 8.280E-02 1.105E-01 1.165E-02 2.050E-01 2.261E+00 1.754E+04  5.3021 1.00000
  4.000E+04 4.011E+04 2.070E+00 9.708E-02 1.313E-01 1.332E-02 2.417E-01 2.312E+00 1.973E+04  5.5438 1.00000
  4.500E+04 4.511E+04 2.083E+00 1.117E-01 1.527E-01 1.495E-02 2.793E-01 2.362E+00 2.187E+04  5.7594 1.00000
  5.000E+04 5.011E+04 2.094E+00 1.265E-01 1.745E-01 1.659E-02 3.175E-01 2.412E+00 2.396E+04  5.9538 1.00000
  5.500E+04 5.511E+04 2.104E+00 1.415E-01 1.967E-01 1.824E-02 3.564E-01 2.460E+00 2.602E+04  6.1311 1.00000
  6.000E+04 6.011E+04 2.113E+00 1.567E-01 2.192E-01 1.986E-02 3.958E-01 2.509E+00 2.803E+04  6.2939 1.00000
  7.000E+04 7.011E+04 2.128E+00 1.876E-01 2.652E-01 2.309E-02 4.759E-01 2.604E+00 3.194E+04  6.5847 1.00000
  8.000E+04 8.011E+04 2.141E+00 2.192E-01 3.121E-01 2.632E-02 5.576E-01 2.699E+00 3.572E+04  6.8387 1.00000
  9.000E+04 9.011E+04 2.153E+00 2.512E-01 3.599E-01 2.955E-02 6.407E-01 2.794E+00 3.936E+04  7.0643 1.00000
  1.000E+05 1.001E+05 2.163E+00 2.837E-01 4.084E-01 3.272E-02 7.248E-01 2.888E+00 4.288E+04  7.2672 1.00000
  1.200E+05 1.201E+05 2.180E+00 3.497E-01 5.071E-01 3.916E-02 8.959E-01 3.076E+00 4.959E+04  7.6206 1.00000
  1.400E+05 1.401E+05 2.194E+00 4.170E-01 6.076E-01 4.559E-02 1.070E+00 3.265E+00 5.591E+04  7.9214 1.00000
  1.700E+05 1.701E+05 2.212E+00 5.197E-01 7.610E-01 5.524E-02 1.336E+00 3.548E+00 6.473E+04  8.3025 1.00000
  2.000E+05 2.001E+05 2.227E+00 6.243E-01 9.170E-01 6.494E-02 1.606E+00 3.833E+00 7.287E+04  8.6231 1.00000
  2.500E+05 2.501E+05 2.247E+00 8.017E-01 1.181E+00 8.113E-02 2.064E+00 4.311E+00 8.519E+04  9.0652 1.00000
  3.000E+05 3.001E+05 2.263E+00 9.821E-01 1.449E+00 9.744E-02 2.528E+00 4.792E+00 9.621E+04  9.4277 1.00000
  3.500E+05 3.501E+05 2.277E+00 1.165E+00 1.719E+00 1.139E-01 2.998E+00 5.275E+00 1.062E+05  9.7349 1.00000
  4.000E+05 4.001E+05 2.289E+00 1.350E+00 1.992E+00 1.305E-01 3.472E+00 5.761E+00 1.152E+05 10.0014 1.00000
  4.500E+05 4.501E+05 2.299E+00 1.536E+00 2.266E+00 1.471E-01 3.950E+00 6.249E+00 1.236E+05 10.2366 1.00000
  5.000E+05 5.001E+05 2.309E+00 1.724E+00 2.542E+00 1.639E-01 4.430E+00 6.739E+00 1.313E+05 10.4472 1.00000
  5.500E+05 5.501E+05 2.317E+00 1.913E+00 2.819E+00 1.806E-01 4.913E+00 7.230E+00 1.385E+05 10.6377 1.00000
  6.000E+05 6.001E+05 2.325E+00 2.103E+00 3.098E+00 1.973E-01 5.398E+00 7.723E+00 1.452E+05 10.8117 1.00000
  7.000E+05 7.001E+05 2.339E+00 2.485E+00 3.656E+00 2.311E-01 6.373E+00 8.712E+00 1.574E+05 11.1200 1.00000
  8.000E+05 8.001E+05 2.351E+00 2.871E+00 4.218E+00 2.652E-01 7.354E+00 9.705E+00 1.683E+05 11.3870 1.00000
  9.000E+05 9.001E+05 2.361E+00 3.259E+00 4.782E+00 2.996E-01 8.340E+00 1.070E+01 1.781E+05 11.6225 1.00000
  1.000E+06 1.000E+06 2.371E+00 3.649E+00 5.347E+00 3.344E-01 9.331E+00 1.170E+01 1.870E+05 11.8332 1.00000
  1.200E+06 1.200E+06 2.388E+00 4.434E+00 6.483E+00 4.047E-01 1.132E+01 1.371E+01 2.029E+05 12.1978 1.00000
  1.400E+06 1.400E+06 2.402E+00 5.224E+00 7.623E+00 4.760E-01 1.332E+01 1.572E+01 2.165E+05 12.5061 1.00000
  1.700E+06 1.700E+06 2.420E+00 6.417E+00 9.339E+00 5.846E-01 1.634E+01 1.876E+01 2.341E+05 12.8944 1.00000
  2.000E+06 2.000E+06 2.435E+00 7.617E+00 1.106E+01 6.950E-01 1.937E+01 2.181E+01 2.489E+05 13.2194 1.00000
  2.500E+06 2.500E+06 2.455E+00 9.628E+00 1.394E+01 8.823E-01 2.445E+01 2.690E+01 2.697E+05 13.6657 1.00000
  3.000E+06 3.000E+06 2.473E+00 1.165E+01 1.682E+01 1.073E+00 2.955E+01 3.202E+01 2.868E+05 14.0303 1.00000
  3.500E+06 3.500E+06 2.487E+00 1.368E+01 1.971E+01 1.267E+00 3.466E+01 3.715E+01 3.013E+05 14.3386 1.00000
  4.000E+06 4.000E+06 2.500E+00 1.572E+01 2.261E+01 1.464E+00 3.979E+01 4.229E+01 3.140E+05 14.6056 1.00000
  4.500E+06 4.500E+06 2.511E+00 1.776E+01 2.551E+01 1.663E+00 4.492E+01 4.744E+01 3.252E+05 14.8412 1.00000
  5.000E+06 5.000E+06 2.521E+00 1.980E+01 2.841E+01 1.864E+00 5.007E+01 5.259E+01 3.352E+05 15.0519 1.00000
  5.500E+06 5.500E+06 2.530E+00 2.185E+01 3.131E+01 2.068E+00 5.522E+01 5.776E+01 3.443E+05 15.2425 1.00000
  6.000E+06 6.000E+06 2.539E+00 2.390E+01 3.421E+01 2.273E+00 6.038E+01 6.292E+01 3.526E+05 15.4166 1.00000
  7.000E+06 7.000E+06 2.554E+00 2.801E+01 4.003E+01 2.689E+00 7.072E+01 7.328E+01 3.673E+05 15.7248 1.00000
  8.000E+06 8.000E+06 2.567E+00 3.212E+01 4.584E+01 3.111E+00 8.108E+01 8.364E+01 3.801E+05 15.9919 1.00000
  9.000E+06 9.000E+06 2.579E+00 3.624E+01 5.166E+01 3.538E+00 9.145E+01 9.403E+01 3.914E+05 16.2275 1.00000
  1.000E+07 1.000E+07 2.589E+00 4.037E+01 5.749E+01 3.970E+00 1.018E+02 1.044E+02 4.015E+05 16.4382 1.00000
  1.200E+07 1.200E+07 2.607E+00 4.863E+01 6.914E+01 4.848E+00 1.226E+02 1.252E+02 4.191E+05 16.8028 1.00000
  1.400E+07 1.400E+07 2.623E+00 5.691E+01 8.081E+01 5.742E+00 1.435E+02 1.461E+02 4.339E+05 17.1111 1.00000
  1.700E+07 1.700E+07 2.642E+00 6.934E+01 9.831E+01 7.108E+00 1.748E+02 1.774E+02 4.527E+05 17.4994 1.00000
  2.000E+07 2.000E+07 2.659E+00 8.178E+01 1.158E+02 8.501E+00 2.061E+02 2.088E+02 4.683E+05 17.8245 1.00000
  2.500E+07 2.500E+07 2.682E+00 1.025E+02 1.450E+02 1.087E+01 2.584E+02 2.611E+02 4.898E+05 18.2708 1.00000
  3.000E+07 3.000E+07 2.701E+00 1.233E+02 1.742E+02 1.329E+01 3.108E+02 3.135E+02 5.074E+05 18.6354 1.00000
  3.500E+07 3.500E+07 2.717E+00 1.441E+02 2.034E+02 1.576E+01 3.633E+02 3.660E+02 5.222E+05 18.9437 1.00000
  4.000E+07 4.000E+07 2.731E+00 1.649E+02 2.326E+02 1.827E+01 4.158E+02 4.185E+02 5.350E+05 19.2108 1.00000
  4.500E+07 4.500E+07 2.744E+00 1.857E+02 2.619E+02 2.081E+01 4.684E+02 4.711E+02 5.463E+05 19.4463 1.00000
  5.000E+07 5.000E+07 2.755E+00 2.065E+02 2.911E+02 2.338E+01 5.210E+02 5.237E+02 5.564E+05 19.6570 1.00000
  5.500E+07 5.500E+07 2.765E+00 2.273E+02 3.203E+02 2.598E+01 5.736E+02 5.764E+02 5.655E+05 19.8477 1.00000
  6.000E+07 6.000E+07 2.775E+00 2.481E+02 3.495E+02 2.861E+01 6.263E+02 6.291E+02 5.738E+05 20.0217 1.00000
  7.000E+07 7.000E+07 2.791E+00 2.898E+02 4.080E+02 3.394E+01 7.317E+02 7.345E+02 5.885E+05 20.3300 1.00000
  8.000E+07 8.000E+07 2.806E+00 3.315E+02 4.665E+02 3.935E+01 8.373E+02 8.401E+02 6.013E+05 20.5971 1.00000
  9.000E+07 9.000E+07 2.819E+00 3.731E+02 5.249E+02 4.484E+01 9.429E+02 9.457E+02 6.125E+05 20.8326 1.00000
  1.000E+08 1.000E+08 2.831E+00 4.148E+02 5.834E+02 5.040E+01 1.049E+03 1.051E+03 6.226E+05 21.0433 1.00000
  1.200E+08 1.200E+08 2.851E+00 4.982E+02 7.004E+02 6.171E+01 1.260E+03 1.263E+03 6.400E+05 21.4080 1.00000
  1.400E+08 1.400E+08 2.868E+00 5.816E+02 8.173E+02 7.323E+01 1.472E+03 1.475E+03 6.547E+05 21.7163 1.00000
  1.700E+08 1.700E+08 2.890E+00 7.067E+02 9.928E+02 9.086E+01 1.790E+03 1.793E+03 6.732E+05 22.1046 1.00000
  2.000E+08 2.000E+08 2.909E+00 8.318E+02 1.168E+03 1.089E+02 2.109E+03 2.112E+03 6.887E+05 22.4296 1.00000
  2.500E+08 2.500E+08 2.934E+00 1.040E+03 1.461E+03 1.395E+02 2.640E+03 2.643E+03 7.100E+05 22.8759 1.00000
  3.000E+08 3.000E+08 2.955E+00 1.249E+03 1.753E+03 1.709E+02 3.173E+03 3.176E+03 7.273E+05 23.2406 1.00000
  3.500E+08 3.500E+08 2.973E+00 1.457E+03 2.045E+03 2.029E+02 3.706E+03 3.709E+03 7.419E+05 23.5489 1.00000
  4.000E+08 4.000E+08 2.989E+00 1.666E+03 2.338E+03 2.354E+02 4.239E+03 4.242E+03 7.546E+05 23.8159 1.00000
  4.500E+08 4.500E+08 3.003E+00 1.875E+03 2.630E+03 2.685E+02 4.773E+03 4.776E+03 7.657E+05 24.0515 1.00000
  5.000E+08 5.000E+08 3.016E+00 2.083E+03 2.923E+03 3.019E+02 5.308E+03 5.311E+03 7.756E+05 24.2622 1.00000
  5.500E+08 5.500E+08 3.027E+00 2.292E+03 3.215E+03 3.358E+02 5.843E+03 5.846E+03 7.846E+05 24.4528 1.00000
  6.000E+08 6.000E+08 3.038E+00 2.500E+03 3.507E+03 3.700E+02 6.378E+03 6.381E+03 7.928E+05 24.6269 1.00000
  7.000E+08 7.000E+08 3.056E+00 2.918E+03 4.092E+03 4.394E+02 7.449E+03 7.452E+03 8.074E+05 24.9352 1.00000
  8.000E+08 8.000E+08 3.072E+00 3.335E+03 4.677E+03 5.100E+02 8.522E+03 8.525E+03 8.199E+05 25.2022 1.00000
  9.000E+08 9.000E+08 3.087E+00 3.752E+03 5.262E+03 5.816E+02 9.595E+03 9.598E+03 8.310E+05 25.4378 1.00000
  1.000E+09 1.000E+09 3.100E+00 4.169E+03 5.847E+03 6.542E+02 1.067E+04 1.067E+04 8.409E+05 25.6485 1.00000
