 Incident particle is a Muon with M = 105.65839 MeV
 Index = 0: Samarium
      Absorber with <Z/A> = 0.41234
 Sternheimer coef:  a     k=m_s   x_0    x_1    I[eV]   Cbar  delta0
                 0.2470  2.6403  0.1503  3.3443  574.0  5.8517 0.14

 *** Table generated with PUMAS v1.00 ***

      T         p     Ionization  brems     pair     photonuc  Radloss    dE/dx   CSDA Range  delta   beta
    [MeV]    [MeV/c]  -----------------------[MeV cm^2/g]------------------------  [g/cm^2]
  1.000E+00 1.457E+01 2.373E+01 4.491E-06 0.000E+00 0.000E+00 4.491E-06 2.373E+01 2.107E-02  0.0013 0.13661
  1.200E+00 1.597E+01 2.085E+01 5.159E-06 0.000E+00 0.000E+00 5.159E-06 2.085E+01 3.008E-02  0.0016 0.14944
  1.400E+00 1.726E+01 1.866E+01 5.792E-06 0.000E+00 0.000E+00 5.792E-06 1.866E+01 4.023E-02  0.0019 0.16119
  1.700E+00 1.903E+01 1.620E+01 6.687E-06 0.000E+00 0.000E+00 6.687E-06 1.620E+01 5.753E-02  0.0023 0.17725
  2.000E+00 2.066E+01 1.437E+01 7.528E-06 0.000E+00 0.000E+00 7.528E-06 1.437E+01 7.723E-02  0.0027 0.19186
  2.500E+00 2.312E+01 1.217E+01 8.833E-06 0.000E+00 0.000E+00 8.833E-06 1.217E+01 1.152E-01  0.0034 0.21376
  3.000E+00 2.536E+01 1.062E+01 1.004E-05 0.000E+00 0.000E+00 1.004E-05 1.062E+01 1.592E-01  0.0040 0.23336
  3.500E+00 2.742E+01 9.464E+00 1.116E-05 0.000E+00 0.000E+00 1.116E-05 9.464E+00 2.092E-01  0.0047 0.25120
  4.000E+00 2.935E+01 8.562E+00 1.222E-05 0.000E+00 0.000E+00 1.222E-05 8.562E+00 2.648E-01  0.0054 0.26763
  4.500E+00 3.116E+01 7.839E+00 1.323E-05 0.000E+00 0.000E+00 1.323E-05 7.839E+00 3.259E-01  0.0061 0.28290
  5.000E+00 3.289E+01 7.245E+00 1.418E-05 0.000E+00 0.000E+00 1.418E-05 7.245E+00 3.923E-01  0.0068 0.29720
  5.500E+00 3.453E+01 6.747E+00 1.510E-05 0.000E+00 0.000E+00 1.510E-05 6.747E+00 4.638E-01  0.0075 0.31066
  6.000E+00 3.611E+01 6.324E+00 1.597E-05 0.000E+00 0.000E+00 1.597E-05 6.324E+00 5.404E-01  0.0082 0.32339
  7.000E+00 3.909E+01 5.642E+00 1.762E-05 0.000E+00 0.000E+00 1.762E-05 5.643E+00 7.081E-01  0.0096 0.34700
  8.000E+00 4.189E+01 5.116E+00 1.916E-05 0.000E+00 0.000E+00 1.916E-05 5.116E+00 8.945E-01  0.0110 0.36854
  9.000E+00 4.453E+01 4.696E+00 2.061E-05 0.000E+00 0.000E+00 2.061E-05 4.696E+00 1.099E+00  0.0124 0.38836
  1.000E+01 4.704E+01 4.354E+00 2.199E-05 0.000E+00 0.000E+00 2.199E-05 4.354E+00 1.320E+00  0.0139 0.40675
  1.200E+01 5.177E+01 3.827E+00 2.455E-05 0.000E+00 0.000E+00 2.455E-05 3.827E+00 1.811E+00  0.0168 0.43998
  1.400E+01 5.616E+01 3.440E+00 2.692E-05 0.000E+00 0.000E+00 2.692E-05 3.440E+00 2.363E+00  0.0198 0.46937
  1.700E+01 6.230E+01 3.020E+00 3.020E-05 0.000E+00 0.000E+00 3.020E-05 3.020E+00 3.296E+00  0.0244 0.50792
  2.000E+01 6.802E+01 2.719E+00 3.323E-05 0.000E+00 0.000E+00 3.323E-05 2.719E+00 4.344E+00  0.0290 0.54129
  2.500E+01 7.686E+01 2.370E+00 3.793E-05 0.000E+00 0.000E+00 3.793E-05 2.370E+00 6.319E+00  0.0371 0.58827
  3.000E+01 8.509E+01 2.134E+00 4.233E-05 0.000E+00 0.000E+00 4.233E-05 2.134E+00 8.545E+00  0.0454 0.62720
  3.500E+01 9.285E+01 1.964E+00 4.655E-05 0.000E+00 0.000E+00 4.655E-05 1.964E+00 1.099E+01  0.0541 0.66011
  4.000E+01 1.003E+02 1.835E+00 5.065E-05 0.000E+00 0.000E+00 5.065E-05 1.835E+00 1.363E+01  0.0631 0.68834
  4.500E+01 1.074E+02 1.736E+00 5.467E-05 0.000E+00 0.000E+00 5.467E-05 1.736E+00 1.643E+01  0.0724 0.71286
  5.000E+01 1.143E+02 1.657E+00 5.866E-05 0.000E+00 0.000E+00 5.866E-05 1.657E+00 1.938E+01  0.0820 0.73434
  5.500E+01 1.210E+02 1.592E+00 6.263E-05 0.000E+00 0.000E+00 6.263E-05 1.592E+00 2.246E+01  0.0919 0.75332
  6.000E+01 1.276E+02 1.539E+00 6.660E-05 0.000E+00 0.000E+00 6.660E-05 1.539E+00 2.565E+01  0.1022 0.77019
  7.000E+01 1.403E+02 1.457E+00 7.457E-05 0.000E+00 0.000E+00 7.457E-05 1.457E+00 3.233E+01  0.1236 0.79887
  8.000E+01 1.527E+02 1.398E+00 8.265E-05 0.000E+00 0.000E+00 8.265E-05 1.398E+00 3.934E+01  0.1429 0.82227
  9.000E+01 1.647E+02 1.355E+00 9.086E-05 0.000E+00 0.000E+00 9.086E-05 1.355E+00 4.660E+01  0.1522 0.84166
  1.000E+02 1.764E+02 1.322E+00 9.922E-05 0.000E+00 0.000E+00 9.922E-05 1.322E+00 5.408E+01  0.1627 0.85794
  1.200E+02 1.994E+02 1.277E+00 1.165E-04 0.000E+00 0.000E+00 1.165E-04 1.277E+00 6.947E+01  0.1863 0.88361
  1.400E+02 2.218E+02 1.249E+00 1.344E-04 0.000E+00 0.000E+00 1.344E-04 1.249E+00 8.531E+01  0.2119 0.90278
  1.700E+02 2.546E+02 1.225E+00 1.627E-04 0.000E+00 0.000E+00 1.627E-04 1.225E+00 1.096E+02  0.2519 0.92363
  2.000E+02 2.868E+02 1.214E+00 1.925E-04 0.000E+00 0.000E+00 1.925E-04 1.215E+00 1.342E+02  0.2927 0.93835
  2.500E+02 3.396E+02 1.211E+00 2.454E-04 0.000E+00 0.000E+00 2.454E-04 1.211E+00 1.754E+02  0.3602 0.95485
  3.000E+02 3.917E+02 1.215E+00 3.020E-04 0.000E+00 0.000E+00 3.020E-04 1.216E+00 2.166E+02  0.4260 0.96548
  3.500E+02 4.432E+02 1.224E+00 3.621E-04 0.000E+00 0.000E+00 3.621E-04 1.225E+00 2.576E+02  0.4895 0.97274
  4.000E+02 4.945E+02 1.235E+00 4.253E-04 0.000E+00 0.000E+00 4.253E-04 1.235E+00 2.982E+02  0.5505 0.97793
  4.500E+02 5.455E+02 1.246E+00 4.914E-04 3.911E-05 0.000E+00 5.305E-04 1.246E+00 3.385E+02  0.6091 0.98176
  5.000E+02 5.964E+02 1.257E+00 5.602E-04 6.283E-05 0.000E+00 6.230E-04 1.258E+00 3.785E+02  0.6654 0.98467
  5.500E+02 6.471E+02 1.269E+00 6.316E-04 8.819E-05 0.000E+00 7.197E-04 1.269E+00 4.180E+02  0.7195 0.98693
  6.000E+02 6.977E+02 1.280E+00 7.053E-04 1.170E-04 0.000E+00 8.223E-04 1.280E+00 4.572E+02  0.7717 0.98873
  7.000E+02 7.987E+02 1.300E+00 8.593E-04 1.853E-04 0.000E+00 1.045E-03 1.301E+00 5.347E+02  0.8705 0.99136
  8.000E+02 8.995E+02 1.319E+00 1.021E-03 2.672E-04 0.000E+00 1.288E-03 1.321E+00 6.110E+02  0.9628 0.99317
  9.000E+02 1.000E+03 1.337E+00 1.191E-03 3.618E-04 0.000E+00 1.552E-03 1.339E+00 6.862E+02  1.0494 0.99447
  1.000E+03 1.101E+03 1.353E+00 1.367E-03 4.683E-04 0.000E+00 1.835E-03 1.355E+00 7.605E+02  1.1309 0.99542
  1.200E+03 1.301E+03 1.382E+00 1.736E-03 7.144E-04 2.246E-05 2.473E-03 1.384E+00 9.065E+02  1.2813 0.99672
  1.400E+03 1.502E+03 1.407E+00 2.127E-03 1.001E-03 6.093E-05 3.189E-03 1.410E+00 1.050E+03  1.4175 0.99753
  1.700E+03 1.803E+03 1.438E+00 2.748E-03 1.497E-03 1.291E-04 4.375E-03 1.443E+00 1.260E+03  1.6007 0.99829
  2.000E+03 2.103E+03 1.465E+00 3.405E-03 2.065E-03 2.084E-04 5.678E-03 1.471E+00 1.466E+03  1.7640 0.99874
  2.500E+03 2.604E+03 1.501E+00 4.566E-03 3.148E-03 3.598E-04 8.074E-03 1.509E+00 1.802E+03  2.0026 0.99918
  3.000E+03 3.104E+03 1.531E+00 5.799E-03 4.377E-03 5.166E-04 1.069E-02 1.541E+00 2.129E+03  2.2097 0.99942
  3.500E+03 3.604E+03 1.555E+00 7.091E-03 5.731E-03 6.810E-04 1.350E-02 1.569E+00 2.451E+03  2.3931 0.99957
  4.000E+03 4.104E+03 1.576E+00 8.435E-03 7.205E-03 8.554E-04 1.650E-02 1.593E+00 2.767E+03  2.5580 0.99967
  4.500E+03 4.604E+03 1.594E+00 9.825E-03 8.783E-03 1.036E-03 1.964E-02 1.614E+00 3.079E+03  2.7079 0.99974
  5.000E+03 5.105E+03 1.610E+00 1.126E-02 1.045E-02 1.208E-03 2.291E-02 1.633E+00 3.387E+03  2.8456 0.99979
  5.500E+03 5.605E+03 1.625E+00 1.272E-02 1.219E-02 1.393E-03 2.631E-02 1.651E+00 3.692E+03  2.9729 0.99982
  6.000E+03 6.105E+03 1.638E+00 1.423E-02 1.401E-02 1.565E-03 2.980E-02 1.667E+00 3.993E+03  3.0915 0.99985
  7.000E+03 7.105E+03 1.660E+00 1.732E-02 1.785E-02 1.927E-03 3.709E-02 1.697E+00 4.588E+03  3.3067 0.99989
  8.000E+03 8.105E+03 1.679E+00 2.052E-02 2.191E-02 2.286E-03 4.472E-02 1.724E+00 5.172E+03  3.4985 0.99992
  9.000E+03 9.105E+03 1.696E+00 2.382E-02 2.618E-02 2.621E-03 5.262E-02 1.748E+00 5.748E+03  3.6717 0.99993
  1.000E+04 1.011E+04 1.710E+00 2.719E-02 3.063E-02 2.966E-03 6.079E-02 1.771E+00 6.317E+03  3.8297 0.99995
  1.200E+04 1.211E+04 1.734E+00 3.417E-02 3.998E-02 3.663E-03 7.781E-02 1.812E+00 7.433E+03  4.1098 0.99996
  1.400E+04 1.411E+04 1.754E+00 4.139E-02 4.987E-02 4.358E-03 9.561E-02 1.850E+00 8.526E+03  4.3530 0.99997
  1.700E+04 1.711E+04 1.779E+00 5.260E-02 6.551E-02 5.383E-03 1.235E-01 1.902E+00 1.013E+04  4.6673 0.99998
  2.000E+04 2.011E+04 1.798E+00 6.421E-02 8.195E-02 6.384E-03 1.525E-01 1.951E+00 1.168E+04  4.9370 0.99999
  2.500E+04 2.511E+04 1.824E+00 8.425E-02 1.108E-01 8.020E-03 2.031E-01 2.027E+00 1.420E+04  5.3165 0.99999
  3.000E+04 3.011E+04 1.845E+00 1.050E-01 1.410E-01 9.620E-03 2.557E-01 2.100E+00 1.662E+04  5.6341 0.99999
  3.500E+04 3.511E+04 1.861E+00 1.264E-01 1.724E-01 1.123E-02 3.100E-01 2.171E+00 1.896E+04  5.9077 1.00000
  4.000E+04 4.011E+04 1.876E+00 1.482E-01 2.047E-01 1.282E-02 3.657E-01 2.241E+00 2.123E+04  6.1482 1.00000
  4.500E+04 4.511E+04 1.888E+00 1.704E-01 2.378E-01 1.438E-02 4.226E-01 2.310E+00 2.343E+04  6.3629 1.00000
  5.000E+04 5.011E+04 1.898E+00 1.931E-01 2.716E-01 1.594E-02 4.806E-01 2.379E+00 2.556E+04  6.5569 1.00000
  5.500E+04 5.511E+04 1.908E+00 2.160E-01 3.059E-01 1.751E-02 5.394E-01 2.447E+00 2.763E+04  6.7339 1.00000
  6.000E+04 6.011E+04 1.916E+00 2.393E-01 3.407E-01 1.907E-02 5.991E-01 2.515E+00 2.965E+04  6.8967 1.00000
  7.000E+04 7.011E+04 1.931E+00 2.865E-01 4.117E-01 2.214E-02 7.204E-01 2.651E+00 3.352E+04  7.1879 1.00000
  8.000E+04 8.011E+04 1.943E+00 3.346E-01 4.842E-01 2.521E-02 8.440E-01 2.787E+00 3.720E+04  7.4427 1.00000
  9.000E+04 9.011E+04 1.954E+00 3.835E-01 5.578E-01 2.829E-02 9.696E-01 2.924E+00 4.070E+04  7.6693 1.00000
  1.000E+05 1.001E+05 1.964E+00 4.331E-01 6.325E-01 3.130E-02 1.097E+00 3.061E+00 4.405E+04  7.8734 1.00000
  1.200E+05 1.201E+05 1.980E+00 5.338E-01 7.843E-01 3.742E-02 1.356E+00 3.336E+00 5.031E+04  8.2294 1.00000
  1.400E+05 1.401E+05 1.993E+00 6.364E-01 9.388E-01 4.353E-02 1.619E+00 3.612E+00 5.608E+04  8.5328 1.00000
  1.700E+05 1.701E+05 2.010E+00 7.931E-01 1.174E+00 5.269E-02 2.020E+00 4.030E+00 6.395E+04  8.9175 1.00000
  2.000E+05 2.001E+05 2.024E+00 9.524E-01 1.413E+00 6.189E-02 2.428E+00 4.452E+00 7.105E+04  9.2413 1.00000
  2.500E+05 2.501E+05 2.043E+00 1.223E+00 1.818E+00 7.725E-02 3.118E+00 5.160E+00 8.151E+04  9.6872 1.00000
  3.000E+05 3.001E+05 2.058E+00 1.497E+00 2.227E+00 9.271E-02 3.817E+00 5.876E+00 9.061E+04 10.0517 1.00000
  3.500E+05 3.501E+05 2.071E+00 1.775E+00 2.641E+00 1.083E-01 4.525E+00 6.596E+00 9.865E+04 10.3599 1.00000
  4.000E+05 4.001E+05 2.083E+00 2.056E+00 3.058E+00 1.240E-01 5.238E+00 7.321E+00 1.059E+05 10.6268 1.00000
  4.500E+05 4.501E+05 2.092E+00 2.340E+00 3.477E+00 1.398E-01 5.956E+00 8.049E+00 1.124E+05 10.8624 1.00000
  5.000E+05 5.001E+05 2.101E+00 2.625E+00 3.898E+00 1.557E-01 6.679E+00 8.780E+00 1.183E+05 11.0730 1.00000
  5.500E+05 5.501E+05 2.110E+00 2.912E+00 4.321E+00 1.714E-01 7.404E+00 9.514E+00 1.238E+05 11.2636 1.00000
  6.000E+05 6.001E+05 2.117E+00 3.201E+00 4.745E+00 1.873E-01 8.133E+00 1.025E+01 1.289E+05 11.4376 1.00000
  7.000E+05 7.001E+05 2.130E+00 3.781E+00 5.598E+00 2.192E-01 9.598E+00 1.173E+01 1.380E+05 11.7459 1.00000
  8.000E+05 8.001E+05 2.142E+00 4.367E+00 6.454E+00 2.515E-01 1.107E+01 1.321E+01 1.461E+05 12.0129 1.00000
  9.000E+05 9.001E+05 2.152E+00 4.955E+00 7.313E+00 2.841E-01 1.255E+01 1.470E+01 1.532E+05 12.2484 1.00000
  1.000E+06 1.000E+06 2.161E+00 5.547E+00 8.175E+00 3.170E-01 1.404E+01 1.620E+01 1.597E+05 12.4591 1.00000
  1.200E+06 1.200E+06 2.176E+00 6.737E+00 9.904E+00 3.835E-01 1.702E+01 1.920E+01 1.711E+05 12.8237 1.00000
  1.400E+06 1.400E+06 2.190E+00 7.934E+00 1.164E+01 4.509E-01 2.002E+01 2.221E+01 1.808E+05 13.1320 1.00000
  1.700E+06 1.700E+06 2.207E+00 9.741E+00 1.425E+01 5.537E-01 2.455E+01 2.675E+01 1.932E+05 13.5203 1.00000
  2.000E+06 2.000E+06 2.221E+00 1.156E+01 1.687E+01 6.580E-01 2.909E+01 3.131E+01 2.036E+05 13.8453 1.00000
  2.500E+06 2.500E+06 2.241E+00 1.460E+01 2.125E+01 8.351E-01 3.668E+01 3.892E+01 2.180E+05 14.2916 1.00000
  3.000E+06 3.000E+06 2.257E+00 1.766E+01 2.563E+01 1.016E+00 4.431E+01 4.657E+01 2.298E+05 14.6562 1.00000
  3.500E+06 3.500E+06 2.271E+00 2.073E+01 3.003E+01 1.199E+00 5.196E+01 5.423E+01 2.398E+05 14.9645 1.00000
  4.000E+06 4.000E+06 2.283E+00 2.381E+01 3.443E+01 1.385E+00 5.962E+01 6.190E+01 2.484E+05 15.2315 1.00000
  4.500E+06 4.500E+06 2.294E+00 2.689E+01 3.883E+01 1.573E+00 6.730E+01 6.959E+01 2.560E+05 15.4671 1.00000
  5.000E+06 5.000E+06 2.304E+00 2.998E+01 4.324E+01 1.763E+00 7.499E+01 7.729E+01 2.629E+05 15.6778 1.00000
  5.500E+06 5.500E+06 2.313E+00 3.308E+01 4.765E+01 1.956E+00 8.268E+01 8.500E+01 2.690E+05 15.8684 1.00000
  6.000E+06 6.000E+06 2.321E+00 3.617E+01 5.207E+01 2.150E+00 9.039E+01 9.271E+01 2.747E+05 16.0425 1.00000
  7.000E+06 7.000E+06 2.335E+00 4.238E+01 6.090E+01 2.543E+00 1.058E+02 1.082E+02 2.847E+05 16.3507 1.00000
  8.000E+06 8.000E+06 2.347E+00 4.859E+01 6.974E+01 2.941E+00 1.213E+02 1.236E+02 2.934E+05 16.6178 1.00000
  9.000E+06 9.000E+06 2.358E+00 5.482E+01 7.858E+01 3.345E+00 1.367E+02 1.391E+02 3.010E+05 16.8534 1.00000
  1.000E+07 1.000E+07 2.368E+00 6.105E+01 8.743E+01 3.754E+00 1.522E+02 1.546E+02 3.078E+05 17.0641 1.00000
  1.200E+07 1.200E+07 2.386E+00 7.352E+01 1.051E+02 4.584E+00 1.832E+02 1.856E+02 3.197E+05 17.4287 1.00000
  1.400E+07 1.400E+07 2.401E+00 8.601E+01 1.229E+02 5.429E+00 2.143E+02 2.167E+02 3.297E+05 17.7370 1.00000
  1.700E+07 1.700E+07 2.419E+00 1.048E+02 1.494E+02 6.720E+00 2.609E+02 2.633E+02 3.423E+05 18.1253 1.00000
  2.000E+07 2.000E+07 2.435E+00 1.235E+02 1.760E+02 8.036E+00 3.076E+02 3.100E+02 3.528E+05 18.4504 1.00000
  2.500E+07 2.500E+07 2.457E+00 1.549E+02 2.204E+02 1.028E+01 3.855E+02 3.880E+02 3.673E+05 18.8967 1.00000
  3.000E+07 3.000E+07 2.475E+00 1.862E+02 2.647E+02 1.256E+01 4.635E+02 4.660E+02 3.792E+05 19.2613 1.00000
  3.500E+07 3.500E+07 2.490E+00 2.176E+02 3.091E+02 1.490E+01 5.415E+02 5.440E+02 3.891E+05 19.5696 1.00000
  4.000E+07 4.000E+07 2.504E+00 2.489E+02 3.535E+02 1.727E+01 6.197E+02 6.222E+02 3.977E+05 19.8367 1.00000
  4.500E+07 4.500E+07 2.516E+00 2.803E+02 3.978E+02 1.967E+01 6.978E+02 7.003E+02 4.053E+05 20.0722 1.00000
  5.000E+07 5.000E+07 2.527E+00 3.117E+02 4.422E+02 2.210E+01 7.760E+02 7.785E+02 4.121E+05 20.2829 1.00000
  5.500E+07 5.500E+07 2.536E+00 3.431E+02 4.866E+02 2.456E+01 8.543E+02 8.568E+02 4.182E+05 20.4736 1.00000
  6.000E+07 6.000E+07 2.545E+00 3.745E+02 5.310E+02 2.704E+01 9.325E+02 9.351E+02 4.238E+05 20.6476 1.00000
  7.000E+07 7.000E+07 2.561E+00 4.373E+02 6.198E+02 3.208E+01 1.089E+03 1.092E+03 4.337E+05 20.9559 1.00000
  8.000E+07 8.000E+07 2.575E+00 5.002E+02 7.085E+02 3.719E+01 1.246E+03 1.248E+03 4.423E+05 21.2230 1.00000
  9.000E+07 9.000E+07 2.587E+00 5.630E+02 7.973E+02 4.238E+01 1.403E+03 1.405E+03 4.499E+05 21.4585 1.00000
  1.000E+08 1.000E+08 2.598E+00 6.259E+02 8.861E+02 4.764E+01 1.560E+03 1.562E+03 4.567E+05 21.6692 1.00000
  1.200E+08 1.200E+08 2.618E+00 7.516E+02 1.064E+03 5.832E+01 1.874E+03 1.876E+03 4.684E+05 22.0339 1.00000
  1.400E+08 1.400E+08 2.634E+00 8.773E+02 1.241E+03 6.921E+01 2.188E+03 2.190E+03 4.783E+05 22.3422 1.00000
  1.700E+08 1.700E+08 2.655E+00 1.066E+03 1.508E+03 8.587E+01 2.660E+03 2.662E+03 4.908E+05 22.7305 1.00000
  2.000E+08 2.000E+08 2.673E+00 1.255E+03 1.774E+03 1.029E+02 3.132E+03 3.134E+03 5.012E+05 23.0555 1.00000
  2.500E+08 2.500E+08 2.697E+00 1.569E+03 2.218E+03 1.319E+02 3.919E+03 3.922E+03 5.155E+05 23.5018 1.00000
  3.000E+08 3.000E+08 2.717E+00 1.884E+03 2.662E+03 1.615E+02 4.707E+03 4.710E+03 5.272E+05 23.8665 1.00000
  3.500E+08 3.500E+08 2.734E+00 2.198E+03 3.106E+03 1.918E+02 5.496E+03 5.499E+03 5.371E+05 24.1748 1.00000
  4.000E+08 4.000E+08 2.749E+00 2.513E+03 3.550E+03 2.225E+02 6.285E+03 6.288E+03 5.456E+05 24.4418 1.00000
  4.500E+08 4.500E+08 2.763E+00 2.827E+03 3.994E+03 2.537E+02 7.075E+03 7.078E+03 5.531E+05 24.6774 1.00000
  5.000E+08 5.000E+08 2.775E+00 3.142E+03 4.438E+03 2.853E+02 7.865E+03 7.868E+03 5.598E+05 24.8881 1.00000
  5.500E+08 5.500E+08 2.786E+00 3.456E+03 4.882E+03 3.173E+02 8.656E+03 8.658E+03 5.659E+05 25.0787 1.00000
  6.000E+08 6.000E+08 2.796E+00 3.771E+03 5.326E+03 3.496E+02 9.446E+03 9.449E+03 5.714E+05 25.2528 1.00000
  7.000E+08 7.000E+08 2.813E+00 4.400E+03 6.214E+03 4.152E+02 1.103E+04 1.103E+04 5.812E+05 25.5611 1.00000
  8.000E+08 8.000E+08 2.829E+00 5.029E+03 7.102E+03 4.819E+02 1.261E+04 1.262E+04 5.897E+05 25.8281 1.00000
  9.000E+08 9.000E+08 2.843E+00 5.658E+03 7.990E+03 5.497E+02 1.420E+04 1.420E+04 5.972E+05 26.0637 1.00000
  1.000E+09 1.000E+09 2.855E+00 6.287E+03 8.878E+03 6.183E+02 1.578E+04 1.579E+04 6.039E+05 26.2744 1.00000
