 Incident particle is a Muon with M = 105.65839 MeV
 Index = 0: ShieldingConcrete
      Absorber with <Z/A> = 0.50273
 Sternheimer coef:  a     k=m_s   x_0    x_1    I[eV]   Cbar  delta0
                 0.0751  3.5467  0.1301  3.0466  135.2  3.9464 0.00

 *** Table generated with PUMAS v1.00 ***

      T         p     Ionization  brems     pair     photonuc  Radloss    dE/dx   CSDA Range  delta   beta
    [MeV]    [MeV/c]  -----------------------[MeV cm^2/g]------------------------  [g/cm^2]
  1.000E+00 1.457E+01 4.090E+01 1.129E-06 0.000E+00 0.000E+00 1.129E-06 4.090E+01 1.222E-02  0.0000 0.13661
  1.200E+00 1.597E+01 3.542E+01 1.296E-06 0.000E+00 0.000E+00 1.296E-06 3.542E+01 1.749E-02  0.0000 0.14944
  1.400E+00 1.726E+01 3.135E+01 1.456E-06 0.000E+00 0.000E+00 1.456E-06 3.135E+01 2.351E-02  0.0000 0.16119
  1.700E+00 1.903E+01 2.686E+01 1.683E-06 0.000E+00 0.000E+00 1.683E-06 2.686E+01 3.388E-02  0.0000 0.17725
  2.000E+00 2.066E+01 2.359E+01 1.898E-06 0.000E+00 0.000E+00 1.898E-06 2.359E+01 4.582E-02  0.0000 0.19186
  2.500E+00 2.312E+01 1.973E+01 2.235E-06 0.000E+00 0.000E+00 2.235E-06 1.973E+01 6.909E-02  0.0000 0.21376
  3.000E+00 2.536E+01 1.706E+01 2.549E-06 0.000E+00 0.000E+00 2.549E-06 1.706E+01 9.641E-02  0.0000 0.23336
  3.500E+00 2.742E+01 1.508E+01 2.845E-06 0.000E+00 0.000E+00 2.845E-06 1.508E+01 1.276E-01  0.0000 0.25120
  4.000E+00 2.935E+01 1.356E+01 3.126E-06 0.000E+00 0.000E+00 3.126E-06 1.356E+01 1.627E-01  0.0000 0.26763
  4.500E+00 3.116E+01 1.235E+01 3.393E-06 0.000E+00 0.000E+00 3.393E-06 1.235E+01 2.013E-01  0.0000 0.28290
  5.000E+00 3.289E+01 1.137E+01 3.649E-06 0.000E+00 0.000E+00 3.649E-06 1.137E+01 2.436E-01  0.0000 0.29720
  5.500E+00 3.453E+01 1.055E+01 3.895E-06 0.000E+00 0.000E+00 3.895E-06 1.055E+01 2.893E-01  0.0000 0.31066
  6.000E+00 3.611E+01 9.851E+00 4.132E-06 0.000E+00 0.000E+00 4.132E-06 9.851E+00 3.384E-01  0.0000 0.32339
  7.000E+00 3.909E+01 8.739E+00 4.583E-06 0.000E+00 0.000E+00 4.583E-06 8.739E+00 4.463E-01  0.0000 0.34700
  8.000E+00 4.189E+01 7.887E+00 5.007E-06 0.000E+00 0.000E+00 5.007E-06 7.887E+00 5.669E-01  0.0000 0.36854
  9.000E+00 4.453E+01 7.212E+00 5.408E-06 0.000E+00 0.000E+00 5.408E-06 7.212E+00 6.997E-01  0.0000 0.38836
  1.000E+01 4.704E+01 6.664E+00 5.791E-06 0.000E+00 0.000E+00 5.791E-06 6.664E+00 8.440E-01  0.0000 0.40675
  1.200E+01 5.177E+01 5.825E+00 6.509E-06 0.000E+00 0.000E+00 6.509E-06 5.825E+00 1.166E+00  0.0000 0.43998
  1.400E+01 5.616E+01 5.214E+00 7.177E-06 0.000E+00 0.000E+00 7.177E-06 5.214E+00 1.529E+00  0.0000 0.46937
  1.700E+01 6.230E+01 4.554E+00 8.108E-06 0.000E+00 0.000E+00 8.108E-06 4.554E+00 2.146E+00  0.0000 0.50792
  2.000E+01 6.802E+01 4.084E+00 8.974E-06 0.000E+00 0.000E+00 8.974E-06 4.084E+00 2.843E+00  0.0000 0.54129
  2.500E+01 7.686E+01 3.543E+00 1.032E-05 0.000E+00 0.000E+00 1.032E-05 3.543E+00 4.161E+00  0.0000 0.58827
  3.000E+01 8.509E+01 3.178E+00 1.158E-05 0.000E+00 0.000E+00 1.158E-05 3.178E+00 5.653E+00  0.0000 0.62720
  3.500E+01 9.285E+01 2.916E+00 1.278E-05 0.000E+00 0.000E+00 1.278E-05 2.916E+00 7.297E+00  0.0000 0.66011
  4.000E+01 1.003E+02 2.719E+00 1.394E-05 0.000E+00 0.000E+00 1.394E-05 2.719E+00 9.074E+00  0.0000 0.68834
  4.500E+01 1.074E+02 2.567E+00 1.509E-05 0.000E+00 0.000E+00 1.509E-05 2.567E+00 1.097E+01  0.0000 0.71286
  5.000E+01 1.143E+02 2.445E+00 1.622E-05 0.000E+00 0.000E+00 1.622E-05 2.445E+00 1.296E+01  0.0000 0.73434
  5.500E+01 1.210E+02 2.347E+00 1.734E-05 0.000E+00 0.000E+00 1.734E-05 2.347E+00 1.505E+01  0.0000 0.75332
  6.000E+01 1.276E+02 2.266E+00 1.845E-05 0.000E+00 0.000E+00 1.845E-05 2.266E+00 1.722E+01  0.0000 0.77019
  7.000E+01 1.403E+02 2.141E+00 2.069E-05 0.000E+00 0.000E+00 2.069E-05 2.141E+00 2.176E+01  0.0000 0.79887
  8.000E+01 1.527E+02 2.049E+00 2.294E-05 0.000E+00 0.000E+00 2.294E-05 2.049E+00 2.654E+01  0.0150 0.82227
  9.000E+01 1.647E+02 1.979E+00 2.522E-05 0.000E+00 0.000E+00 2.522E-05 1.979E+00 3.150E+01  0.0381 0.84166
  1.000E+02 1.764E+02 1.926E+00 2.754E-05 0.000E+00 0.000E+00 2.754E-05 1.926E+00 3.662E+01  0.0623 0.85794
  1.200E+02 1.994E+02 1.850E+00 3.230E-05 0.000E+00 0.000E+00 3.230E-05 1.850E+00 4.722E+01  0.1126 0.88361
  1.400E+02 2.218E+02 1.801E+00 3.722E-05 0.000E+00 0.000E+00 3.722E-05 1.801E+00 5.818E+01  0.1639 0.90278
  1.700E+02 2.546E+02 1.757E+00 4.494E-05 2.694E-14 0.000E+00 4.494E-05 1.757E+00 7.505E+01  0.2406 0.92363
  2.000E+02 2.868E+02 1.732E+00 5.305E-05 6.285E-12 0.000E+00 5.305E-05 1.732E+00 9.225E+01  0.3158 0.93835
  2.500E+02 3.396E+02 1.714E+00 6.737E-05 1.046E-07 0.000E+00 6.747E-05 1.714E+00 1.213E+02  0.4360 0.95485
  3.000E+02 3.917E+02 1.711E+00 8.262E-05 1.100E-06 0.000E+00 8.372E-05 1.711E+00 1.505E+02  0.5496 0.96548
  3.500E+02 4.432E+02 1.715E+00 9.872E-05 3.090E-06 0.000E+00 1.018E-04 1.715E+00 1.796E+02  0.6567 0.97274
  4.000E+02 4.945E+02 1.722E+00 1.156E-04 6.024E-06 0.000E+00 1.216E-04 1.722E+00 2.087E+02  0.7579 0.97793
  4.500E+02 5.455E+02 1.731E+00 1.332E-04 9.871E-06 0.000E+00 1.431E-04 1.731E+00 2.377E+02  0.8536 0.98176
  5.000E+02 5.964E+02 1.741E+00 1.515E-04 1.460E-05 0.000E+00 1.661E-04 1.741E+00 2.665E+02  0.9445 0.98467
  5.500E+02 6.471E+02 1.751E+00 1.704E-04 2.018E-05 0.000E+00 1.906E-04 1.751E+00 2.951E+02  1.0310 0.98693
  6.000E+02 6.977E+02 1.761E+00 1.899E-04 2.658E-05 0.000E+00 2.164E-04 1.762E+00 3.236E+02  1.1134 0.98873
  7.000E+02 7.987E+02 1.781E+00 2.304E-04 4.173E-05 0.000E+00 2.721E-04 1.782E+00 3.800E+02  1.2676 0.99136
  8.000E+02 8.995E+02 1.800E+00 2.729E-04 5.985E-05 0.000E+00 3.328E-04 1.800E+00 4.359E+02  1.4096 0.99317
  9.000E+02 1.000E+03 1.817E+00 3.172E-04 8.075E-05 0.000E+00 3.980E-04 1.818E+00 4.912E+02  1.5412 0.99447
  1.000E+03 1.101E+03 1.834E+00 3.632E-04 1.043E-04 0.000E+00 4.674E-04 1.834E+00 5.459E+02  1.6638 0.99542
  1.200E+03 1.301E+03 1.863E+00 4.593E-04 1.585E-04 2.254E-05 6.404E-04 1.863E+00 6.541E+02  1.8867 0.99672
  1.400E+03 1.502E+03 1.888E+00 5.607E-04 2.216E-04 6.161E-05 8.439E-04 1.889E+00 7.607E+02  2.0855 0.99753
  1.700E+03 1.803E+03 1.920E+00 7.210E-04 3.309E-04 1.318E-04 1.184E-03 1.921E+00 9.183E+02  2.3486 0.99829
  2.000E+03 2.103E+03 1.947E+00 8.900E-04 4.557E-04 2.145E-04 1.560E-03 1.948E+00 1.073E+03  2.5794 0.99874
  2.500E+03 2.604E+03 1.984E+00 1.188E-03 6.939E-04 3.743E-04 2.256E-03 1.986E+00 1.328E+03  2.9107 0.99918
  3.000E+03 3.104E+03 2.014E+00 1.503E-03 9.644E-04 5.420E-04 3.009E-03 2.017E+00 1.577E+03  3.1932 0.99942
  3.500E+03 3.604E+03 2.039E+00 1.833E-03 1.263E-03 7.197E-04 3.815E-03 2.042E+00 1.824E+03  3.4396 0.99957
  4.000E+03 4.104E+03 2.060E+00 2.175E-03 1.599E-03 9.095E-04 4.684E-03 2.065E+00 2.067E+03  3.6583 0.99967
  4.500E+03 4.604E+03 2.078E+00 2.529E-03 1.963E-03 1.107E-03 5.599E-03 2.084E+00 2.308E+03  3.8551 0.99974
  5.000E+03 5.105E+03 2.095E+00 2.893E-03 2.349E-03 1.297E-03 6.538E-03 2.101E+00 2.547E+03  4.0339 0.99979
  5.500E+03 5.605E+03 2.109E+00 3.265E-03 2.754E-03 1.501E-03 7.521E-03 2.117E+00 2.784E+03  4.1980 0.99982
  6.000E+03 6.105E+03 2.123E+00 3.647E-03 3.177E-03 1.692E-03 8.515E-03 2.131E+00 3.020E+03  4.3495 0.99985
  7.000E+03 7.105E+03 2.146E+00 4.431E-03 4.070E-03 2.096E-03 1.060E-02 2.156E+00 3.486E+03  4.6218 0.99989
  8.000E+03 8.105E+03 2.165E+00 5.243E-03 5.020E-03 2.497E-03 1.276E-02 2.178E+00 3.948E+03  4.8615 0.99992
  9.000E+03 9.105E+03 2.182E+00 6.078E-03 6.021E-03 2.875E-03 1.497E-02 2.197E+00 4.405E+03  5.0755 0.99993
  1.000E+04 1.011E+04 2.197E+00 6.933E-03 7.065E-03 3.265E-03 1.726E-02 2.214E+00 4.858E+03  5.2690 0.99995
  1.200E+04 1.211E+04 2.222E+00 8.699E-03 9.271E-03 4.056E-03 2.203E-02 2.244E+00 5.755E+03  5.6078 0.99996
  1.400E+04 1.411E+04 2.243E+00 1.053E-02 1.161E-02 4.849E-03 2.699E-02 2.270E+00 6.642E+03  5.8979 0.99997
  1.700E+04 1.711E+04 2.268E+00 1.337E-02 1.533E-02 6.025E-03 3.472E-02 2.303E+00 7.954E+03  6.2675 0.99998
  2.000E+04 2.011E+04 2.289E+00 1.631E-02 1.925E-02 7.180E-03 4.274E-02 2.332E+00 9.248E+03  6.5800 0.99999
  2.500E+04 2.511E+04 2.317E+00 2.140E-02 2.616E-02 9.078E-03 5.664E-02 2.373E+00 1.137E+04  7.0131 0.99999
  3.000E+04 3.011E+04 2.338E+00 2.667E-02 3.345E-02 1.094E-02 7.106E-02 2.410E+00 1.346E+04  7.3698 0.99999
  3.500E+04 3.511E+04 2.357E+00 3.209E-02 4.105E-02 1.283E-02 8.597E-02 2.442E+00 1.553E+04  7.6731 1.00000
  4.000E+04 4.011E+04 2.372E+00 3.764E-02 4.890E-02 1.470E-02 1.012E-01 2.473E+00 1.756E+04  7.9368 1.00000
  4.500E+04 4.511E+04 2.385E+00 4.331E-02 5.697E-02 1.654E-02 1.168E-01 2.502E+00 1.957E+04  8.1701 1.00000
  5.000E+04 5.011E+04 2.397E+00 4.907E-02 6.522E-02 1.838E-02 1.327E-01 2.530E+00 2.156E+04  8.3792 1.00000
  5.500E+04 5.511E+04 2.408E+00 5.493E-02 7.364E-02 2.024E-02 1.488E-01 2.556E+00 2.352E+04  8.5687 1.00000
  6.000E+04 6.011E+04 2.417E+00 6.086E-02 8.221E-02 2.208E-02 1.651E-01 2.582E+00 2.547E+04  8.7418 1.00000
  7.000E+04 7.011E+04 2.434E+00 7.293E-02 9.972E-02 2.573E-02 1.984E-01 2.632E+00 2.931E+04  9.0491 1.00000
  8.000E+04 8.011E+04 2.448E+00 8.525E-02 1.177E-01 2.939E-02 2.323E-01 2.680E+00 3.307E+04  9.3155 1.00000
  9.000E+04 9.011E+04 2.461E+00 9.777E-02 1.360E-01 3.306E-02 2.668E-01 2.727E+00 3.677E+04  9.5507 1.00000
  1.000E+05 1.001E+05 2.472E+00 1.105E-01 1.546E-01 3.666E-02 3.017E-01 2.773E+00 4.041E+04  9.7611 1.00000
  1.200E+05 1.201E+05 2.491E+00 1.363E-01 1.925E-01 4.399E-02 3.729E-01 2.864E+00 4.750E+04 10.1254 1.00000
  1.400E+05 1.401E+05 2.507E+00 1.627E-01 2.313E-01 5.132E-02 4.454E-01 2.952E+00 5.438E+04 10.4335 1.00000
  1.700E+05 1.701E+05 2.527E+00 2.031E-01 2.907E-01 6.233E-02 5.562E-01 3.083E+00 6.433E+04 10.8215 1.00000
  2.000E+05 2.001E+05 2.544E+00 2.443E-01 3.513E-01 7.341E-02 6.690E-01 3.213E+00 7.386E+04 11.1464 1.00000
  2.500E+05 2.501E+05 2.567E+00 3.142E-01 4.541E-01 9.194E-02 8.603E-01 3.427E+00 8.894E+04 11.5925 1.00000
  3.000E+05 3.001E+05 2.586E+00 3.855E-01 5.587E-01 1.106E-01 1.055E+00 3.640E+00 1.031E+05 11.9570 1.00000
  3.500E+05 3.501E+05 2.601E+00 4.579E-01 6.646E-01 1.295E-01 1.252E+00 3.853E+00 1.165E+05 12.2652 1.00000
  4.000E+05 4.001E+05 2.615E+00 5.311E-01 7.715E-01 1.485E-01 1.451E+00 4.066E+00 1.291E+05 12.5321 1.00000
  4.500E+05 4.501E+05 2.627E+00 6.050E-01 8.793E-01 1.676E-01 1.652E+00 4.279E+00 1.411E+05 12.7677 1.00000
  5.000E+05 5.001E+05 2.638E+00 6.795E-01 9.879E-01 1.869E-01 1.854E+00 4.493E+00 1.525E+05 12.9783 1.00000
  5.500E+05 5.501E+05 2.648E+00 7.547E-01 1.097E+00 2.060E-01 2.058E+00 4.706E+00 1.634E+05 13.1689 1.00000
  6.000E+05 6.001E+05 2.657E+00 8.302E-01 1.207E+00 2.253E-01 2.262E+00 4.919E+00 1.738E+05 13.3429 1.00000
  7.000E+05 7.001E+05 2.673E+00 9.826E-01 1.427E+00 2.641E-01 2.674E+00 5.347E+00 1.933E+05 13.6512 1.00000
  8.000E+05 8.001E+05 2.687E+00 1.136E+00 1.649E+00 3.034E-01 3.089E+00 5.776E+00 2.113E+05 13.9182 1.00000
  9.000E+05 9.001E+05 2.699E+00 1.291E+00 1.872E+00 3.430E-01 3.506E+00 6.206E+00 2.280E+05 14.1537 1.00000
  1.000E+06 1.000E+06 2.711E+00 1.447E+00 2.096E+00 3.830E-01 3.926E+00 6.636E+00 2.436E+05 14.3644 1.00000
  1.200E+06 1.200E+06 2.730E+00 1.761E+00 2.546E+00 4.640E-01 4.771E+00 7.501E+00 2.720E+05 14.7290 1.00000
  1.400E+06 1.400E+06 2.746E+00 2.078E+00 2.998E+00 5.461E-01 5.622E+00 8.368E+00 2.973E+05 15.0373 1.00000
  1.700E+06 1.700E+06 2.767E+00 2.556E+00 3.679E+00 6.712E-01 6.907E+00 9.674E+00 3.307E+05 15.4256 1.00000
  2.000E+06 2.000E+06 2.784E+00 3.038E+00 4.364E+00 7.984E-01 8.200E+00 1.098E+01 3.599E+05 15.7506 1.00000
  2.500E+06 2.500E+06 2.809E+00 3.847E+00 5.508E+00 1.014E+00 1.037E+01 1.318E+01 4.016E+05 16.1969 1.00000
  3.000E+06 3.000E+06 2.828E+00 4.662E+00 6.657E+00 1.234E+00 1.255E+01 1.538E+01 4.368E+05 16.5615 1.00000
  3.500E+06 3.500E+06 2.845E+00 5.480E+00 7.808E+00 1.458E+00 1.475E+01 1.759E+01 4.673E+05 16.8698 1.00000
  4.000E+06 4.000E+06 2.860E+00 6.302E+00 8.962E+00 1.685E+00 1.695E+01 1.981E+01 4.941E+05 17.1368 1.00000
  4.500E+06 4.500E+06 2.873E+00 7.126E+00 1.012E+01 1.914E+00 1.916E+01 2.203E+01 5.181E+05 17.3724 1.00000
  5.000E+06 5.000E+06 2.885E+00 7.952E+00 1.127E+01 2.146E+00 2.137E+01 2.426E+01 5.397E+05 17.5831 1.00000
  5.500E+06 5.500E+06 2.896E+00 8.780E+00 1.243E+01 2.381E+00 2.359E+01 2.649E+01 5.595E+05 17.7737 1.00000
  6.000E+06 6.000E+06 2.905E+00 9.610E+00 1.359E+01 2.618E+00 2.582E+01 2.872E+01 5.776E+05 17.9478 1.00000
  7.000E+06 7.000E+06 2.923E+00 1.127E+01 1.591E+01 3.097E+00 3.028E+01 3.320E+01 6.101E+05 18.2560 1.00000
  8.000E+06 8.000E+06 2.938E+00 1.294E+01 1.823E+01 3.584E+00 3.476E+01 3.769E+01 6.384E+05 18.5231 1.00000
  9.000E+06 9.000E+06 2.952E+00 1.461E+01 2.056E+01 4.077E+00 3.924E+01 4.219E+01 6.635E+05 18.7587 1.00000
  1.000E+07 1.000E+07 2.964E+00 1.628E+01 2.288E+01 4.575E+00 4.374E+01 4.670E+01 6.861E+05 18.9694 1.00000
  1.200E+07 1.200E+07 2.985E+00 1.963E+01 2.754E+01 5.588E+00 5.276E+01 5.574E+01 7.254E+05 19.3340 1.00000
  1.400E+07 1.400E+07 3.003E+00 2.299E+01 3.219E+01 6.619E+00 6.181E+01 6.481E+01 7.588E+05 19.6423 1.00000
  1.700E+07 1.700E+07 3.026E+00 2.804E+01 3.919E+01 8.195E+00 7.542E+01 7.844E+01 8.011E+05 20.0306 1.00000
  2.000E+07 2.000E+07 3.045E+00 3.309E+01 4.618E+01 9.801E+00 8.907E+01 9.212E+01 8.365E+05 20.3557 1.00000
  2.500E+07 2.500E+07 3.072E+00 4.152E+01 5.785E+01 1.254E+01 1.119E+02 1.150E+02 8.854E+05 20.8020 1.00000
  3.000E+07 3.000E+07 3.094E+00 4.997E+01 6.952E+01 1.533E+01 1.348E+02 1.379E+02 9.252E+05 21.1666 1.00000
  3.500E+07 3.500E+07 3.113E+00 5.842E+01 8.120E+01 1.818E+01 1.578E+02 1.609E+02 9.589E+05 21.4749 1.00000
  4.000E+07 4.000E+07 3.129E+00 6.688E+01 9.288E+01 2.107E+01 1.808E+02 1.840E+02 9.880E+05 21.7420 1.00000
  4.500E+07 4.500E+07 3.143E+00 7.535E+01 1.046E+02 2.400E+01 2.039E+02 2.070E+02 1.014E+06 21.9775 1.00000
  5.000E+07 5.000E+07 3.157E+00 8.382E+01 1.162E+02 2.697E+01 2.270E+02 2.302E+02 1.037E+06 22.1882 1.00000
  5.500E+07 5.500E+07 3.168E+00 9.229E+01 1.279E+02 2.997E+01 2.502E+02 2.533E+02 1.057E+06 22.3789 1.00000
  6.000E+07 6.000E+07 3.179E+00 1.008E+02 1.396E+02 3.300E+01 2.734E+02 2.765E+02 1.076E+06 22.5529 1.00000
  7.000E+07 7.000E+07 3.199E+00 1.177E+02 1.630E+02 3.915E+01 3.198E+02 3.230E+02 1.110E+06 22.8612 1.00000
  8.000E+07 8.000E+07 3.216E+00 1.347E+02 1.864E+02 4.540E+01 3.664E+02 3.696E+02 1.139E+06 23.1283 1.00000
  9.000E+07 9.000E+07 3.231E+00 1.516E+02 2.097E+02 5.173E+01 4.131E+02 4.163E+02 1.164E+06 23.3638 1.00000
  1.000E+08 1.000E+08 3.244E+00 1.686E+02 2.331E+02 5.815E+01 4.599E+02 4.631E+02 1.187E+06 23.5745 1.00000
  1.200E+08 1.200E+08 3.268E+00 2.026E+02 2.799E+02 7.119E+01 5.536E+02 5.569E+02 1.227E+06 23.9392 1.00000
  1.400E+08 1.400E+08 3.288E+00 2.365E+02 3.266E+02 8.448E+01 6.476E+02 6.509E+02 1.260E+06 24.2475 1.00000
  1.700E+08 1.700E+08 3.313E+00 2.875E+02 3.968E+02 1.048E+02 7.891E+02 7.924E+02 1.302E+06 24.6358 1.00000
  2.000E+08 2.000E+08 3.335E+00 3.384E+02 4.669E+02 1.256E+02 9.309E+02 9.343E+02 1.337E+06 24.9608 1.00000
  2.500E+08 2.500E+08 3.364E+00 4.233E+02 5.839E+02 1.610E+02 1.168E+03 1.172E+03 1.385E+06 25.4071 1.00000
  3.000E+08 3.000E+08 3.389E+00 5.083E+02 7.008E+02 1.972E+02 1.406E+03 1.410E+03 1.424E+06 25.7718 1.00000
  3.500E+08 3.500E+08 3.410E+00 5.933E+02 8.177E+02 2.341E+02 1.645E+03 1.649E+03 1.457E+06 26.0801 1.00000
  4.000E+08 4.000E+08 3.428E+00 6.782E+02 9.347E+02 2.716E+02 1.885E+03 1.888E+03 1.485E+06 26.3471 1.00000
  4.500E+08 4.500E+08 3.445E+00 7.632E+02 1.052E+03 3.097E+02 2.125E+03 2.128E+03 1.510E+06 26.5827 1.00000
  5.000E+08 5.000E+08 3.459E+00 8.482E+02 1.169E+03 3.483E+02 2.365E+03 2.369E+03 1.533E+06 26.7934 1.00000
  5.500E+08 5.500E+08 3.472E+00 9.332E+02 1.285E+03 3.874E+02 2.606E+03 2.609E+03 1.553E+06 26.9840 1.00000
  6.000E+08 6.000E+08 3.485E+00 1.018E+03 1.402E+03 4.269E+02 2.847E+03 2.851E+03 1.571E+06 27.1581 1.00000
  7.000E+08 7.000E+08 3.506E+00 1.188E+03 1.636E+03 5.069E+02 3.331E+03 3.335E+03 1.604E+06 27.4664 1.00000
  8.000E+08 8.000E+08 3.525E+00 1.358E+03 1.870E+03 5.884E+02 3.817E+03 3.820E+03 1.632E+06 27.7334 1.00000
  9.000E+08 9.000E+08 3.542E+00 1.528E+03 2.104E+03 6.710E+02 4.303E+03 4.307E+03 1.657E+06 27.9690 1.00000
  1.000E+09 1.000E+09 3.557E+00 1.698E+03 2.338E+03 7.548E+02 4.791E+03 4.794E+03 1.679E+06 28.1797 1.00000
