 Incident particle is a Muon with M = 105.65839 MeV
 Index = 0: SilicaAerogel
      Absorber with <Z/A> = 0.50097
 Sternheimer coef:  a     k=m_s   x_0    x_1    I[eV]   Cbar  delta0
                 0.2668  3.0000  0.6029  3.0000  139.2  6.4507 0.00

 *** Table generated with PUMAS v1.00 ***

      T         p     Ionization  brems     pair     photonuc  Radloss    dE/dx   CSDA Range  delta   beta
    [MeV]    [MeV/c]  -----------------------[MeV cm^2/g]------------------------  [g/cm^2]
  1.000E+00 1.457E+01 4.052E+01 1.097E-06 0.000E+00 0.000E+00 1.097E-06 4.052E+01 1.234E-02  0.0000 0.13661
  1.200E+00 1.597E+01 3.510E+01 1.260E-06 0.000E+00 0.000E+00 1.260E-06 3.510E+01 1.766E-02  0.0000 0.14944
  1.400E+00 1.726E+01 3.106E+01 1.415E-06 0.000E+00 0.000E+00 1.415E-06 3.106E+01 2.373E-02  0.0000 0.16119
  1.700E+00 1.903E+01 2.662E+01 1.637E-06 0.000E+00 0.000E+00 1.637E-06 2.662E+01 3.419E-02  0.0000 0.17725
  2.000E+00 2.066E+01 2.338E+01 1.846E-06 0.000E+00 0.000E+00 1.846E-06 2.338E+01 4.624E-02  0.0000 0.19186
  2.500E+00 2.312E+01 1.957E+01 2.173E-06 0.000E+00 0.000E+00 2.173E-06 1.957E+01 6.971E-02  0.0000 0.21376
  3.000E+00 2.536E+01 1.691E+01 2.479E-06 0.000E+00 0.000E+00 2.479E-06 1.691E+01 9.727E-02  0.0000 0.23336
  3.500E+00 2.742E+01 1.496E+01 2.768E-06 0.000E+00 0.000E+00 2.768E-06 1.496E+01 1.288E-01  0.0000 0.25120
  4.000E+00 2.935E+01 1.345E+01 3.041E-06 0.000E+00 0.000E+00 3.041E-06 1.345E+01 1.641E-01  0.0000 0.26763
  4.500E+00 3.116E+01 1.225E+01 3.301E-06 0.000E+00 0.000E+00 3.301E-06 1.225E+01 2.030E-01  0.0000 0.28290
  5.000E+00 3.289E+01 1.128E+01 3.551E-06 0.000E+00 0.000E+00 3.551E-06 1.128E+01 2.456E-01  0.0000 0.29720
  5.500E+00 3.453E+01 1.046E+01 3.790E-06 0.000E+00 0.000E+00 3.790E-06 1.046E+01 2.917E-01  0.0000 0.31066
  6.000E+00 3.611E+01 9.774E+00 4.021E-06 0.000E+00 0.000E+00 4.021E-06 9.774E+00 3.412E-01  0.0000 0.32339
  7.000E+00 3.909E+01 8.671E+00 4.460E-06 0.000E+00 0.000E+00 4.460E-06 8.672E+00 4.500E-01  0.0000 0.34700
  8.000E+00 4.189E+01 7.827E+00 4.874E-06 0.000E+00 0.000E+00 4.874E-06 7.827E+00 5.715E-01  0.0000 0.36854
  9.000E+00 4.453E+01 7.157E+00 5.265E-06 0.000E+00 0.000E+00 5.265E-06 7.157E+00 7.053E-01  0.0000 0.38836
  1.000E+01 4.704E+01 6.613E+00 5.638E-06 0.000E+00 0.000E+00 5.638E-06 6.613E+00 8.507E-01  0.0000 0.40675
  1.200E+01 5.177E+01 5.782E+00 6.339E-06 0.000E+00 0.000E+00 6.339E-06 5.782E+00 1.175E+00  0.0000 0.43998
  1.400E+01 5.616E+01 5.175E+00 6.991E-06 0.000E+00 0.000E+00 6.991E-06 5.175E+00 1.541E+00  0.0000 0.46937
  1.700E+01 6.230E+01 4.521E+00 7.898E-06 0.000E+00 0.000E+00 7.898E-06 4.521E+00 2.163E+00  0.0000 0.50792
  2.000E+01 6.802E+01 4.054E+00 8.744E-06 0.000E+00 0.000E+00 8.744E-06 4.054E+00 2.865E+00  0.0000 0.54129
  2.500E+01 7.686E+01 3.518E+00 1.005E-05 0.000E+00 0.000E+00 1.005E-05 3.518E+00 4.192E+00  0.0000 0.58827
  3.000E+01 8.509E+01 3.155E+00 1.128E-05 0.000E+00 0.000E+00 1.128E-05 3.155E+00 5.695E+00  0.0000 0.62720
  3.500E+01 9.285E+01 2.895E+00 1.246E-05 0.000E+00 0.000E+00 1.246E-05 2.895E+00 7.351E+00  0.0000 0.66011
  4.000E+01 1.003E+02 2.700E+00 1.359E-05 0.000E+00 0.000E+00 1.359E-05 2.700E+00 9.140E+00  0.0000 0.68834
  4.500E+01 1.074E+02 2.549E+00 1.471E-05 0.000E+00 0.000E+00 1.471E-05 2.549E+00 1.105E+01  0.0000 0.71286
  5.000E+01 1.143E+02 2.428E+00 1.581E-05 0.000E+00 0.000E+00 1.581E-05 2.429E+00 1.306E+01  0.0000 0.73434
  5.500E+01 1.210E+02 2.331E+00 1.690E-05 0.000E+00 0.000E+00 1.690E-05 2.331E+00 1.516E+01  0.0000 0.75332
  6.000E+01 1.276E+02 2.251E+00 1.799E-05 0.000E+00 0.000E+00 1.799E-05 2.251E+00 1.734E+01  0.0000 0.77019
  7.000E+01 1.403E+02 2.127E+00 2.017E-05 0.000E+00 0.000E+00 2.017E-05 2.127E+00 2.191E+01  0.0000 0.79887
  8.000E+01 1.527E+02 2.037E+00 2.237E-05 0.000E+00 0.000E+00 2.237E-05 2.037E+00 2.672E+01  0.0000 0.82227
  9.000E+01 1.647E+02 1.970E+00 2.460E-05 0.000E+00 0.000E+00 2.460E-05 1.970E+00 3.171E+01  0.0000 0.84166
  1.000E+02 1.764E+02 1.919E+00 2.686E-05 0.000E+00 0.000E+00 2.686E-05 1.919E+00 3.685E+01  0.0000 0.85794
  1.200E+02 1.994E+02 1.849E+00 3.149E-05 0.000E+00 0.000E+00 3.149E-05 1.849E+00 4.747E+01  0.0000 0.88361
  1.400E+02 2.218E+02 1.805E+00 3.630E-05 0.000E+00 0.000E+00 3.630E-05 1.805E+00 5.843E+01  0.0000 0.90278
  1.700E+02 2.546E+02 1.767E+00 4.382E-05 2.751E-14 0.000E+00 4.382E-05 1.767E+00 7.523E+01  0.0000 0.92363
  2.000E+02 2.868E+02 1.749E+00 5.172E-05 6.151E-12 0.000E+00 5.172E-05 1.749E+00 9.229E+01  0.0000 0.93835
  2.500E+02 3.396E+02 1.740E+00 6.567E-05 1.157E-07 0.000E+00 6.579E-05 1.740E+00 1.210E+02  0.0000 0.95485
  3.000E+02 3.917E+02 1.746E+00 8.053E-05 1.079E-06 0.000E+00 8.161E-05 1.746E+00 1.496E+02  0.0000 0.96548
  3.500E+02 4.432E+02 1.757E+00 9.622E-05 3.003E-06 0.000E+00 9.922E-05 1.757E+00 1.782E+02  0.0015 0.97274
  4.000E+02 4.945E+02 1.772E+00 1.127E-04 5.846E-06 0.000E+00 1.185E-04 1.772E+00 2.065E+02  0.0097 0.97793
  4.500E+02 5.455E+02 1.787E+00 1.298E-04 9.574E-06 0.000E+00 1.394E-04 1.787E+00 2.346E+02  0.0242 0.98176
  5.000E+02 5.964E+02 1.802E+00 1.476E-04 1.415E-05 0.000E+00 1.618E-04 1.802E+00 2.625E+02  0.0431 0.98467
  5.500E+02 6.471E+02 1.817E+00 1.660E-04 1.956E-05 0.000E+00 1.856E-04 1.817E+00 2.901E+02  0.0652 0.98693
  6.000E+02 6.977E+02 1.831E+00 1.850E-04 2.576E-05 0.000E+00 2.107E-04 1.831E+00 3.175E+02  0.0895 0.98873
  7.000E+02 7.987E+02 1.858E+00 2.245E-04 4.044E-05 0.000E+00 2.649E-04 1.859E+00 3.717E+02  0.1424 0.99136
  8.000E+02 8.995E+02 1.884E+00 2.659E-04 5.799E-05 0.000E+00 3.239E-04 1.884E+00 4.252E+02  0.1987 0.99317
  9.000E+02 1.000E+03 1.906E+00 3.090E-04 7.823E-05 0.000E+00 3.872E-04 1.907E+00 4.779E+02  0.2563 0.99447
  1.000E+03 1.101E+03 1.927E+00 3.537E-04 1.010E-04 0.000E+00 4.547E-04 1.928E+00 5.301E+02  0.3142 0.99542
  1.200E+03 1.301E+03 1.964E+00 4.473E-04 1.535E-04 2.254E-05 6.234E-04 1.965E+00 6.329E+02  0.4288 0.99672
  1.400E+03 1.502E+03 1.996E+00 5.459E-04 2.146E-04 6.161E-05 8.221E-04 1.997E+00 7.338E+02  0.5397 0.99753
  1.700E+03 1.803E+03 2.036E+00 7.019E-04 3.204E-04 1.319E-04 1.154E-03 2.037E+00 8.826E+02  0.6973 0.99829
  2.000E+03 2.103E+03 2.069E+00 8.664E-04 4.414E-04 2.146E-04 1.522E-03 2.071E+00 1.029E+03  0.8444 0.99874
  2.500E+03 2.604E+03 2.114E+00 1.156E-03 6.720E-04 3.744E-04 2.203E-03 2.116E+00 1.268E+03  1.0681 0.99918
  3.000E+03 3.104E+03 2.150E+00 1.463E-03 9.339E-04 5.421E-04 2.939E-03 2.153E+00 1.502E+03  1.2690 0.99942
  3.500E+03 3.604E+03 2.180E+00 1.784E-03 1.223E-03 7.198E-04 3.726E-03 2.184E+00 1.732E+03  1.4510 0.99957
  4.000E+03 4.104E+03 2.205E+00 2.117E-03 1.549E-03 9.097E-04 4.575E-03 2.210E+00 1.960E+03  1.6174 0.99967
  4.500E+03 4.604E+03 2.227E+00 2.461E-03 1.902E-03 1.107E-03 5.470E-03 2.233E+00 2.185E+03  1.7706 0.99974
  5.000E+03 5.105E+03 2.246E+00 2.814E-03 2.276E-03 1.297E-03 6.388E-03 2.253E+00 2.408E+03  1.9127 0.99979
  5.500E+03 5.605E+03 2.263E+00 3.177E-03 2.669E-03 1.502E-03 7.348E-03 2.271E+00 2.629E+03  2.0450 0.99982
  6.000E+03 6.105E+03 2.279E+00 3.548E-03 3.079E-03 1.692E-03 8.320E-03 2.287E+00 2.849E+03  2.1690 0.99985
  7.000E+03 7.105E+03 2.305E+00 4.311E-03 3.946E-03 2.096E-03 1.035E-02 2.315E+00 3.283E+03  2.3958 0.99989
  8.000E+03 8.105E+03 2.327E+00 5.101E-03 4.868E-03 2.498E-03 1.247E-02 2.340E+00 3.713E+03  2.5993 0.99992
  9.000E+03 9.105E+03 2.346E+00 5.912E-03 5.839E-03 2.876E-03 1.463E-02 2.361E+00 4.138E+03  2.7840 0.99993
  1.000E+04 1.011E+04 2.363E+00 6.745E-03 6.853E-03 3.266E-03 1.686E-02 2.380E+00 4.560E+03  2.9531 0.99995
  1.200E+04 1.211E+04 2.391E+00 8.462E-03 8.993E-03 4.057E-03 2.151E-02 2.412E+00 5.395E+03  3.2539 0.99996
  1.400E+04 1.411E+04 2.414E+00 1.024E-02 1.126E-02 4.851E-03 2.636E-02 2.440E+00 6.219E+03  3.5159 0.99997
  1.700E+04 1.711E+04 2.441E+00 1.300E-02 1.487E-02 6.027E-03 3.390E-02 2.475E+00 7.440E+03  3.8551 0.99998
  2.000E+04 2.011E+04 2.464E+00 1.587E-02 1.868E-02 7.182E-03 4.173E-02 2.505E+00 8.645E+03  4.1462 0.99999
  2.500E+04 2.511E+04 2.493E+00 2.081E-02 2.539E-02 9.081E-03 5.529E-02 2.548E+00 1.062E+04  4.5554 0.99999
  3.000E+04 3.011E+04 2.516E+00 2.594E-02 3.248E-02 1.095E-02 6.936E-02 2.585E+00 1.257E+04  4.8971 0.99999
  3.500E+04 3.511E+04 2.535E+00 3.121E-02 3.985E-02 1.283E-02 8.390E-02 2.619E+00 1.449E+04  5.1903 1.00000
  4.000E+04 4.011E+04 2.551E+00 3.662E-02 4.748E-02 1.470E-02 9.880E-02 2.649E+00 1.639E+04  5.4473 1.00000
  4.500E+04 4.511E+04 2.564E+00 4.213E-02 5.532E-02 1.654E-02 1.140E-01 2.678E+00 1.827E+04  5.6759 1.00000
  5.000E+04 5.011E+04 2.576E+00 4.774E-02 6.334E-02 1.839E-02 1.295E-01 2.706E+00 2.013E+04  5.8817 1.00000
  5.500E+04 5.511E+04 2.587E+00 5.343E-02 7.152E-02 2.025E-02 1.452E-01 2.732E+00 2.197E+04  6.0689 1.00000
  6.000E+04 6.011E+04 2.597E+00 5.920E-02 7.985E-02 2.209E-02 1.611E-01 2.758E+00 2.379E+04  6.2405 1.00000
  7.000E+04 7.011E+04 2.613E+00 7.095E-02 9.687E-02 2.574E-02 1.936E-01 2.807E+00 2.738E+04  6.5459 1.00000
  8.000E+04 8.011E+04 2.628E+00 8.293E-02 1.143E-01 2.940E-02 2.266E-01 2.854E+00 3.091E+04  6.8115 1.00000
  9.000E+04 9.011E+04 2.640E+00 9.511E-02 1.321E-01 3.307E-02 2.603E-01 2.900E+00 3.439E+04  7.0464 1.00000
  1.000E+05 1.001E+05 2.651E+00 1.075E-01 1.502E-01 3.667E-02 2.943E-01 2.946E+00 3.781E+04  7.2568 1.00000
  1.200E+05 1.201E+05 2.670E+00 1.327E-01 1.871E-01 4.401E-02 3.638E-01 3.034E+00 4.450E+04  7.6211 1.00000
  1.400E+05 1.401E+05 2.686E+00 1.583E-01 2.248E-01 5.134E-02 4.345E-01 3.121E+00 5.100E+04  7.9292 1.00000
  1.700E+05 1.701E+05 2.706E+00 1.976E-01 2.826E-01 6.236E-02 5.426E-01 3.249E+00 6.043E+04  8.3172 1.00000
  2.000E+05 2.001E+05 2.723E+00 2.377E-01 3.415E-01 7.345E-02 6.526E-01 3.376E+00 6.949E+04  8.6421 1.00000
  2.500E+05 2.501E+05 2.746E+00 3.058E-01 4.415E-01 9.198E-02 8.393E-01 3.585E+00 8.386E+04  9.0882 1.00000
  3.000E+05 3.001E+05 2.765E+00 3.752E-01 5.432E-01 1.107E-01 1.029E+00 3.794E+00 9.743E+04  9.4527 1.00000
  3.500E+05 3.501E+05 2.780E+00 4.456E-01 6.463E-01 1.296E-01 1.221E+00 4.002E+00 1.103E+05  9.7609 1.00000
  4.000E+05 4.001E+05 2.794E+00 5.169E-01 7.504E-01 1.486E-01 1.416E+00 4.210E+00 1.224E+05 10.0278 1.00000
  4.500E+05 4.501E+05 2.806E+00 5.888E-01 8.553E-01 1.677E-01 1.612E+00 4.418E+00 1.340E+05 10.2634 1.00000
  5.000E+05 5.001E+05 2.817E+00 6.614E-01 9.609E-01 1.870E-01 1.809E+00 4.626E+00 1.451E+05 10.4740 1.00000
  5.500E+05 5.501E+05 2.827E+00 7.345E-01 1.067E+00 2.061E-01 2.008E+00 4.835E+00 1.557E+05 10.6646 1.00000
  6.000E+05 6.001E+05 2.836E+00 8.081E-01 1.174E+00 2.254E-01 2.207E+00 5.043E+00 1.658E+05 10.8386 1.00000
  7.000E+05 7.001E+05 2.852E+00 9.565E-01 1.388E+00 2.643E-01 2.609E+00 5.461E+00 1.849E+05 11.1469 1.00000
  8.000E+05 8.001E+05 2.866E+00 1.106E+00 1.604E+00 3.035E-01 3.014E+00 5.880E+00 2.025E+05 11.4139 1.00000
  9.000E+05 9.001E+05 2.878E+00 1.257E+00 1.821E+00 3.432E-01 3.422E+00 6.300E+00 2.190E+05 11.6494 1.00000
  1.000E+06 1.000E+06 2.889E+00 1.409E+00 2.039E+00 3.832E-01 3.831E+00 6.721E+00 2.344E+05 11.8601 1.00000
  1.200E+06 1.200E+06 2.908E+00 1.715E+00 2.477E+00 4.642E-01 4.656E+00 7.565E+00 2.625E+05 12.2247 1.00000
  1.400E+06 1.400E+06 2.925E+00 2.023E+00 2.918E+00 5.464E-01 5.487E+00 8.412E+00 2.876E+05 12.5330 1.00000
  1.700E+06 1.700E+06 2.945E+00 2.489E+00 3.581E+00 6.716E-01 6.742E+00 9.687E+00 3.209E+05 12.9213 1.00000
  2.000E+06 2.000E+06 2.963E+00 2.959E+00 4.247E+00 7.988E-01 8.005E+00 1.097E+01 3.500E+05 13.2463 1.00000
  2.500E+06 2.500E+06 2.987E+00 3.747E+00 5.362E+00 1.015E+00 1.012E+01 1.311E+01 3.919E+05 13.6926 1.00000
  3.000E+06 3.000E+06 3.007E+00 4.540E+00 6.480E+00 1.235E+00 1.226E+01 1.526E+01 4.274E+05 14.0572 1.00000
  3.500E+06 3.500E+06 3.024E+00 5.337E+00 7.601E+00 1.458E+00 1.440E+01 1.742E+01 4.581E+05 14.3655 1.00000
  4.000E+06 4.000E+06 3.038E+00 6.138E+00 8.725E+00 1.685E+00 1.655E+01 1.959E+01 4.852E+05 14.6325 1.00000
  4.500E+06 4.500E+06 3.051E+00 6.941E+00 9.850E+00 1.915E+00 1.871E+01 2.176E+01 5.095E+05 14.8681 1.00000
  5.000E+06 5.000E+06 3.063E+00 7.746E+00 1.098E+01 2.147E+00 2.087E+01 2.393E+01 5.314E+05 15.0788 1.00000
  5.500E+06 5.500E+06 3.074E+00 8.553E+00 1.210E+01 2.382E+00 2.304E+01 2.611E+01 5.514E+05 15.2694 1.00000
  6.000E+06 6.000E+06 3.083E+00 9.361E+00 1.323E+01 2.619E+00 2.521E+01 2.829E+01 5.698E+05 15.4435 1.00000
  7.000E+06 7.000E+06 3.101E+00 1.098E+01 1.549E+01 3.099E+00 2.957E+01 3.267E+01 6.028E+05 15.7517 1.00000
  8.000E+06 8.000E+06 3.116E+00 1.260E+01 1.775E+01 3.585E+00 3.394E+01 3.706E+01 6.316E+05 16.0188 1.00000
  9.000E+06 9.000E+06 3.129E+00 1.423E+01 2.002E+01 4.079E+00 3.833E+01 4.146E+01 6.571E+05 16.2544 1.00000
  1.000E+07 1.000E+07 3.142E+00 1.586E+01 2.228E+01 4.578E+00 4.272E+01 4.586E+01 6.801E+05 16.4651 1.00000
  1.200E+07 1.200E+07 3.163E+00 1.913E+01 2.681E+01 5.591E+00 5.153E+01 5.469E+01 7.202E+05 16.8297 1.00000
  1.400E+07 1.400E+07 3.181E+00 2.240E+01 3.135E+01 6.623E+00 6.037E+01 6.355E+01 7.542E+05 17.1380 1.00000
  1.700E+07 1.700E+07 3.203E+00 2.732E+01 3.816E+01 8.199E+00 7.367E+01 7.688E+01 7.973E+05 17.5263 1.00000
  2.000E+07 2.000E+07 3.223E+00 3.224E+01 4.497E+01 9.806E+00 8.702E+01 9.024E+01 8.335E+05 17.8514 1.00000
  2.500E+07 2.500E+07 3.249E+00 4.046E+01 5.633E+01 1.254E+01 1.093E+02 1.126E+02 8.834E+05 18.2977 1.00000
  3.000E+07 3.000E+07 3.271E+00 4.869E+01 6.770E+01 1.534E+01 1.317E+02 1.350E+02 9.241E+05 18.6623 1.00000
  3.500E+07 3.500E+07 3.290E+00 5.693E+01 7.907E+01 1.819E+01 1.542E+02 1.575E+02 9.585E+05 18.9706 1.00000
  4.000E+07 4.000E+07 3.306E+00 6.517E+01 9.044E+01 2.108E+01 1.767E+02 1.800E+02 9.883E+05 19.2377 1.00000
  4.500E+07 4.500E+07 3.321E+00 7.342E+01 1.018E+02 2.401E+01 1.992E+02 2.026E+02 1.014E+06 19.4732 1.00000
  5.000E+07 5.000E+07 3.334E+00 8.167E+01 1.132E+02 2.698E+01 2.218E+02 2.252E+02 1.038E+06 19.6839 1.00000
  5.500E+07 5.500E+07 3.345E+00 8.993E+01 1.246E+02 2.998E+01 2.445E+02 2.478E+02 1.059E+06 19.8746 1.00000
  6.000E+07 6.000E+07 3.356E+00 9.819E+01 1.360E+02 3.302E+01 2.672E+02 2.705E+02 1.078E+06 20.0486 1.00000
  7.000E+07 7.000E+07 3.376E+00 1.147E+02 1.587E+02 3.917E+01 3.126E+02 3.160E+02 1.113E+06 20.3569 1.00000
  8.000E+07 8.000E+07 3.393E+00 1.312E+02 1.815E+02 4.542E+01 3.581E+02 3.615E+02 1.142E+06 20.6240 1.00000
  9.000E+07 9.000E+07 3.407E+00 1.478E+02 2.042E+02 5.176E+01 4.038E+02 4.072E+02 1.169E+06 20.8595 1.00000
  1.000E+08 1.000E+08 3.421E+00 1.643E+02 2.270E+02 5.818E+01 4.495E+02 4.529E+02 1.192E+06 21.0702 1.00000
  1.200E+08 1.200E+08 3.444E+00 1.974E+02 2.725E+02 7.123E+01 5.412E+02 5.446E+02 1.232E+06 21.4349 1.00000
  1.400E+08 1.400E+08 3.464E+00 2.305E+02 3.181E+02 8.453E+01 6.331E+02 6.366E+02 1.266E+06 21.7432 1.00000
  1.700E+08 1.700E+08 3.490E+00 2.801E+02 3.864E+02 1.049E+02 7.714E+02 7.749E+02 1.309E+06 22.1315 1.00000
  2.000E+08 2.000E+08 3.511E+00 3.298E+02 4.547E+02 1.256E+02 9.102E+02 9.137E+02 1.345E+06 22.4565 1.00000
  2.500E+08 2.500E+08 3.541E+00 4.126E+02 5.686E+02 1.610E+02 1.142E+03 1.146E+03 1.394E+06 22.9028 1.00000
  3.000E+08 3.000E+08 3.565E+00 4.954E+02 6.825E+02 1.973E+02 1.375E+03 1.379E+03 1.434E+06 23.2675 1.00000
  3.500E+08 3.500E+08 3.586E+00 5.782E+02 7.963E+02 2.342E+02 1.609E+03 1.612E+03 1.468E+06 23.5758 1.00000
  4.000E+08 4.000E+08 3.604E+00 6.610E+02 9.102E+02 2.718E+02 1.843E+03 1.847E+03 1.497E+06 23.8428 1.00000
  4.500E+08 4.500E+08 3.621E+00 7.438E+02 1.024E+03 3.099E+02 2.078E+03 2.081E+03 1.522E+06 24.0784 1.00000
  5.000E+08 5.000E+08 3.635E+00 8.266E+02 1.138E+03 3.485E+02 2.313E+03 2.317E+03 1.545E+06 24.2891 1.00000
  5.500E+08 5.500E+08 3.648E+00 9.094E+02 1.252E+03 3.876E+02 2.549E+03 2.552E+03 1.566E+06 24.4797 1.00000
  6.000E+08 6.000E+08 3.660E+00 9.923E+02 1.366E+03 4.271E+02 2.785E+03 2.789E+03 1.585E+06 24.6538 1.00000
  7.000E+08 7.000E+08 3.682E+00 1.158E+03 1.593E+03 5.072E+02 3.259E+03 3.262E+03 1.618E+06 24.9621 1.00000
  8.000E+08 8.000E+08 3.701E+00 1.324E+03 1.821E+03 5.887E+02 3.733E+03 3.737E+03 1.647E+06 25.2291 1.00000
  9.000E+08 9.000E+08 3.718E+00 1.489E+03 2.049E+03 6.713E+02 4.210E+03 4.213E+03 1.672E+06 25.4647 1.00000
  1.000E+09 1.000E+09 3.733E+00 1.655E+03 2.277E+03 7.551E+02 4.687E+03 4.690E+03 1.694E+06 25.6754 1.00000
