 Incident particle is a Muon with M = 105.65839 MeV
 Index = 0: SilverIodide
      Absorber with <Z/A> = 0.42595
 Sternheimer coef:  a     k=m_s   x_0    x_1    I[eV]   Cbar  delta0
                 0.2506  2.6572  0.0148  3.2908  543.5  5.9342 0.00

 *** Table generated with PUMAS v1.00 ***

      T         p     Ionization  brems     pair     photonuc  Radloss    dE/dx   CSDA Range  delta   beta
    [MeV]    [MeV/c]  -----------------------[MeV cm^2/g]------------------------  [g/cm^2]
  1.000E+00 1.457E+01 2.490E+01 3.824E-06 0.000E+00 0.000E+00 3.824E-06 2.490E+01 2.008E-02  0.0000 0.13661
  1.200E+00 1.597E+01 2.186E+01 4.394E-06 0.000E+00 0.000E+00 4.394E-06 2.186E+01 2.867E-02  0.0000 0.14944
  1.400E+00 1.726E+01 1.955E+01 4.935E-06 0.000E+00 0.000E+00 4.935E-06 1.955E+01 3.836E-02  0.0000 0.16119
  1.700E+00 1.903E+01 1.696E+01 5.701E-06 0.000E+00 0.000E+00 5.701E-06 1.696E+01 5.487E-02  0.0000 0.17725
  2.000E+00 2.066E+01 1.504E+01 6.421E-06 0.000E+00 0.000E+00 6.421E-06 1.504E+01 7.368E-02  0.0000 0.19186
  2.500E+00 2.312E+01 1.274E+01 7.538E-06 0.000E+00 0.000E+00 7.538E-06 1.274E+01 1.099E-01  0.0000 0.21376
  3.000E+00 2.536E+01 1.111E+01 8.573E-06 0.000E+00 0.000E+00 8.573E-06 1.111E+01 1.521E-01  0.0000 0.23336
  3.500E+00 2.742E+01 9.895E+00 9.541E-06 0.000E+00 0.000E+00 9.541E-06 9.895E+00 1.998E-01  0.0000 0.25120
  4.000E+00 2.935E+01 8.949E+00 1.045E-05 0.000E+00 0.000E+00 1.045E-05 8.950E+00 2.530E-01  0.0000 0.26763
  4.500E+00 3.116E+01 8.192E+00 1.132E-05 0.000E+00 0.000E+00 1.132E-05 8.192E+00 3.115E-01  0.0000 0.28290
  5.000E+00 3.289E+01 7.570E+00 1.214E-05 0.000E+00 0.000E+00 1.214E-05 7.570E+00 3.750E-01  0.0000 0.29720
  5.500E+00 3.453E+01 7.049E+00 1.293E-05 0.000E+00 0.000E+00 1.293E-05 7.049E+00 4.435E-01  0.0000 0.31066
  6.000E+00 3.611E+01 6.606E+00 1.368E-05 0.000E+00 0.000E+00 1.368E-05 6.606E+00 5.168E-01  0.0000 0.32339
  7.000E+00 3.909E+01 5.893E+00 1.511E-05 0.000E+00 0.000E+00 1.511E-05 5.893E+00 6.774E-01  0.0000 0.34700
  8.000E+00 4.189E+01 5.343E+00 1.644E-05 0.000E+00 0.000E+00 1.644E-05 5.343E+00 8.558E-01  0.0000 0.36854
  9.000E+00 4.453E+01 4.904E+00 1.769E-05 0.000E+00 0.000E+00 1.769E-05 4.904E+00 1.051E+00  0.0000 0.38836
  1.000E+01 4.704E+01 4.546E+00 1.888E-05 0.000E+00 0.000E+00 1.888E-05 4.546E+00 1.263E+00  0.0000 0.40675
  1.200E+01 5.177E+01 3.996E+00 2.111E-05 0.000E+00 0.000E+00 2.111E-05 3.996E+00 1.734E+00  0.0000 0.43998
  1.400E+01 5.616E+01 3.592E+00 2.316E-05 0.000E+00 0.000E+00 2.316E-05 3.592E+00 2.262E+00  0.0000 0.46937
  1.700E+01 6.230E+01 3.153E+00 2.600E-05 0.000E+00 0.000E+00 2.600E-05 3.153E+00 3.156E+00  0.0000 0.50792
  2.000E+01 6.802E+01 2.839E+00 2.864E-05 0.000E+00 0.000E+00 2.864E-05 2.839E+00 4.160E+00  0.0000 0.54129
  2.500E+01 7.686E+01 2.476E+00 3.272E-05 0.000E+00 0.000E+00 3.272E-05 2.476E+00 6.050E+00  0.0000 0.58827
  3.000E+01 8.509E+01 2.230E+00 3.654E-05 0.000E+00 0.000E+00 3.654E-05 2.230E+00 8.181E+00  0.0000 0.62720
  3.500E+01 9.285E+01 2.053E+00 4.020E-05 0.000E+00 0.000E+00 4.020E-05 2.053E+00 1.052E+01  0.0000 0.66011
  4.000E+01 1.003E+02 1.920E+00 4.376E-05 0.000E+00 0.000E+00 4.376E-05 1.920E+00 1.304E+01  0.0000 0.68834
  4.500E+01 1.074E+02 1.816E+00 4.725E-05 0.000E+00 0.000E+00 4.725E-05 1.817E+00 1.572E+01  0.0000 0.71286
  5.000E+01 1.143E+02 1.735E+00 5.071E-05 0.000E+00 0.000E+00 5.071E-05 1.735E+00 1.854E+01 -0.0024 0.73434
  5.500E+01 1.210E+02 1.668E+00 5.415E-05 0.000E+00 0.000E+00 5.415E-05 1.668E+00 2.148E+01 -0.0043 0.75332
  6.000E+01 1.276E+02 1.614E+00 5.758E-05 0.000E+00 0.000E+00 5.758E-05 1.614E+00 2.452E+01 -0.0048 0.77019
  7.000E+01 1.403E+02 1.529E+00 6.449E-05 0.000E+00 0.000E+00 6.449E-05 1.530E+00 3.089E+01 -0.0024 0.79887
  8.000E+01 1.527E+02 1.468E+00 7.147E-05 0.000E+00 0.000E+00 7.147E-05 1.468E+00 3.756E+01  0.0030 0.82227
  9.000E+01 1.647E+02 1.423E+00 7.857E-05 0.000E+00 0.000E+00 7.857E-05 1.423E+00 4.448E+01  0.0105 0.84166
  1.000E+02 1.764E+02 1.388E+00 8.580E-05 0.000E+00 0.000E+00 8.580E-05 1.388E+00 5.160E+01  0.0196 0.85794
  1.200E+02 1.994E+02 1.340E+00 1.007E-04 0.000E+00 0.000E+00 1.007E-04 1.340E+00 6.626E+01  0.0407 0.88361
  1.400E+02 2.218E+02 1.311E+00 1.162E-04 0.000E+00 0.000E+00 1.162E-04 1.311E+00 8.136E+01  0.0643 0.90278
  1.700E+02 2.546E+02 1.286E+00 1.406E-04 0.000E+00 0.000E+00 1.406E-04 1.286E+00 1.045E+02  0.1022 0.92363
  2.000E+02 2.868E+02 1.274E+00 1.663E-04 0.000E+00 0.000E+00 1.663E-04 1.274E+00 1.279E+02  0.1412 0.93835
  2.500E+02 3.396E+02 1.269E+00 2.119E-04 0.000E+00 0.000E+00 2.119E-04 1.270E+00 1.672E+02  0.2067 0.95485
  3.000E+02 3.917E+02 1.274E+00 2.606E-04 0.000E+00 0.000E+00 2.606E-04 1.274E+00 2.065E+02  0.2711 0.96548
  3.500E+02 4.432E+02 1.283E+00 3.123E-04 0.000E+00 0.000E+00 3.123E-04 1.283E+00 2.456E+02  0.3335 0.97274
  4.000E+02 4.945E+02 1.294E+00 3.667E-04 1.637E-05 0.000E+00 3.831E-04 1.294E+00 2.844E+02  0.3938 0.97793
  4.500E+02 5.455E+02 1.305E+00 4.235E-04 3.537E-05 0.000E+00 4.589E-04 1.306E+00 3.229E+02  0.4519 0.98176
  5.000E+02 5.964E+02 1.317E+00 4.827E-04 5.345E-05 0.000E+00 5.361E-04 1.317E+00 3.610E+02  0.5079 0.98467
  5.500E+02 6.471E+02 1.328E+00 5.440E-04 7.450E-05 0.000E+00 6.185E-04 1.329E+00 3.988E+02  0.5619 0.98693
  6.000E+02 6.977E+02 1.340E+00 6.073E-04 9.866E-05 0.000E+00 7.059E-04 1.340E+00 4.363E+02  0.6139 0.98873
  7.000E+02 7.987E+02 1.361E+00 7.395E-04 1.560E-04 0.000E+00 8.955E-04 1.362E+00 5.103E+02  0.7126 0.99136
  8.000E+02 8.995E+02 1.381E+00 8.785E-04 2.247E-04 0.000E+00 1.103E-03 1.382E+00 5.832E+02  0.8050 0.99317
  9.000E+02 1.000E+03 1.399E+00 1.024E-03 3.041E-04 0.000E+00 1.328E-03 1.400E+00 6.551E+02  0.8918 0.99447
  1.000E+03 1.101E+03 1.415E+00 1.174E-03 3.935E-04 0.000E+00 1.568E-03 1.417E+00 7.261E+02  0.9737 0.99542
  1.200E+03 1.301E+03 1.445E+00 1.491E-03 6.000E-04 2.247E-05 2.114E-03 1.447E+00 8.658E+02  1.1249 0.99672
  1.400E+03 1.502E+03 1.471E+00 1.826E-03 8.402E-04 6.101E-05 2.727E-03 1.473E+00 1.003E+03  1.2620 0.99753
  1.700E+03 1.803E+03 1.503E+00 2.357E-03 1.257E-03 1.295E-04 3.743E-03 1.507E+00 1.204E+03  1.4467 0.99829
  2.000E+03 2.103E+03 1.530E+00 2.919E-03 1.733E-03 2.091E-04 4.861E-03 1.535E+00 1.401E+03  1.6114 0.99874
  2.500E+03 2.604E+03 1.568E+00 3.912E-03 2.641E-03 3.615E-04 6.914E-03 1.575E+00 1.723E+03  1.8523 0.99918
  3.000E+03 3.104E+03 1.598E+00 4.964E-03 3.671E-03 5.196E-04 9.155E-03 1.607E+00 2.037E+03  2.0616 0.99942
  3.500E+03 3.604E+03 1.623E+00 6.068E-03 4.808E-03 6.855E-04 1.156E-02 1.635E+00 2.346E+03  2.2470 0.99957
  4.000E+03 4.104E+03 1.645E+00 7.215E-03 6.046E-03 8.617E-04 1.412E-02 1.659E+00 2.649E+03  2.4137 0.99967
  4.500E+03 4.604E+03 1.663E+00 8.401E-03 7.373E-03 1.044E-03 1.682E-02 1.680E+00 2.949E+03  2.5654 0.99974
  5.000E+03 5.105E+03 1.680E+00 9.622E-03 8.773E-03 1.218E-03 1.961E-02 1.699E+00 3.245E+03  2.7047 0.99979
  5.500E+03 5.605E+03 1.694E+00 1.087E-02 1.024E-02 1.406E-03 2.252E-02 1.717E+00 3.538E+03  2.8335 0.99982
  6.000E+03 6.105E+03 1.708E+00 1.215E-02 1.177E-02 1.579E-03 2.551E-02 1.733E+00 3.827E+03  2.9535 0.99985
  7.000E+03 7.105E+03 1.731E+00 1.479E-02 1.500E-02 1.947E-03 3.174E-02 1.763E+00 4.400E+03  3.1714 0.99989
  8.000E+03 8.105E+03 1.750E+00 1.752E-02 1.842E-02 2.310E-03 3.825E-02 1.789E+00 4.963E+03  3.3655 0.99992
  9.000E+03 9.105E+03 1.767E+00 2.033E-02 2.201E-02 2.650E-03 4.499E-02 1.812E+00 5.518E+03  3.5408 0.99993
  1.000E+04 1.011E+04 1.782E+00 2.321E-02 2.576E-02 3.001E-03 5.197E-02 1.834E+00 6.067E+03  3.7007 0.99995
  1.200E+04 1.211E+04 1.807E+00 2.915E-02 3.364E-02 3.708E-03 6.650E-02 1.873E+00 7.146E+03  3.9842 0.99996
  1.400E+04 1.411E+04 1.827E+00 3.530E-02 4.197E-02 4.414E-03 8.168E-02 1.909E+00 8.203E+03  4.2303 0.99997
  1.700E+04 1.711E+04 1.852E+00 4.485E-02 5.516E-02 5.456E-03 1.055E-01 1.958E+00 9.755E+03  4.5483 0.99998
  2.000E+04 2.011E+04 1.872E+00 5.473E-02 6.904E-02 6.475E-03 1.302E-01 2.003E+00 1.127E+04  4.8211 0.99999
  2.500E+04 2.511E+04 1.899E+00 7.180E-02 9.338E-02 8.141E-03 1.733E-01 2.072E+00 1.373E+04  5.2049 0.99999
  3.000E+04 3.011E+04 1.920E+00 8.947E-02 1.189E-01 9.770E-03 2.182E-01 2.138E+00 1.610E+04  5.5260 0.99999
  3.500E+04 3.511E+04 1.937E+00 1.076E-01 1.455E-01 1.141E-02 2.645E-01 2.201E+00 1.841E+04  5.8024 1.00000
  4.000E+04 4.011E+04 1.951E+00 1.262E-01 1.728E-01 1.303E-02 3.120E-01 2.263E+00 2.065E+04  6.0453 1.00000
  4.500E+04 4.511E+04 1.964E+00 1.452E-01 2.008E-01 1.463E-02 3.606E-01 2.324E+00 2.283E+04  6.2621 1.00000
  5.000E+04 5.011E+04 1.975E+00 1.644E-01 2.293E-01 1.622E-02 4.100E-01 2.385E+00 2.495E+04  6.4580 1.00000
  5.500E+04 5.511E+04 1.984E+00 1.840E-01 2.584E-01 1.782E-02 4.602E-01 2.444E+00 2.702E+04  6.6366 1.00000
  6.000E+04 6.011E+04 1.993E+00 2.038E-01 2.879E-01 1.941E-02 5.110E-01 2.504E+00 2.904E+04  6.8008 1.00000
  7.000E+04 7.011E+04 2.008E+00 2.440E-01 3.480E-01 2.255E-02 6.145E-01 2.622E+00 3.295E+04  7.0944 1.00000
  8.000E+04 8.011E+04 2.021E+00 2.850E-01 4.094E-01 2.569E-02 7.200E-01 2.741E+00 3.668E+04  7.3512 1.00000
  9.000E+04 9.011E+04 2.032E+00 3.266E-01 4.718E-01 2.883E-02 8.273E-01 2.859E+00 4.025E+04  7.5794 1.00000
  1.000E+05 1.001E+05 2.042E+00 3.688E-01 5.351E-01 3.190E-02 9.358E-01 2.977E+00 4.368E+04  7.7849 1.00000
  1.200E+05 1.201E+05 2.058E+00 4.546E-01 6.639E-01 3.816E-02 1.157E+00 3.215E+00 5.015E+04  8.1430 1.00000
  1.400E+05 1.401E+05 2.072E+00 5.420E-01 7.951E-01 4.441E-02 1.381E+00 3.453E+00 5.615E+04  8.4479 1.00000
  1.700E+05 1.701E+05 2.089E+00 6.754E-01 9.951E-01 5.378E-02 1.724E+00 3.813E+00 6.443E+04  8.8341 1.00000
  2.000E+05 2.001E+05 2.103E+00 8.112E-01 1.198E+00 6.319E-02 2.073E+00 4.176E+00 7.196E+04  9.1586 1.00000
  2.500E+05 2.501E+05 2.123E+00 1.041E+00 1.542E+00 7.891E-02 2.662E+00 4.785E+00 8.317E+04  9.6047 1.00000
  3.000E+05 3.001E+05 2.139E+00 1.276E+00 1.890E+00 9.472E-02 3.260E+00 5.399E+00 9.302E+04  9.9692 1.00000
  3.500E+05 3.501E+05 2.152E+00 1.513E+00 2.242E+00 1.107E-01 3.865E+00 6.017E+00 1.018E+05 10.2774 1.00000
  4.000E+05 4.001E+05 2.164E+00 1.752E+00 2.596E+00 1.268E-01 4.475E+00 6.639E+00 1.097E+05 10.5443 1.00000
  4.500E+05 4.501E+05 2.174E+00 1.994E+00 2.953E+00 1.429E-01 5.090E+00 7.264E+00 1.169E+05 10.7799 1.00000
  5.000E+05 5.001E+05 2.183E+00 2.237E+00 3.311E+00 1.592E-01 5.708E+00 7.891E+00 1.235E+05 10.9905 1.00000
  5.500E+05 5.501E+05 2.192E+00 2.482E+00 3.671E+00 1.753E-01 6.329E+00 8.520E+00 1.296E+05 11.1811 1.00000
  6.000E+05 6.001E+05 2.199E+00 2.728E+00 4.032E+00 1.916E-01 6.952E+00 9.152E+00 1.353E+05 11.3551 1.00000
  7.000E+05 7.001E+05 2.213E+00 3.224E+00 4.758E+00 2.243E-01 8.206E+00 1.042E+01 1.456E+05 11.6634 1.00000
  8.000E+05 8.001E+05 2.225E+00 3.723E+00 5.487E+00 2.573E-01 9.468E+00 1.169E+01 1.547E+05 11.9304 1.00000
  9.000E+05 9.001E+05 2.235E+00 4.226E+00 6.219E+00 2.907E-01 1.073E+01 1.297E+01 1.628E+05 12.1659 1.00000
  1.000E+06 1.000E+06 2.245E+00 4.731E+00 6.952E+00 3.244E-01 1.201E+01 1.425E+01 1.701E+05 12.3766 1.00000
  1.200E+06 1.200E+06 2.261E+00 5.746E+00 8.425E+00 3.925E-01 1.456E+01 1.683E+01 1.831E+05 12.7412 1.00000
  1.400E+06 1.400E+06 2.275E+00 6.769E+00 9.904E+00 4.616E-01 1.713E+01 1.941E+01 1.942E+05 13.0495 1.00000
  1.700E+06 1.700E+06 2.292E+00 8.312E+00 1.213E+01 5.669E-01 2.101E+01 2.330E+01 2.084E+05 13.4378 1.00000
  2.000E+06 2.000E+06 2.307E+00 9.864E+00 1.436E+01 6.738E-01 2.490E+01 2.721E+01 2.203E+05 13.7628 1.00000
  2.500E+06 2.500E+06 2.328E+00 1.246E+01 1.809E+01 8.552E-01 3.141E+01 3.374E+01 2.369E+05 14.2091 1.00000
  3.000E+06 3.000E+06 2.344E+00 1.508E+01 2.183E+01 1.040E+00 3.795E+01 4.029E+01 2.505E+05 14.5737 1.00000
  3.500E+06 3.500E+06 2.359E+00 1.770E+01 2.557E+01 1.228E+00 4.450E+01 4.686E+01 2.621E+05 14.8820 1.00000
  4.000E+06 4.000E+06 2.371E+00 2.033E+01 2.933E+01 1.418E+00 5.107E+01 5.345E+01 2.721E+05 15.1490 1.00000
  4.500E+06 4.500E+06 2.382E+00 2.297E+01 3.308E+01 1.611E+00 5.766E+01 6.004E+01 2.809E+05 15.3846 1.00000
  5.000E+06 5.000E+06 2.392E+00 2.561E+01 3.684E+01 1.806E+00 6.425E+01 6.664E+01 2.888E+05 15.5953 1.00000
  5.500E+06 5.500E+06 2.401E+00 2.825E+01 4.060E+01 2.003E+00 7.085E+01 7.326E+01 2.960E+05 15.7859 1.00000
  6.000E+06 6.000E+06 2.410E+00 3.090E+01 4.436E+01 2.202E+00 7.746E+01 7.987E+01 3.025E+05 15.9600 1.00000
  7.000E+06 7.000E+06 2.425E+00 3.621E+01 5.189E+01 2.605E+00 9.070E+01 9.313E+01 3.142E+05 16.2682 1.00000
  8.000E+06 8.000E+06 2.437E+00 4.152E+01 5.943E+01 3.014E+00 1.040E+02 1.064E+02 3.242E+05 16.5353 1.00000
  9.000E+06 9.000E+06 2.449E+00 4.684E+01 6.697E+01 3.427E+00 1.172E+02 1.197E+02 3.331E+05 16.7709 1.00000
  1.000E+07 1.000E+07 2.459E+00 5.217E+01 7.451E+01 3.846E+00 1.305E+02 1.330E+02 3.411E+05 16.9816 1.00000
  1.200E+07 1.200E+07 2.477E+00 6.284E+01 8.961E+01 4.697E+00 1.571E+02 1.596E+02 3.548E+05 17.3462 1.00000
  1.400E+07 1.400E+07 2.492E+00 7.352E+01 1.047E+02 5.562E+00 1.838E+02 1.863E+02 3.665E+05 17.6545 1.00000
  1.700E+07 1.700E+07 2.512E+00 8.956E+01 1.274E+02 6.885E+00 2.238E+02 2.263E+02 3.812E+05 18.0428 1.00000
  2.000E+07 2.000E+07 2.528E+00 1.056E+02 1.501E+02 8.234E+00 2.639E+02 2.664E+02 3.934E+05 18.3679 1.00000
  2.500E+07 2.500E+07 2.551E+00 1.324E+02 1.879E+02 1.053E+01 3.308E+02 3.333E+02 4.103E+05 18.8142 1.00000
  3.000E+07 3.000E+07 2.569E+00 1.592E+02 2.257E+02 1.288E+01 3.978E+02 4.003E+02 4.240E+05 19.1788 1.00000
  3.500E+07 3.500E+07 2.585E+00 1.860E+02 2.635E+02 1.526E+01 4.648E+02 4.674E+02 4.356E+05 19.4871 1.00000
  4.000E+07 4.000E+07 2.599E+00 2.129E+02 3.013E+02 1.769E+01 5.319E+02 5.345E+02 4.457E+05 19.7542 1.00000
  4.500E+07 4.500E+07 2.611E+00 2.397E+02 3.392E+02 2.015E+01 5.990E+02 6.017E+02 4.545E+05 19.9897 1.00000
  5.000E+07 5.000E+07 2.622E+00 2.666E+02 3.770E+02 2.264E+01 6.662E+02 6.689E+02 4.624E+05 20.2004 1.00000
  5.500E+07 5.500E+07 2.632E+00 2.934E+02 4.149E+02 2.516E+01 7.335E+02 7.361E+02 4.695E+05 20.3911 1.00000
  6.000E+07 6.000E+07 2.642E+00 3.203E+02 4.527E+02 2.771E+01 8.007E+02 8.034E+02 4.760E+05 20.5651 1.00000
  7.000E+07 7.000E+07 2.658E+00 3.740E+02 5.284E+02 3.287E+01 9.353E+02 9.380E+02 4.876E+05 20.8734 1.00000
  8.000E+07 8.000E+07 2.672E+00 4.278E+02 6.041E+02 3.811E+01 1.070E+03 1.073E+03 4.976E+05 21.1405 1.00000
  9.000E+07 9.000E+07 2.685E+00 4.815E+02 6.798E+02 4.343E+01 1.205E+03 1.207E+03 5.064E+05 21.3760 1.00000
  1.000E+08 1.000E+08 2.697E+00 5.353E+02 7.556E+02 4.882E+01 1.340E+03 1.342E+03 5.142E+05 21.5867 1.00000
  1.200E+08 1.200E+08 2.717E+00 6.428E+02 9.070E+02 5.976E+01 1.610E+03 1.612E+03 5.279E+05 21.9514 1.00000
  1.400E+08 1.400E+08 2.734E+00 7.504E+02 1.058E+03 7.092E+01 1.880E+03 1.883E+03 5.394E+05 22.2597 1.00000
  1.700E+08 1.700E+08 2.755E+00 9.118E+02 1.286E+03 8.800E+01 2.285E+03 2.288E+03 5.539E+05 22.6480 1.00000
  2.000E+08 2.000E+08 2.773E+00 1.073E+03 1.513E+03 1.054E+02 2.691E+03 2.694E+03 5.661E+05 22.9730 1.00000
  2.500E+08 2.500E+08 2.799E+00 1.342E+03 1.891E+03 1.351E+02 3.369E+03 3.372E+03 5.828E+05 23.4193 1.00000
  3.000E+08 3.000E+08 2.819E+00 1.611E+03 2.270E+03 1.655E+02 4.047E+03 4.050E+03 5.963E+05 23.7840 1.00000
  3.500E+08 3.500E+08 2.837E+00 1.880E+03 2.649E+03 1.965E+02 4.725E+03 4.728E+03 6.078E+05 24.0923 1.00000
  4.000E+08 4.000E+08 2.853E+00 2.149E+03 3.027E+03 2.280E+02 5.405E+03 5.408E+03 6.177E+05 24.3593 1.00000
  4.500E+08 4.500E+08 2.866E+00 2.418E+03 3.406E+03 2.600E+02 6.084E+03 6.087E+03 6.264E+05 24.5949 1.00000
  5.000E+08 5.000E+08 2.879E+00 2.687E+03 3.785E+03 2.924E+02 6.764E+03 6.767E+03 6.342E+05 24.8056 1.00000
  5.500E+08 5.500E+08 2.890E+00 2.956E+03 4.163E+03 3.252E+02 7.445E+03 7.448E+03 6.413E+05 24.9962 1.00000
  6.000E+08 6.000E+08 2.900E+00 3.226E+03 4.542E+03 3.583E+02 8.126E+03 8.129E+03 6.477E+05 25.1703 1.00000
  7.000E+08 7.000E+08 2.919E+00 3.764E+03 5.299E+03 4.255E+02 9.488E+03 9.491E+03 6.591E+05 25.4786 1.00000
  8.000E+08 8.000E+08 2.935E+00 4.302E+03 6.056E+03 4.939E+02 1.085E+04 1.086E+04 6.690E+05 25.7456 1.00000
  9.000E+08 9.000E+08 2.949E+00 4.840E+03 6.814E+03 5.633E+02 1.222E+04 1.222E+04 6.777E+05 25.9812 1.00000
  1.000E+09 1.000E+09 2.962E+00 5.378E+03 7.571E+03 6.336E+02 1.358E+04 1.359E+04 6.855E+05 26.1919 1.00000
