 Incident particle is a Muon with M = 105.65839 MeV
 Index = 0: SkeletalMuscle
      Absorber with <Z/A> = 0.54930
 Sternheimer coef:  a     k=m_s   x_0    x_1    I[eV]   Cbar  delta0
                 0.0864  3.5330  0.2282  2.7999   75.3  3.4809 0.00

 *** Table generated with PUMAS v1.00 ***

      T         p     Ionization  brems     pair     photonuc  Radloss    dE/dx   CSDA Range  delta   beta
    [MeV]    [MeV/c]  -----------------------[MeV cm^2/g]------------------------  [g/cm^2]
  1.000E+00 1.457E+01 4.998E+01 7.789E-07 0.000E+00 0.000E+00 7.789E-07 4.998E+01 1.000E-02  0.0000 0.13661
  1.200E+00 1.597E+01 4.312E+01 8.926E-07 0.000E+00 0.000E+00 8.926E-07 4.312E+01 1.432E-02  0.0000 0.14944
  1.400E+00 1.726E+01 3.805E+01 1.001E-06 0.000E+00 0.000E+00 1.001E-06 3.805E+01 1.927E-02  0.0000 0.16119
  1.700E+00 1.903E+01 3.249E+01 1.156E-06 0.000E+00 0.000E+00 1.156E-06 3.249E+01 2.783E-02  0.0000 0.17725
  2.000E+00 2.066E+01 2.846E+01 1.303E-06 0.000E+00 0.000E+00 1.303E-06 2.846E+01 3.772E-02  0.0000 0.19186
  2.500E+00 2.312E+01 2.372E+01 1.533E-06 0.000E+00 0.000E+00 1.533E-06 2.372E+01 5.704E-02  0.0000 0.21376
  3.000E+00 2.536E+01 2.045E+01 1.748E-06 0.000E+00 0.000E+00 1.748E-06 2.045E+01 7.981E-02  0.0000 0.23336
  3.500E+00 2.742E+01 1.804E+01 1.951E-06 0.000E+00 0.000E+00 1.951E-06 1.804E+01 1.059E-01  0.0000 0.25120
  4.000E+00 2.935E+01 1.620E+01 2.144E-06 0.000E+00 0.000E+00 2.144E-06 1.620E+01 1.352E-01  0.0000 0.26763
  4.500E+00 3.116E+01 1.473E+01 2.328E-06 0.000E+00 0.000E+00 2.328E-06 1.473E+01 1.676E-01  0.0000 0.28290
  5.000E+00 3.289E+01 1.354E+01 2.505E-06 0.000E+00 0.000E+00 2.505E-06 1.354E+01 2.030E-01  0.0000 0.29720
  5.500E+00 3.453E+01 1.254E+01 2.675E-06 0.000E+00 0.000E+00 2.675E-06 1.254E+01 2.414E-01  0.0000 0.31066
  6.000E+00 3.611E+01 1.171E+01 2.839E-06 0.000E+00 0.000E+00 2.839E-06 1.171E+01 2.827E-01  0.0000 0.32339
  7.000E+00 3.909E+01 1.037E+01 3.151E-06 0.000E+00 0.000E+00 3.151E-06 1.037E+01 3.736E-01  0.0000 0.34700
  8.000E+00 4.189E+01 9.345E+00 3.445E-06 0.000E+00 0.000E+00 3.445E-06 9.345E+00 4.754E-01  0.0000 0.36854
  9.000E+00 4.453E+01 8.535E+00 3.724E-06 0.000E+00 0.000E+00 3.724E-06 8.535E+00 5.875E-01  0.0000 0.38836
  1.000E+01 4.704E+01 7.878E+00 3.991E-06 0.000E+00 0.000E+00 3.991E-06 7.878E+00 7.095E-01  0.0000 0.40675
  1.200E+01 5.177E+01 6.875E+00 4.492E-06 0.000E+00 0.000E+00 4.492E-06 6.875E+00 9.819E-01  0.0000 0.43998
  1.400E+01 5.616E+01 6.145E+00 4.958E-06 0.000E+00 0.000E+00 4.958E-06 6.145E+00 1.290E+00  0.0000 0.46937
  1.700E+01 6.230E+01 5.359E+00 5.610E-06 0.000E+00 0.000E+00 5.610E-06 5.359E+00 1.814E+00  0.0000 0.50792
  2.000E+01 6.802E+01 4.799E+00 6.217E-06 0.000E+00 0.000E+00 6.217E-06 4.799E+00 2.407E+00  0.0000 0.54129
  2.500E+01 7.686E+01 4.156E+00 7.160E-06 0.000E+00 0.000E+00 7.160E-06 4.156E+00 3.529E+00  0.0000 0.58827
  3.000E+01 8.509E+01 3.723E+00 8.044E-06 0.000E+00 0.000E+00 8.044E-06 3.723E+00 4.802E+00  0.0000 0.62720
  3.500E+01 9.285E+01 3.412E+00 8.888E-06 0.000E+00 0.000E+00 8.888E-06 3.412E+00 6.206E+00  0.0000 0.66011
  4.000E+01 1.003E+02 3.179E+00 9.707E-06 0.000E+00 0.000E+00 9.707E-06 3.179E+00 7.725E+00  0.0000 0.68834
  4.500E+01 1.074E+02 2.999E+00 1.051E-05 0.000E+00 0.000E+00 1.051E-05 2.999E+00 9.345E+00  0.0000 0.71286
  5.000E+01 1.143E+02 2.855E+00 1.130E-05 0.000E+00 0.000E+00 1.130E-05 2.855E+00 1.105E+01  0.0000 0.73434
  5.500E+01 1.210E+02 2.738E+00 1.209E-05 0.000E+00 0.000E+00 1.209E-05 2.738E+00 1.284E+01  0.0000 0.75332
  6.000E+01 1.276E+02 2.642E+00 1.287E-05 0.000E+00 0.000E+00 1.287E-05 2.642E+00 1.470E+01  0.0000 0.77019
  7.000E+01 1.403E+02 2.494E+00 1.443E-05 0.000E+00 0.000E+00 1.443E-05 2.494E+00 1.860E+01  0.0000 0.79887
  8.000E+01 1.527E+02 2.387E+00 1.601E-05 0.000E+00 0.000E+00 1.601E-05 2.387E+00 2.270E+01  0.0000 0.82227
  9.000E+01 1.647E+02 2.307E+00 1.760E-05 0.000E+00 0.000E+00 1.760E-05 2.307E+00 2.696E+01  0.0000 0.84166
  1.000E+02 1.764E+02 2.245E+00 1.922E-05 0.000E+00 0.000E+00 1.922E-05 2.245E+00 3.135E+01  0.0000 0.85794
  1.200E+02 1.994E+02 2.153E+00 2.254E-05 0.000E+00 0.000E+00 2.254E-05 2.153E+00 4.045E+01  0.0651 0.88361
  1.400E+02 2.218E+02 2.092E+00 2.597E-05 0.000E+00 0.000E+00 2.597E-05 2.092E+00 4.988E+01  0.1341 0.90278
  1.700E+02 2.546E+02 2.036E+00 3.134E-05 4.515E-14 0.000E+00 3.134E-05 2.036E+00 6.442E+01  0.2335 0.92363
  2.000E+02 2.868E+02 2.004E+00 3.697E-05 1.011E-11 0.000E+00 3.697E-05 2.004E+00 7.927E+01  0.3279 0.93835
  2.500E+02 3.396E+02 1.978E+00 4.691E-05 8.371E-08 0.000E+00 4.700E-05 1.978E+00 1.044E+02  0.4750 0.95485
  3.000E+02 3.917E+02 1.970E+00 5.749E-05 7.518E-07 0.000E+00 5.824E-05 1.970E+00 1.297E+02  0.6107 0.96548
  3.500E+02 4.432E+02 1.971E+00 6.865E-05 2.071E-06 0.000E+00 7.072E-05 1.971E+00 1.551E+02  0.7367 0.97274
  4.000E+02 4.945E+02 1.976E+00 8.034E-05 4.012E-06 0.000E+00 8.435E-05 1.976E+00 1.804E+02  0.8543 0.97793
  4.500E+02 5.455E+02 1.984E+00 9.252E-05 6.553E-06 0.000E+00 9.908E-05 1.984E+00 2.057E+02  0.9646 0.98176
  5.000E+02 5.964E+02 1.993E+00 1.052E-04 9.671E-06 0.000E+00 1.148E-04 1.993E+00 2.308E+02  1.0685 0.98467
  5.500E+02 6.471E+02 2.003E+00 1.182E-04 1.335E-05 0.000E+00 1.316E-04 2.003E+00 2.558E+02  1.1666 0.98693
  6.000E+02 6.977E+02 2.013E+00 1.317E-04 1.756E-05 0.000E+00 1.492E-04 2.013E+00 2.807E+02  1.2597 0.98873
  7.000E+02 7.987E+02 2.033E+00 1.597E-04 2.754E-05 0.000E+00 1.872E-04 2.033E+00 3.302E+02  1.4327 0.99136
  8.000E+02 8.995E+02 2.051E+00 1.891E-04 3.946E-05 0.000E+00 2.285E-04 2.052E+00 3.791E+02  1.5908 0.99317
  9.000E+02 1.000E+03 2.069E+00 2.196E-04 5.320E-05 0.000E+00 2.728E-04 2.069E+00 4.277E+02  1.7363 0.99447
  1.000E+03 1.101E+03 2.085E+00 2.513E-04 6.866E-05 0.000E+00 3.200E-04 2.086E+00 4.758E+02  1.8714 0.99542
  1.200E+03 1.301E+03 2.115E+00 3.177E-04 1.043E-04 2.256E-05 4.446E-04 2.115E+00 5.710E+02  2.1153 0.99672
  1.400E+03 1.502E+03 2.141E+00 3.875E-04 1.458E-04 6.181E-05 5.951E-04 2.141E+00 6.650E+02  2.3315 0.99753
  1.700E+03 1.803E+03 2.174E+00 4.981E-04 2.176E-04 1.327E-04 8.483E-04 2.175E+00 8.040E+02  2.6158 0.99829
  2.000E+03 2.103E+03 2.202E+00 6.146E-04 2.996E-04 2.164E-04 1.131E-03 2.203E+00 9.411E+02  2.8637 0.99874
  2.500E+03 2.604E+03 2.240E+00 8.200E-04 4.561E-04 3.788E-04 1.655E-03 2.242E+00 1.166E+03  3.2175 0.99918
  3.000E+03 3.104E+03 2.272E+00 1.037E-03 6.338E-04 5.499E-04 2.221E-03 2.274E+00 1.387E+03  3.5173 0.99942
  3.500E+03 3.604E+03 2.298E+00 1.265E-03 8.298E-04 7.318E-04 2.827E-03 2.301E+00 1.606E+03  3.7777 0.99957
  4.000E+03 4.104E+03 2.320E+00 1.501E-03 1.057E-03 9.265E-04 3.485E-03 2.323E+00 1.822E+03  4.0080 0.99967
  4.500E+03 4.604E+03 2.339E+00 1.746E-03 1.306E-03 1.129E-03 4.181E-03 2.344E+00 2.037E+03  4.2145 0.99974
  5.000E+03 5.105E+03 2.357E+00 1.997E-03 1.569E-03 1.325E-03 4.891E-03 2.361E+00 2.249E+03  4.4017 0.99979
  5.500E+03 5.605E+03 2.372E+00 2.255E-03 1.846E-03 1.536E-03 5.636E-03 2.378E+00 2.460E+03  4.5730 0.99982
  6.000E+03 6.105E+03 2.386E+00 2.518E-03 2.135E-03 1.732E-03 6.386E-03 2.392E+00 2.670E+03  4.7309 0.99985
  7.000E+03 7.105E+03 2.410E+00 3.062E-03 2.747E-03 2.150E-03 7.958E-03 2.418E+00 3.086E+03  5.0140 0.99989
  8.000E+03 8.105E+03 2.431E+00 3.624E-03 3.399E-03 2.565E-03 9.588E-03 2.440E+00 3.497E+03  5.2623 0.99992
  9.000E+03 9.105E+03 2.449E+00 4.202E-03 4.086E-03 2.957E-03 1.125E-02 2.460E+00 3.905E+03  5.4835 0.99993
  1.000E+04 1.011E+04 2.464E+00 4.796E-03 4.805E-03 3.361E-03 1.296E-02 2.477E+00 4.311E+03  5.6830 0.99995
  1.200E+04 1.211E+04 2.491E+00 6.022E-03 6.324E-03 4.183E-03 1.653E-02 2.508E+00 5.113E+03  6.0314 0.99996
  1.400E+04 1.411E+04 2.513E+00 7.293E-03 7.938E-03 5.009E-03 2.024E-02 2.533E+00 5.907E+03  6.3288 0.99997
  1.700E+04 1.711E+04 2.540E+00 9.271E-03 1.051E-02 6.234E-03 2.601E-02 2.566E+00 7.083E+03  6.7064 0.99998
  2.000E+04 2.011E+04 2.562E+00 1.132E-02 1.322E-02 7.440E-03 3.198E-02 2.594E+00 8.246E+03  7.0248 0.99999
  2.500E+04 2.511E+04 2.592E+00 1.487E-02 1.802E-02 9.424E-03 4.231E-02 2.634E+00 1.016E+04  7.4645 0.99999
  3.000E+04 3.011E+04 2.615E+00 1.855E-02 2.308E-02 1.138E-02 5.301E-02 2.668E+00 1.204E+04  7.8256 0.99999
  3.500E+04 3.511E+04 2.635E+00 2.235E-02 2.837E-02 1.335E-02 6.407E-02 2.699E+00 1.391E+04  8.1318 1.00000
  4.000E+04 4.011E+04 2.651E+00 2.624E-02 3.384E-02 1.531E-02 7.539E-02 2.727E+00 1.575E+04  8.3976 1.00000
  4.500E+04 4.511E+04 2.666E+00 3.021E-02 3.947E-02 1.725E-02 8.693E-02 2.753E+00 1.758E+04  8.6324 1.00000
  5.000E+04 5.011E+04 2.679E+00 3.425E-02 4.524E-02 1.918E-02 9.868E-02 2.777E+00 1.938E+04  8.8425 1.00000
  5.500E+04 5.511E+04 2.690E+00 3.836E-02 5.112E-02 2.114E-02 1.106E-01 2.801E+00 2.118E+04  9.0327 1.00000
  6.000E+04 6.011E+04 2.701E+00 4.253E-02 5.712E-02 2.307E-02 1.227E-01 2.823E+00 2.296E+04  9.2064 1.00000
  7.000E+04 7.011E+04 2.719E+00 5.102E-02 6.938E-02 2.692E-02 1.473E-01 2.866E+00 2.647E+04  9.5142 1.00000
  8.000E+04 8.011E+04 2.734E+00 5.969E-02 8.197E-02 3.077E-02 1.724E-01 2.907E+00 2.994E+04  9.7809 1.00000
  9.000E+04 9.011E+04 2.748E+00 6.851E-02 9.482E-02 3.464E-02 1.980E-01 2.946E+00 3.335E+04 10.0162 1.00000
  1.000E+05 1.001E+05 2.760E+00 7.747E-02 1.079E-01 3.843E-02 2.238E-01 2.984E+00 3.673E+04 10.2266 1.00000
  1.200E+05 1.201E+05 2.781E+00 9.573E-02 1.346E-01 4.616E-02 2.765E-01 3.058E+00 4.335E+04 10.5909 1.00000
  1.400E+05 1.401E+05 2.799E+00 1.144E-01 1.620E-01 5.390E-02 3.303E-01 3.129E+00 4.981E+04 10.8990 1.00000
  1.700E+05 1.701E+05 2.821E+00 1.429E-01 2.039E-01 6.553E-02 4.124E-01 3.233E+00 5.925E+04 11.2870 1.00000
  2.000E+05 2.001E+05 2.839E+00 1.721E-01 2.467E-01 7.724E-02 4.961E-01 3.335E+00 6.838E+04 11.6119 1.00000
  2.500E+05 2.501E+05 2.864E+00 2.217E-01 3.195E-01 9.683E-02 6.381E-01 3.502E+00 8.302E+04 12.0580 1.00000
  3.000E+05 3.001E+05 2.885E+00 2.723E-01 3.937E-01 1.166E-01 7.826E-01 3.667E+00 9.698E+04 12.4225 1.00000
  3.500E+05 3.501E+05 2.902E+00 3.237E-01 4.689E-01 1.366E-01 9.292E-01 3.831E+00 1.103E+05 12.7307 1.00000
  4.000E+05 4.001E+05 2.917E+00 3.758E-01 5.450E-01 1.567E-01 1.077E+00 3.994E+00 1.231E+05 12.9976 1.00000
  4.500E+05 4.501E+05 2.930E+00 4.284E-01 6.217E-01 1.769E-01 1.227E+00 4.157E+00 1.354E+05 13.2332 1.00000
  5.000E+05 5.001E+05 2.942E+00 4.815E-01 6.990E-01 1.973E-01 1.378E+00 4.320E+00 1.472E+05 13.4438 1.00000
  5.500E+05 5.501E+05 2.953E+00 5.350E-01 7.767E-01 2.176E-01 1.529E+00 4.482E+00 1.585E+05 13.6344 1.00000
  6.000E+05 6.001E+05 2.963E+00 5.889E-01 8.548E-01 2.380E-01 1.682E+00 4.644E+00 1.695E+05 13.8084 1.00000
  7.000E+05 7.001E+05 2.980E+00 6.976E-01 1.012E+00 2.791E-01 1.989E+00 4.969E+00 1.903E+05 14.1167 1.00000
  8.000E+05 8.001E+05 2.995E+00 8.074E-01 1.171E+00 3.207E-01 2.299E+00 5.294E+00 2.098E+05 14.3837 1.00000
  9.000E+05 9.001E+05 3.009E+00 9.181E-01 1.330E+00 3.627E-01 2.611E+00 5.620E+00 2.282E+05 14.6192 1.00000
  1.000E+06 1.000E+06 3.021E+00 1.029E+00 1.490E+00 4.051E-01 2.924E+00 5.945E+00 2.455E+05 14.8299 1.00000
  1.200E+06 1.200E+06 3.042E+00 1.254E+00 1.812E+00 4.909E-01 3.557E+00 6.599E+00 2.775E+05 15.1945 1.00000
  1.400E+06 1.400E+06 3.060E+00 1.481E+00 2.135E+00 5.779E-01 4.194E+00 7.254E+00 3.064E+05 15.5028 1.00000
  1.700E+06 1.700E+06 3.083E+00 1.824E+00 2.623E+00 7.105E-01 5.157E+00 8.240E+00 3.453E+05 15.8911 1.00000
  2.000E+06 2.000E+06 3.102E+00 2.169E+00 3.113E+00 8.453E-01 6.128E+00 9.230E+00 3.797E+05 16.2161 1.00000
  2.500E+06 2.500E+06 3.128E+00 2.750E+00 3.934E+00 1.074E+00 7.758E+00 1.089E+01 4.298E+05 16.6624 1.00000
  3.000E+06 3.000E+06 3.150E+00 3.335E+00 4.758E+00 1.307E+00 9.400E+00 1.255E+01 4.727E+05 17.0270 1.00000
  3.500E+06 3.500E+06 3.168E+00 3.924E+00 5.584E+00 1.544E+00 1.105E+01 1.422E+01 5.102E+05 17.3353 1.00000
  4.000E+06 4.000E+06 3.185E+00 4.515E+00 6.412E+00 1.785E+00 1.271E+01 1.590E+01 5.435E+05 17.6023 1.00000
  4.500E+06 4.500E+06 3.199E+00 5.107E+00 7.241E+00 2.028E+00 1.438E+01 1.758E+01 5.734E+05 17.8379 1.00000
  5.000E+06 5.000E+06 3.212E+00 5.702E+00 8.072E+00 2.274E+00 1.605E+01 1.926E+01 6.006E+05 18.0486 1.00000
  5.500E+06 5.500E+06 3.223E+00 6.298E+00 8.903E+00 2.523E+00 1.772E+01 2.095E+01 6.255E+05 18.2392 1.00000
  6.000E+06 6.000E+06 3.234E+00 6.896E+00 9.735E+00 2.774E+00 1.941E+01 2.264E+01 6.485E+05 18.4133 1.00000
  7.000E+06 7.000E+06 3.253E+00 8.094E+00 1.140E+01 3.283E+00 2.278E+01 2.603E+01 6.898E+05 18.7215 1.00000
  8.000E+06 8.000E+06 3.270E+00 9.295E+00 1.307E+01 3.799E+00 2.616E+01 2.943E+01 7.260E+05 18.9886 1.00000
  9.000E+06 9.000E+06 3.285E+00 1.050E+01 1.474E+01 4.321E+00 2.956E+01 3.284E+01 7.582E+05 19.2242 1.00000
  1.000E+07 1.000E+07 3.298E+00 1.170E+01 1.641E+01 4.850E+00 3.297E+01 3.626E+01 7.872E+05 19.4349 1.00000
  1.200E+07 1.200E+07 3.321E+00 1.412E+01 1.976E+01 5.924E+00 3.980E+01 4.312E+01 8.380E+05 19.7995 1.00000
  1.400E+07 1.400E+07 3.341E+00 1.655E+01 2.310E+01 7.018E+00 4.667E+01 5.001E+01 8.812E+05 20.1078 1.00000
  1.700E+07 1.700E+07 3.365E+00 2.019E+01 2.813E+01 8.689E+00 5.700E+01 6.037E+01 9.360E+05 20.4961 1.00000
  2.000E+07 2.000E+07 3.387E+00 2.384E+01 3.316E+01 1.039E+01 6.739E+01 7.077E+01 9.821E+05 20.8212 1.00000
  2.500E+07 2.500E+07 3.416E+00 2.993E+01 4.154E+01 1.329E+01 8.476E+01 8.818E+01 1.046E+06 21.2675 1.00000
  3.000E+07 3.000E+07 3.440E+00 3.603E+01 4.993E+01 1.626E+01 1.022E+02 1.057E+02 1.098E+06 21.6321 1.00000
  3.500E+07 3.500E+07 3.460E+00 4.214E+01 5.833E+01 1.927E+01 1.197E+02 1.232E+02 1.142E+06 21.9404 1.00000
  4.000E+07 4.000E+07 3.478E+00 4.825E+01 6.673E+01 2.234E+01 1.373E+02 1.408E+02 1.180E+06 22.2075 1.00000
  4.500E+07 4.500E+07 3.494E+00 5.437E+01 7.512E+01 2.545E+01 1.549E+02 1.584E+02 1.213E+06 22.4430 1.00000
  5.000E+07 5.000E+07 3.508E+00 6.049E+01 8.352E+01 2.860E+01 1.726E+02 1.761E+02 1.243E+06 22.6537 1.00000
  5.500E+07 5.500E+07 3.521E+00 6.661E+01 9.192E+01 3.178E+01 1.903E+02 1.938E+02 1.270E+06 22.8444 1.00000
  6.000E+07 6.000E+07 3.533E+00 7.274E+01 1.003E+02 3.500E+01 2.081E+02 2.116E+02 1.295E+06 23.0184 1.00000
  7.000E+07 7.000E+07 3.554E+00 8.500E+01 1.171E+02 4.152E+01 2.436E+02 2.472E+02 1.339E+06 23.3267 1.00000
  8.000E+07 8.000E+07 3.573E+00 9.726E+01 1.339E+02 4.814E+01 2.793E+02 2.829E+02 1.377E+06 23.5938 1.00000
  9.000E+07 9.000E+07 3.589E+00 1.095E+02 1.507E+02 5.486E+01 3.151E+02 3.187E+02 1.410E+06 23.8293 1.00000
  1.000E+08 1.000E+08 3.604E+00 1.218E+02 1.676E+02 6.167E+01 3.510E+02 3.546E+02 1.440E+06 24.0400 1.00000
  1.200E+08 1.200E+08 3.630E+00 1.463E+02 2.012E+02 7.550E+01 4.230E+02 4.267E+02 1.492E+06 24.4047 1.00000
  1.400E+08 1.400E+08 3.652E+00 1.709E+02 2.348E+02 8.960E+01 4.953E+02 4.990E+02 1.535E+06 24.7130 1.00000
  1.700E+08 1.700E+08 3.680E+00 2.078E+02 2.853E+02 1.112E+02 6.042E+02 6.079E+02 1.590E+06 25.1013 1.00000
  2.000E+08 2.000E+08 3.703E+00 2.446E+02 3.357E+02 1.332E+02 7.135E+02 7.172E+02 1.635E+06 25.4263 1.00000
  2.500E+08 2.500E+08 3.736E+00 3.061E+02 4.198E+02 1.707E+02 8.966E+02 9.003E+02 1.698E+06 25.8726 1.00000
  3.000E+08 3.000E+08 3.762E+00 3.675E+02 5.039E+02 2.091E+02 1.081E+03 1.084E+03 1.749E+06 26.2373 1.00000
  3.500E+08 3.500E+08 3.785E+00 4.290E+02 5.880E+02 2.483E+02 1.265E+03 1.269E+03 1.792E+06 26.5456 1.00000
  4.000E+08 4.000E+08 3.805E+00 4.905E+02 6.721E+02 2.881E+02 1.451E+03 1.454E+03 1.829E+06 26.8126 1.00000
  4.500E+08 4.500E+08 3.823E+00 5.519E+02 7.561E+02 3.285E+02 1.637E+03 1.640E+03 1.861E+06 27.0482 1.00000
  5.000E+08 5.000E+08 3.839E+00 6.134E+02 8.402E+02 3.694E+02 1.823E+03 1.827E+03 1.890E+06 27.2589 1.00000
  5.500E+08 5.500E+08 3.853E+00 6.749E+02 9.243E+02 4.109E+02 2.010E+03 2.014E+03 1.916E+06 27.4495 1.00000
  6.000E+08 6.000E+08 3.867E+00 7.364E+02 1.008E+03 4.527E+02 2.198E+03 2.201E+03 1.940E+06 27.6236 1.00000
  7.000E+08 7.000E+08 3.890E+00 8.594E+02 1.177E+03 5.376E+02 2.574E+03 2.577E+03 1.982E+06 27.9319 1.00000
  8.000E+08 8.000E+08 3.911E+00 9.823E+02 1.345E+03 6.240E+02 2.951E+03 2.955E+03 2.018E+06 28.1989 1.00000
  9.000E+08 9.000E+08 3.929E+00 1.105E+03 1.513E+03 7.117E+02 3.330E+03 3.334E+03 2.050E+06 28.4345 1.00000
  1.000E+09 1.000E+09 3.946E+00 1.228E+03 1.681E+03 8.005E+02 3.710E+03 3.714E+03 2.079E+06 28.6452 1.00000
