 Incident particle is a Muon with M = 105.65839 MeV
 Index = 0: Skin
      Absorber with <Z/A> = 0.54925
 Sternheimer coef:  a     k=m_s   x_0    x_1    I[eV]   Cbar  delta0
                 0.0946  3.4643  0.2019  2.7526   72.7  3.3546 0.00

 *** Table generated with PUMAS v1.00 ***

      T         p     Ionization  brems     pair     photonuc  Radloss    dE/dx   CSDA Range  delta   beta
    [MeV]    [MeV/c]  -----------------------[MeV cm^2/g]------------------------  [g/cm^2]
  1.000E+00 1.457E+01 5.029E+01 7.518E-07 0.000E+00 0.000E+00 7.518E-07 5.029E+01 9.942E-03  0.0000 0.13661
  1.200E+00 1.597E+01 4.338E+01 8.613E-07 0.000E+00 0.000E+00 8.613E-07 4.338E+01 1.424E-02  0.0000 0.14944
  1.400E+00 1.726E+01 3.827E+01 9.658E-07 0.000E+00 0.000E+00 9.658E-07 3.827E+01 1.915E-02  0.0000 0.16119
  1.700E+00 1.903E+01 3.267E+01 1.115E-06 0.000E+00 0.000E+00 1.115E-06 3.267E+01 2.766E-02  0.0000 0.17725
  2.000E+00 2.066E+01 2.861E+01 1.256E-06 0.000E+00 0.000E+00 1.256E-06 2.861E+01 3.750E-02  0.0000 0.19186
  2.500E+00 2.312E+01 2.385E+01 1.478E-06 0.000E+00 0.000E+00 1.478E-06 2.385E+01 5.672E-02  0.0000 0.21376
  3.000E+00 2.536E+01 2.056E+01 1.686E-06 0.000E+00 0.000E+00 1.686E-06 2.056E+01 7.936E-02  0.0000 0.23336
  3.500E+00 2.742E+01 1.814E+01 1.882E-06 0.000E+00 0.000E+00 1.882E-06 1.814E+01 1.053E-01  0.0000 0.25120
  4.000E+00 2.935E+01 1.628E+01 2.068E-06 0.000E+00 0.000E+00 2.068E-06 1.628E+01 1.344E-01  0.0000 0.26763
  4.500E+00 3.116E+01 1.480E+01 2.246E-06 0.000E+00 0.000E+00 2.246E-06 1.480E+01 1.667E-01  0.0000 0.28290
  5.000E+00 3.289E+01 1.360E+01 2.416E-06 0.000E+00 0.000E+00 2.416E-06 1.360E+01 2.020E-01  0.0000 0.29720
  5.500E+00 3.453E+01 1.261E+01 2.580E-06 0.000E+00 0.000E+00 2.580E-06 1.261E+01 2.402E-01  0.0000 0.31066
  6.000E+00 3.611E+01 1.176E+01 2.738E-06 0.000E+00 0.000E+00 2.738E-06 1.176E+01 2.813E-01  0.0000 0.32339
  7.000E+00 3.909E+01 1.042E+01 3.039E-06 0.000E+00 0.000E+00 3.039E-06 1.042E+01 3.718E-01  0.0000 0.34700
  8.000E+00 4.189E+01 9.387E+00 3.323E-06 0.000E+00 0.000E+00 3.323E-06 9.387E+00 4.730E-01  0.0000 0.36854
  9.000E+00 4.453E+01 8.573E+00 3.593E-06 0.000E+00 0.000E+00 3.593E-06 8.573E+00 5.846E-01  0.0000 0.38836
  1.000E+01 4.704E+01 7.913E+00 3.850E-06 0.000E+00 0.000E+00 3.850E-06 7.913E+00 7.061E-01  0.0000 0.40675
  1.200E+01 5.177E+01 6.905E+00 4.334E-06 0.000E+00 0.000E+00 4.334E-06 6.905E+00 9.773E-01  0.0000 0.43998
  1.400E+01 5.616E+01 6.171E+00 4.785E-06 0.000E+00 0.000E+00 4.785E-06 6.171E+00 1.284E+00  0.0000 0.46937
  1.700E+01 6.230E+01 5.381E+00 5.414E-06 0.000E+00 0.000E+00 5.414E-06 5.381E+00 1.806E+00  0.0000 0.50792
  2.000E+01 6.802E+01 4.819E+00 6.001E-06 0.000E+00 0.000E+00 6.001E-06 4.819E+00 2.396E+00  0.0000 0.54129
  2.500E+01 7.686E+01 4.173E+00 6.912E-06 0.000E+00 0.000E+00 6.912E-06 4.173E+00 3.514E+00  0.0000 0.58827
  3.000E+01 8.509E+01 3.738E+00 7.765E-06 0.000E+00 0.000E+00 7.765E-06 3.738E+00 4.782E+00  0.0000 0.62720
  3.500E+01 9.285E+01 3.426E+00 8.582E-06 0.000E+00 0.000E+00 8.582E-06 3.426E+00 6.180E+00  0.0000 0.66011
  4.000E+01 1.003E+02 3.192E+00 9.373E-06 0.000E+00 0.000E+00 9.373E-06 3.192E+00 7.693E+00  0.0000 0.68834
  4.500E+01 1.074E+02 3.010E+00 1.015E-05 0.000E+00 0.000E+00 1.015E-05 3.010E+00 9.307E+00  0.0000 0.71286
  5.000E+01 1.143E+02 2.866E+00 1.091E-05 0.000E+00 0.000E+00 1.091E-05 2.866E+00 1.101E+01  0.0000 0.73434
  5.500E+01 1.210E+02 2.749E+00 1.167E-05 0.000E+00 0.000E+00 1.167E-05 2.749E+00 1.279E+01  0.0000 0.75332
  6.000E+01 1.276E+02 2.652E+00 1.243E-05 0.000E+00 0.000E+00 1.243E-05 2.652E+00 1.464E+01  0.0000 0.77019
  7.000E+01 1.403E+02 2.504E+00 1.394E-05 0.000E+00 0.000E+00 1.394E-05 2.504E+00 1.853E+01  0.0000 0.79887
  8.000E+01 1.527E+02 2.396E+00 1.546E-05 0.000E+00 0.000E+00 1.546E-05 2.396E+00 2.261E+01  0.0000 0.82227
  9.000E+01 1.647E+02 2.315E+00 1.700E-05 0.000E+00 0.000E+00 1.700E-05 2.315E+00 2.686E+01  0.0000 0.84166
  1.000E+02 1.764E+02 2.250E+00 1.856E-05 0.000E+00 0.000E+00 1.856E-05 2.250E+00 3.124E+01  0.0280 0.85794
  1.200E+02 1.994E+02 2.156E+00 2.176E-05 0.000E+00 0.000E+00 2.176E-05 2.156E+00 4.032E+01  0.1055 0.88361
  1.400E+02 2.218E+02 2.094E+00 2.508E-05 0.000E+00 0.000E+00 2.508E-05 2.094E+00 4.974E+01  0.1800 0.90278
  1.700E+02 2.546E+02 2.037E+00 3.027E-05 4.383E-14 0.000E+00 3.027E-05 2.037E+00 6.426E+01  0.2860 0.92363
  2.000E+02 2.868E+02 2.005E+00 3.570E-05 9.797E-12 0.000E+00 3.570E-05 2.005E+00 7.911E+01  0.3858 0.93835
  2.500E+02 3.396E+02 1.978E+00 4.530E-05 8.115E-08 0.000E+00 4.538E-05 1.978E+00 1.042E+02  0.5400 0.95485
  3.000E+02 3.917E+02 1.970E+00 5.551E-05 7.240E-07 0.000E+00 5.623E-05 1.970E+00 1.295E+02  0.6812 0.96548
  3.500E+02 4.432E+02 1.970E+00 6.628E-05 1.993E-06 0.000E+00 6.827E-05 1.970E+00 1.549E+02  0.8116 0.97274
  4.000E+02 4.945E+02 1.975E+00 7.756E-05 3.859E-06 0.000E+00 8.142E-05 1.975E+00 1.803E+02  0.9328 0.97793
  4.500E+02 5.455E+02 1.983E+00 8.932E-05 6.301E-06 0.000E+00 9.562E-05 1.983E+00 2.055E+02  1.0461 0.98176
  5.000E+02 5.964E+02 1.992E+00 1.015E-04 9.298E-06 0.000E+00 1.108E-04 1.992E+00 2.307E+02  1.1526 0.98467
  5.500E+02 6.471E+02 2.001E+00 1.141E-04 1.283E-05 0.000E+00 1.270E-04 2.002E+00 2.557E+02  1.2531 0.98693
  6.000E+02 6.977E+02 2.011E+00 1.271E-04 1.688E-05 0.000E+00 1.440E-04 2.011E+00 2.807E+02  1.3482 0.98873
  7.000E+02 7.987E+02 2.030E+00 1.542E-04 2.647E-05 0.000E+00 1.806E-04 2.031E+00 3.301E+02  1.5245 0.99136
  8.000E+02 8.995E+02 2.049E+00 1.825E-04 3.792E-05 0.000E+00 2.204E-04 2.049E+00 3.792E+02  1.6853 0.99317
  9.000E+02 1.000E+03 2.066E+00 2.120E-04 5.113E-05 0.000E+00 2.631E-04 2.067E+00 4.277E+02  1.8332 0.99447
  1.000E+03 1.101E+03 2.083E+00 2.426E-04 6.598E-05 0.000E+00 3.085E-04 2.083E+00 4.759E+02  1.9701 0.99542
  1.200E+03 1.301E+03 2.112E+00 3.066E-04 1.002E-04 2.256E-05 4.294E-04 2.113E+00 5.713E+02  2.2173 0.99672
  1.400E+03 1.502E+03 2.138E+00 3.740E-04 1.401E-04 6.182E-05 5.759E-04 2.138E+00 6.654E+02  2.4358 0.99753
  1.700E+03 1.803E+03 2.171E+00 4.807E-04 2.090E-04 1.327E-04 8.224E-04 2.172E+00 8.046E+02  2.7230 0.99829
  2.000E+03 2.103E+03 2.199E+00 5.931E-04 2.879E-04 2.165E-04 1.097E-03 2.200E+00 9.419E+02  2.9729 0.99874
  2.500E+03 2.604E+03 2.237E+00 7.913E-04 4.382E-04 3.791E-04 1.609E-03 2.238E+00 1.167E+03  3.3294 0.99918
  3.000E+03 3.104E+03 2.268E+00 1.001E-03 6.090E-04 5.505E-04 2.161E-03 2.270E+00 1.389E+03  3.6310 0.99942
  3.500E+03 3.604E+03 2.294E+00 1.221E-03 7.973E-04 7.326E-04 2.751E-03 2.296E+00 1.608E+03  3.8929 0.99957
  4.000E+03 4.104E+03 2.316E+00 1.449E-03 1.016E-03 9.277E-04 3.393E-03 2.319E+00 1.825E+03  4.1243 0.99967
  4.500E+03 4.604E+03 2.335E+00 1.685E-03 1.256E-03 1.131E-03 4.072E-03 2.339E+00 2.039E+03  4.3317 0.99974
  5.000E+03 5.105E+03 2.352E+00 1.927E-03 1.510E-03 1.327E-03 4.764E-03 2.357E+00 2.252E+03  4.5198 0.99979
  5.500E+03 5.605E+03 2.368E+00 2.176E-03 1.777E-03 1.538E-03 5.491E-03 2.373E+00 2.464E+03  4.6918 0.99982
  6.000E+03 6.105E+03 2.381E+00 2.430E-03 2.056E-03 1.735E-03 6.221E-03 2.388E+00 2.674E+03  4.8503 0.99985
  7.000E+03 7.105E+03 2.406E+00 2.955E-03 2.646E-03 2.153E-03 7.755E-03 2.413E+00 3.090E+03  5.1342 0.99989
  8.000E+03 8.105E+03 2.426E+00 3.498E-03 3.276E-03 2.570E-03 9.343E-03 2.436E+00 3.503E+03  5.3833 0.99992
  9.000E+03 9.105E+03 2.444E+00 4.056E-03 3.939E-03 2.962E-03 1.096E-02 2.455E+00 3.912E+03  5.6052 0.99993
  1.000E+04 1.011E+04 2.460E+00 4.629E-03 4.632E-03 3.368E-03 1.263E-02 2.472E+00 4.318E+03  5.8052 0.99995
  1.200E+04 1.211E+04 2.486E+00 5.813E-03 6.099E-03 4.192E-03 1.610E-02 2.502E+00 5.122E+03  6.1544 0.99996
  1.400E+04 1.411E+04 2.508E+00 7.041E-03 7.657E-03 5.019E-03 1.972E-02 2.528E+00 5.917E+03  6.4524 0.99997
  1.700E+04 1.711E+04 2.535E+00 8.952E-03 1.014E-02 6.248E-03 2.534E-02 2.561E+00 7.096E+03  6.8307 0.99998
  2.000E+04 2.011E+04 2.557E+00 1.093E-02 1.276E-02 7.457E-03 3.115E-02 2.589E+00 8.261E+03  7.1495 0.99999
  2.500E+04 2.511E+04 2.587E+00 1.436E-02 1.739E-02 9.448E-03 4.120E-02 2.628E+00 1.018E+04  7.5899 0.99999
  3.000E+04 3.011E+04 2.610E+00 1.792E-02 2.229E-02 1.141E-02 5.161E-02 2.662E+00 1.207E+04  7.9513 0.99999
  3.500E+04 3.511E+04 2.630E+00 2.159E-02 2.739E-02 1.339E-02 6.237E-02 2.692E+00 1.394E+04  8.2578 1.00000
  4.000E+04 4.011E+04 2.646E+00 2.535E-02 3.268E-02 1.535E-02 7.338E-02 2.720E+00 1.578E+04  8.5237 1.00000
  4.500E+04 4.511E+04 2.661E+00 2.919E-02 3.812E-02 1.729E-02 8.460E-02 2.746E+00 1.761E+04  8.7586 1.00000
  5.000E+04 5.011E+04 2.674E+00 3.310E-02 4.369E-02 1.924E-02 9.603E-02 2.770E+00 1.943E+04  8.9688 1.00000
  5.500E+04 5.511E+04 2.685E+00 3.707E-02 4.938E-02 2.120E-02 1.077E-01 2.793E+00 2.122E+04  9.1590 1.00000
  6.000E+04 6.011E+04 2.696E+00 4.110E-02 5.518E-02 2.314E-02 1.194E-01 2.815E+00 2.301E+04  9.3327 1.00000
  7.000E+04 7.011E+04 2.714E+00 4.931E-02 6.703E-02 2.700E-02 1.433E-01 2.857E+00 2.653E+04  9.6405 1.00000
  8.000E+04 8.011E+04 2.729E+00 5.769E-02 7.920E-02 3.087E-02 1.678E-01 2.897E+00 3.001E+04  9.9072 1.00000
  9.000E+04 9.011E+04 2.743E+00 6.623E-02 9.163E-02 3.474E-02 1.926E-01 2.936E+00 3.344E+04 10.1425 1.00000
  1.000E+05 1.001E+05 2.755E+00 7.489E-02 1.043E-01 3.855E-02 2.177E-01 2.973E+00 3.682E+04 10.3529 1.00000
  1.200E+05 1.201E+05 2.776E+00 9.255E-02 1.301E-01 4.631E-02 2.690E-01 3.045E+00 4.347E+04 10.7172 1.00000
  1.400E+05 1.401E+05 2.794E+00 1.106E-01 1.566E-01 5.408E-02 3.213E-01 3.115E+00 4.997E+04 11.0253 1.00000
  1.700E+05 1.701E+05 2.816E+00 1.382E-01 1.972E-01 6.575E-02 4.011E-01 3.217E+00 5.944E+04 11.4133 1.00000
  2.000E+05 2.001E+05 2.834E+00 1.664E-01 2.386E-01 7.750E-02 4.825E-01 3.316E+00 6.863E+04 11.7382 1.00000
  2.500E+05 2.501E+05 2.859E+00 2.144E-01 3.090E-01 9.715E-02 6.206E-01 3.480E+00 8.335E+04 12.1843 1.00000
  3.000E+05 3.001E+05 2.880E+00 2.634E-01 3.808E-01 1.170E-01 7.612E-01 3.641E+00 9.740E+04 12.5488 1.00000
  3.500E+05 3.501E+05 2.897E+00 3.132E-01 4.536E-01 1.371E-01 9.039E-01 3.801E+00 1.108E+05 12.8570 1.00000
  4.000E+05 4.001E+05 2.912E+00 3.636E-01 5.272E-01 1.572E-01 1.048E+00 3.960E+00 1.237E+05 13.1239 1.00000
  4.500E+05 4.501E+05 2.925E+00 4.145E-01 6.015E-01 1.775E-01 1.194E+00 4.119E+00 1.361E+05 13.3595 1.00000
  5.000E+05 5.001E+05 2.937E+00 4.659E-01 6.763E-01 1.980E-01 1.340E+00 4.277E+00 1.480E+05 13.5701 1.00000
  5.500E+05 5.501E+05 2.948E+00 5.177E-01 7.516E-01 2.184E-01 1.488E+00 4.436E+00 1.595E+05 13.7607 1.00000
  6.000E+05 6.001E+05 2.958E+00 5.699E-01 8.272E-01 2.388E-01 1.636E+00 4.594E+00 1.706E+05 13.9347 1.00000
  7.000E+05 7.001E+05 2.975E+00 6.752E-01 9.795E-01 2.801E-01 1.935E+00 4.910E+00 1.917E+05 14.2430 1.00000
  8.000E+05 8.001E+05 2.990E+00 7.815E-01 1.133E+00 3.219E-01 2.236E+00 5.227E+00 2.114E+05 14.5100 1.00000
  9.000E+05 9.001E+05 3.004E+00 8.887E-01 1.287E+00 3.640E-01 2.540E+00 5.544E+00 2.300E+05 14.7455 1.00000
  1.000E+06 1.000E+06 3.016E+00 9.966E-01 1.442E+00 4.065E-01 2.845E+00 5.861E+00 2.475E+05 14.9562 1.00000
  1.200E+06 1.200E+06 3.037E+00 1.214E+00 1.754E+00 4.927E-01 3.461E+00 6.498E+00 2.800E+05 15.3208 1.00000
  1.400E+06 1.400E+06 3.055E+00 1.434E+00 2.067E+00 5.800E-01 4.081E+00 7.136E+00 3.094E+05 15.6291 1.00000
  1.700E+06 1.700E+06 3.078E+00 1.766E+00 2.540E+00 7.132E-01 5.019E+00 8.097E+00 3.489E+05 16.0174 1.00000
  2.000E+06 2.000E+06 3.097E+00 2.101E+00 3.015E+00 8.485E-01 5.964E+00 9.061E+00 3.840E+05 16.3424 1.00000
  2.500E+06 2.500E+06 3.123E+00 2.663E+00 3.810E+00 1.078E+00 7.551E+00 1.067E+01 4.350E+05 16.7887 1.00000
  3.000E+06 3.000E+06 3.145E+00 3.230E+00 4.608E+00 1.312E+00 9.151E+00 1.230E+01 4.788E+05 17.1533 1.00000
  3.500E+06 3.500E+06 3.163E+00 3.800E+00 5.409E+00 1.550E+00 1.076E+01 1.392E+01 5.171E+05 17.4616 1.00000
  4.000E+06 4.000E+06 3.180E+00 4.373E+00 6.211E+00 1.792E+00 1.238E+01 1.555E+01 5.511E+05 17.7286 1.00000
  4.500E+06 4.500E+06 3.194E+00 4.948E+00 7.014E+00 2.036E+00 1.400E+01 1.719E+01 5.817E+05 17.9642 1.00000
  5.000E+06 5.000E+06 3.207E+00 5.524E+00 7.819E+00 2.283E+00 1.563E+01 1.883E+01 6.095E+05 18.1749 1.00000
  5.500E+06 5.500E+06 3.218E+00 6.102E+00 8.625E+00 2.533E+00 1.726E+01 2.048E+01 6.350E+05 18.3655 1.00000
  6.000E+06 6.000E+06 3.229E+00 6.681E+00 9.431E+00 2.785E+00 1.890E+01 2.213E+01 6.585E+05 18.5396 1.00000
  7.000E+06 7.000E+06 3.248E+00 7.842E+00 1.105E+01 3.295E+00 2.218E+01 2.543E+01 7.008E+05 18.8478 1.00000
  8.000E+06 8.000E+06 3.265E+00 9.006E+00 1.266E+01 3.813E+00 2.548E+01 2.875E+01 7.378E+05 19.1149 1.00000
  9.000E+06 9.000E+06 3.279E+00 1.017E+01 1.428E+01 4.338E+00 2.879E+01 3.207E+01 7.708E+05 19.3505 1.00000
  1.000E+07 1.000E+07 3.293E+00 1.134E+01 1.590E+01 4.869E+00 3.211E+01 3.540E+01 8.005E+05 19.5612 1.00000
  1.200E+07 1.200E+07 3.316E+00 1.369E+01 1.914E+01 5.947E+00 3.877E+01 4.209E+01 8.526E+05 19.9258 1.00000
  1.400E+07 1.400E+07 3.335E+00 1.603E+01 2.238E+01 7.045E+00 4.546E+01 4.880E+01 8.968E+05 20.2341 1.00000
  1.700E+07 1.700E+07 3.360E+00 1.956E+01 2.725E+01 8.722E+00 5.554E+01 5.890E+01 9.530E+05 20.6224 1.00000
  2.000E+07 2.000E+07 3.382E+00 2.310E+01 3.213E+01 1.043E+01 6.566E+01 6.904E+01 1.000E+06 20.9475 1.00000
  2.500E+07 2.500E+07 3.411E+00 2.901E+01 4.026E+01 1.334E+01 8.261E+01 8.602E+01 1.065E+06 21.3938 1.00000
  3.000E+07 3.000E+07 3.435E+00 3.492E+01 4.839E+01 1.632E+01 9.963E+01 1.031E+02 1.119E+06 21.7584 1.00000
  3.500E+07 3.500E+07 3.455E+00 4.084E+01 5.652E+01 1.935E+01 1.167E+02 1.202E+02 1.164E+06 22.0667 1.00000
  4.000E+07 4.000E+07 3.473E+00 4.677E+01 6.466E+01 2.243E+01 1.339E+02 1.373E+02 1.203E+06 22.3338 1.00000
  4.500E+07 4.500E+07 3.489E+00 5.270E+01 7.280E+01 2.555E+01 1.510E+02 1.545E+02 1.237E+06 22.5693 1.00000
  5.000E+07 5.000E+07 3.503E+00 5.864E+01 8.094E+01 2.871E+01 1.683E+02 1.718E+02 1.268E+06 22.7800 1.00000
  5.500E+07 5.500E+07 3.516E+00 6.457E+01 8.908E+01 3.190E+01 1.856E+02 1.891E+02 1.296E+06 22.9707 1.00000
  6.000E+07 6.000E+07 3.528E+00 7.051E+01 9.722E+01 3.513E+01 2.029E+02 2.064E+02 1.321E+06 23.1447 1.00000
  7.000E+07 7.000E+07 3.549E+00 8.240E+01 1.135E+02 4.168E+01 2.376E+02 2.411E+02 1.366E+06 23.4530 1.00000
  8.000E+07 8.000E+07 3.568E+00 9.429E+01 1.298E+02 4.833E+01 2.724E+02 2.760E+02 1.405E+06 23.7201 1.00000
  9.000E+07 9.000E+07 3.584E+00 1.062E+02 1.461E+02 5.507E+01 3.073E+02 3.109E+02 1.439E+06 23.9556 1.00000
  1.000E+08 1.000E+08 3.599E+00 1.181E+02 1.624E+02 6.190E+01 3.424E+02 3.460E+02 1.470E+06 24.1663 1.00000
  1.200E+08 1.200E+08 3.625E+00 1.419E+02 1.950E+02 7.579E+01 4.126E+02 4.163E+02 1.523E+06 24.5310 1.00000
  1.400E+08 1.400E+08 3.647E+00 1.657E+02 2.276E+02 8.994E+01 4.832E+02 4.868E+02 1.567E+06 24.8393 1.00000
  1.700E+08 1.700E+08 3.674E+00 2.014E+02 2.764E+02 1.116E+02 5.895E+02 5.931E+02 1.623E+06 25.2276 1.00000
  2.000E+08 2.000E+08 3.698E+00 2.372E+02 3.253E+02 1.337E+02 6.962E+02 6.999E+02 1.670E+06 25.5526 1.00000
  2.500E+08 2.500E+08 3.731E+00 2.967E+02 4.068E+02 1.714E+02 8.749E+02 8.787E+02 1.734E+06 25.9989 1.00000
  3.000E+08 3.000E+08 3.757E+00 3.563E+02 4.883E+02 2.099E+02 1.055E+03 1.058E+03 1.786E+06 26.3636 1.00000
  3.500E+08 3.500E+08 3.780E+00 4.159E+02 5.698E+02 2.492E+02 1.235E+03 1.239E+03 1.830E+06 26.6719 1.00000
  4.000E+08 4.000E+08 3.800E+00 4.755E+02 6.513E+02 2.892E+02 1.416E+03 1.420E+03 1.868E+06 26.9389 1.00000
  4.500E+08 4.500E+08 3.818E+00 5.351E+02 7.328E+02 3.298E+02 1.598E+03 1.601E+03 1.901E+06 27.1745 1.00000
  5.000E+08 5.000E+08 3.834E+00 5.947E+02 8.143E+02 3.709E+02 1.780E+03 1.784E+03 1.931E+06 27.3852 1.00000
  5.500E+08 5.500E+08 3.848E+00 6.544E+02 8.958E+02 4.124E+02 1.963E+03 1.966E+03 1.957E+06 27.5758 1.00000
  6.000E+08 6.000E+08 3.862E+00 7.140E+02 9.773E+02 4.544E+02 2.146E+03 2.150E+03 1.982E+06 27.7499 1.00000
  7.000E+08 7.000E+08 3.885E+00 8.332E+02 1.140E+03 5.397E+02 2.513E+03 2.517E+03 2.025E+06 28.0582 1.00000
  8.000E+08 8.000E+08 3.906E+00 9.525E+02 1.303E+03 6.264E+02 2.882E+03 2.886E+03 2.062E+06 28.3252 1.00000
  9.000E+08 9.000E+08 3.924E+00 1.072E+03 1.466E+03 7.144E+02 3.252E+03 3.256E+03 2.095E+06 28.5608 1.00000
  1.000E+09 1.000E+09 3.941E+00 1.191E+03 1.629E+03 8.036E+02 3.624E+03 3.628E+03 2.124E+06 28.7715 1.00000
