 Incident particle is a Muon with M = 105.65839 MeV
 Index = 0: SodiumNitrate
      Absorber with <Z/A> = 0.49415
 Sternheimer coef:  a     k=m_s   x_0    x_1    I[eV]   Cbar  delta0
                 0.0939  3.5097  0.1534  2.8221  114.6  3.6502 0.00

 *** Table generated with PUMAS v1.00 ***

      T         p     Ionization  brems     pair     photonuc  Radloss    dE/dx   CSDA Range  delta   beta
    [MeV]    [MeV/c]  -----------------------[MeV cm^2/g]------------------------  [g/cm^2]
  1.000E+00 1.457E+01 4.155E+01 8.952E-07 0.000E+00 0.000E+00 8.952E-07 4.155E+01 1.203E-02  0.0000 0.13661
  1.200E+00 1.597E+01 3.594E+01 1.027E-06 0.000E+00 0.000E+00 1.027E-06 3.594E+01 1.722E-02  0.0000 0.14944
  1.400E+00 1.726E+01 3.178E+01 1.153E-06 0.000E+00 0.000E+00 1.153E-06 3.178E+01 2.315E-02  0.0000 0.16119
  1.700E+00 1.903E+01 2.720E+01 1.333E-06 0.000E+00 0.000E+00 1.333E-06 2.720E+01 3.339E-02  0.0000 0.17725
  2.000E+00 2.066E+01 2.387E+01 1.503E-06 0.000E+00 0.000E+00 1.503E-06 2.387E+01 4.519E-02  0.0000 0.19186
  2.500E+00 2.312E+01 1.995E+01 1.770E-06 0.000E+00 0.000E+00 1.770E-06 1.995E+01 6.820E-02  0.0000 0.21376
  3.000E+00 2.536E+01 1.723E+01 2.019E-06 0.000E+00 0.000E+00 2.019E-06 1.723E+01 9.525E-02  0.0000 0.23336
  3.500E+00 2.742E+01 1.522E+01 2.254E-06 0.000E+00 0.000E+00 2.254E-06 1.522E+01 1.262E-01  0.0000 0.25120
  4.000E+00 2.935E+01 1.368E+01 2.477E-06 0.000E+00 0.000E+00 2.477E-06 1.368E+01 1.609E-01  0.0000 0.26763
  4.500E+00 3.116E+01 1.245E+01 2.690E-06 0.000E+00 0.000E+00 2.690E-06 1.245E+01 1.992E-01  0.0000 0.28290
  5.000E+00 3.289E+01 1.146E+01 2.894E-06 0.000E+00 0.000E+00 2.894E-06 1.146E+01 2.411E-01  0.0000 0.29720
  5.500E+00 3.453E+01 1.062E+01 3.090E-06 0.000E+00 0.000E+00 3.090E-06 1.062E+01 2.865E-01  0.0000 0.31066
  6.000E+00 3.611E+01 9.923E+00 3.279E-06 0.000E+00 0.000E+00 3.279E-06 9.923E+00 3.352E-01  0.0000 0.32339
  7.000E+00 3.909E+01 8.798E+00 3.638E-06 0.000E+00 0.000E+00 3.638E-06 8.798E+00 4.424E-01  0.0000 0.34700
  8.000E+00 4.189E+01 7.937E+00 3.977E-06 0.000E+00 0.000E+00 3.977E-06 7.937E+00 5.622E-01  0.0000 0.36854
  9.000E+00 4.453E+01 7.255E+00 4.298E-06 0.000E+00 0.000E+00 4.298E-06 7.255E+00 6.942E-01  0.0000 0.38836
  1.000E+01 4.704E+01 6.701E+00 4.605E-06 0.000E+00 0.000E+00 4.605E-06 6.701E+00 8.377E-01  0.0000 0.40675
  1.200E+01 5.177E+01 5.855E+00 5.180E-06 0.000E+00 0.000E+00 5.180E-06 5.855E+00 1.158E+00  0.0000 0.43998
  1.400E+01 5.616E+01 5.239E+00 5.716E-06 0.000E+00 0.000E+00 5.716E-06 5.239E+00 1.519E+00  0.0000 0.46937
  1.700E+01 6.230E+01 4.574E+00 6.463E-06 0.000E+00 0.000E+00 6.463E-06 4.574E+00 2.134E+00  0.0000 0.50792
  2.000E+01 6.802E+01 4.100E+00 7.159E-06 0.000E+00 0.000E+00 7.159E-06 4.100E+00 2.827E+00  0.0000 0.54129
  2.500E+01 7.686E+01 3.555E+00 8.240E-06 0.000E+00 0.000E+00 8.240E-06 3.555E+00 4.141E+00  0.0000 0.58827
  3.000E+01 8.509E+01 3.187E+00 9.251E-06 0.000E+00 0.000E+00 9.251E-06 3.187E+00 5.628E+00  0.0000 0.62720
  3.500E+01 9.285E+01 2.924E+00 1.022E-05 0.000E+00 0.000E+00 1.022E-05 2.924E+00 7.268E+00  0.0000 0.66011
  4.000E+01 1.003E+02 2.726E+00 1.116E-05 0.000E+00 0.000E+00 1.116E-05 2.726E+00 9.040E+00  0.0000 0.68834
  4.500E+01 1.074E+02 2.572E+00 1.207E-05 0.000E+00 0.000E+00 1.207E-05 2.572E+00 1.093E+01  0.0000 0.71286
  5.000E+01 1.143E+02 2.450E+00 1.298E-05 0.000E+00 0.000E+00 1.298E-05 2.450E+00 1.292E+01  0.0000 0.73434
  5.500E+01 1.210E+02 2.351E+00 1.388E-05 0.000E+00 0.000E+00 1.388E-05 2.351E+00 1.501E+01  0.0000 0.75332
  6.000E+01 1.276E+02 2.270E+00 1.478E-05 0.000E+00 0.000E+00 1.478E-05 2.270E+00 1.717E+01  0.0000 0.77019
  7.000E+01 1.403E+02 2.144E+00 1.657E-05 0.000E+00 0.000E+00 1.657E-05 2.144E+00 2.170E+01  0.0000 0.79887
  8.000E+01 1.527E+02 2.053E+00 1.838E-05 0.000E+00 0.000E+00 1.838E-05 2.053E+00 2.647E+01  0.0044 0.82227
  9.000E+01 1.647E+02 1.982E+00 2.021E-05 0.000E+00 0.000E+00 2.021E-05 1.982E+00 3.143E+01  0.0313 0.84166
  1.000E+02 1.764E+02 1.927E+00 2.206E-05 0.000E+00 0.000E+00 2.206E-05 1.927E+00 3.655E+01  0.0591 0.85794
  1.200E+02 1.994E+02 1.850E+00 2.587E-05 0.000E+00 0.000E+00 2.587E-05 1.850E+00 4.714E+01  0.1162 0.88361
  1.400E+02 2.218E+02 1.800E+00 2.981E-05 0.000E+00 0.000E+00 2.981E-05 1.800E+00 5.810E+01  0.1735 0.90278
  1.700E+02 2.546E+02 1.754E+00 3.599E-05 3.593E-14 0.000E+00 3.599E-05 1.754E+00 7.499E+01  0.2585 0.92363
  2.000E+02 2.868E+02 1.729E+00 4.246E-05 1.192E-11 0.000E+00 4.246E-05 1.729E+00 9.221E+01  0.3410 0.93835
  2.500E+02 3.396E+02 1.710E+00 5.389E-05 9.749E-08 0.000E+00 5.399E-05 1.710E+00 1.213E+02  0.4720 0.95485
  3.000E+02 3.917E+02 1.705E+00 6.606E-05 8.782E-07 0.000E+00 6.694E-05 1.705E+00 1.506E+02  0.5950 0.96548
  3.500E+02 4.432E+02 1.708E+00 7.891E-05 2.426E-06 0.000E+00 8.133E-05 1.708E+00 1.799E+02  0.7105 0.97274
  4.000E+02 4.945E+02 1.714E+00 9.237E-05 4.707E-06 0.000E+00 9.707E-05 1.714E+00 2.091E+02  0.8192 0.97793
  4.500E+02 5.455E+02 1.722E+00 1.064E-04 7.694E-06 0.000E+00 1.141E-04 1.722E+00 2.382E+02  0.9218 0.98176
  5.000E+02 5.964E+02 1.731E+00 1.209E-04 1.136E-05 0.000E+00 1.323E-04 1.731E+00 2.672E+02  1.0189 0.98467
  5.500E+02 6.471E+02 1.741E+00 1.360E-04 1.569E-05 0.000E+00 1.517E-04 1.741E+00 2.960E+02  1.1111 0.98693
  6.000E+02 6.977E+02 1.750E+00 1.515E-04 2.065E-05 0.000E+00 1.721E-04 1.750E+00 3.246E+02  1.1989 0.98873
  7.000E+02 7.987E+02 1.769E+00 1.838E-04 3.239E-05 0.000E+00 2.162E-04 1.769E+00 3.814E+02  1.3627 0.99136
  8.000E+02 8.995E+02 1.787E+00 2.176E-04 4.642E-05 0.000E+00 2.640E-04 1.787E+00 4.377E+02  1.5132 0.99317
  9.000E+02 1.000E+03 1.803E+00 2.528E-04 6.260E-05 0.000E+00 3.155E-04 1.804E+00 4.934E+02  1.6524 0.99447
  1.000E+03 1.101E+03 1.819E+00 2.894E-04 8.080E-05 0.000E+00 3.702E-04 1.819E+00 5.486E+02  1.7818 0.99542
  1.200E+03 1.301E+03 1.846E+00 3.658E-04 1.228E-04 2.254E-05 5.111E-04 1.847E+00 6.577E+02  2.0167 0.99672
  1.400E+03 1.502E+03 1.870E+00 4.463E-04 1.716E-04 6.167E-05 6.796E-04 1.871E+00 7.653E+02  2.2256 0.99753
  1.700E+03 1.803E+03 1.901E+00 5.737E-04 2.562E-04 1.321E-04 9.619E-04 1.901E+00 9.244E+02  2.5015 0.99829
  2.000E+03 2.103E+03 1.926E+00 7.079E-04 3.528E-04 2.151E-04 1.276E-03 1.928E+00 1.081E+03  2.7428 0.99874
  2.500E+03 2.604E+03 1.961E+00 9.444E-04 5.371E-04 3.757E-04 1.857E-03 1.963E+00 1.338E+03  3.0885 0.99918
  3.000E+03 3.104E+03 1.990E+00 1.195E-03 7.464E-04 5.444E-04 2.485E-03 1.992E+00 1.591E+03  3.3823 0.99942
  3.500E+03 3.604E+03 2.014E+00 1.456E-03 9.772E-04 7.233E-04 3.157E-03 2.017E+00 1.840E+03  3.6381 0.99957
  4.000E+03 4.104E+03 2.034E+00 1.728E-03 1.241E-03 9.145E-04 3.883E-03 2.038E+00 2.087E+03  3.8647 0.99967
  4.500E+03 4.604E+03 2.052E+00 2.009E-03 1.527E-03 1.114E-03 4.650E-03 2.057E+00 2.331E+03  4.0682 0.99974
  5.000E+03 5.105E+03 2.068E+00 2.298E-03 1.830E-03 1.305E-03 5.433E-03 2.073E+00 2.573E+03  4.2530 0.99979
  5.500E+03 5.605E+03 2.082E+00 2.594E-03 2.149E-03 1.511E-03 6.254E-03 2.088E+00 2.814E+03  4.4222 0.99982
  6.000E+03 6.105E+03 2.094E+00 2.897E-03 2.481E-03 1.704E-03 7.082E-03 2.101E+00 3.052E+03  4.5784 0.99985
  7.000E+03 7.105E+03 2.116E+00 3.520E-03 3.185E-03 2.112E-03 8.817E-03 2.125E+00 3.526E+03  4.8585 0.99989
  8.000E+03 8.105E+03 2.135E+00 4.165E-03 3.934E-03 2.517E-03 1.062E-02 2.145E+00 3.994E+03  5.1046 0.99992
  9.000E+03 9.105E+03 2.151E+00 4.828E-03 4.722E-03 2.899E-03 1.245E-02 2.164E+00 4.458E+03  5.3241 0.99993
  1.000E+04 1.011E+04 2.165E+00 5.509E-03 5.546E-03 3.293E-03 1.435E-02 2.180E+00 4.919E+03  5.5222 0.99995
  1.200E+04 1.211E+04 2.190E+00 6.913E-03 7.288E-03 4.093E-03 1.829E-02 2.208E+00 5.830E+03  5.8685 0.99996
  1.400E+04 1.411E+04 2.209E+00 8.367E-03 9.136E-03 4.895E-03 2.240E-02 2.232E+00 6.731E+03  6.1644 0.99997
  1.700E+04 1.711E+04 2.234E+00 1.063E-02 1.207E-02 6.086E-03 2.879E-02 2.263E+00 8.066E+03  6.5405 0.99998
  2.000E+04 2.011E+04 2.254E+00 1.297E-02 1.518E-02 7.255E-03 3.541E-02 2.289E+00 9.385E+03  6.8579 0.99999
  2.500E+04 2.511E+04 2.281E+00 1.702E-02 2.066E-02 9.178E-03 4.686E-02 2.327E+00 1.155E+04  7.2966 0.99999
  3.000E+04 3.011E+04 2.302E+00 2.122E-02 2.644E-02 1.107E-02 5.873E-02 2.361E+00 1.368E+04  7.6571 0.99999
  3.500E+04 3.511E+04 2.319E+00 2.555E-02 3.247E-02 1.298E-02 7.099E-02 2.390E+00 1.579E+04  7.9630 1.00000
  4.000E+04 4.011E+04 2.334E+00 2.998E-02 3.870E-02 1.487E-02 8.355E-02 2.418E+00 1.787E+04  8.2286 1.00000
  4.500E+04 4.511E+04 2.347E+00 3.450E-02 4.511E-02 1.674E-02 9.635E-02 2.444E+00 1.993E+04  8.4632 1.00000
  5.000E+04 5.011E+04 2.359E+00 3.910E-02 5.168E-02 1.861E-02 1.094E-01 2.468E+00 2.196E+04  8.6733 1.00000
  5.500E+04 5.511E+04 2.369E+00 4.377E-02 5.837E-02 2.050E-02 1.226E-01 2.492E+00 2.398E+04  8.8634 1.00000
  6.000E+04 6.011E+04 2.378E+00 4.851E-02 6.519E-02 2.236E-02 1.361E-01 2.515E+00 2.598E+04  9.0371 1.00000
  7.000E+04 7.011E+04 2.395E+00 5.816E-02 7.914E-02 2.607E-02 1.634E-01 2.558E+00 2.992E+04  9.3449 1.00000
  8.000E+04 8.011E+04 2.409E+00 6.800E-02 9.343E-02 2.979E-02 1.912E-01 2.600E+00 3.380E+04  9.6116 1.00000
  9.000E+04 9.011E+04 2.421E+00 7.802E-02 1.080E-01 3.351E-02 2.196E-01 2.641E+00 3.761E+04  9.8469 1.00000
  1.000E+05 1.001E+05 2.432E+00 8.818E-02 1.229E-01 3.717E-02 2.482E-01 2.680E+00 4.137E+04 10.0573 1.00000
  1.200E+05 1.201E+05 2.451E+00 1.089E-01 1.532E-01 4.461E-02 3.067E-01 2.758E+00 4.873E+04 10.4216 1.00000
  1.400E+05 1.401E+05 2.467E+00 1.300E-01 1.842E-01 5.206E-02 3.663E-01 2.833E+00 5.588E+04 10.7297 1.00000
  1.700E+05 1.701E+05 2.487E+00 1.624E-01 2.317E-01 6.325E-02 4.573E-01 2.944E+00 6.627E+04 11.1177 1.00000
  2.000E+05 2.001E+05 2.503E+00 1.954E-01 2.802E-01 7.451E-02 5.500E-01 3.053E+00 7.628E+04 11.4426 1.00000
  2.500E+05 2.501E+05 2.526E+00 2.515E-01 3.625E-01 9.334E-02 7.073E-01 3.233E+00 9.220E+04 11.8887 1.00000
  3.000E+05 3.001E+05 2.544E+00 3.087E-01 4.464E-01 1.123E-01 8.674E-01 3.411E+00 1.073E+05 12.2532 1.00000
  3.500E+05 3.501E+05 2.560E+00 3.668E-01 5.313E-01 1.315E-01 1.030E+00 3.589E+00 1.216E+05 12.5614 1.00000
  4.000E+05 4.001E+05 2.573E+00 4.255E-01 6.172E-01 1.509E-01 1.194E+00 3.767E+00 1.352E+05 12.8283 1.00000
  4.500E+05 4.501E+05 2.585E+00 4.849E-01 7.037E-01 1.703E-01 1.359E+00 3.944E+00 1.481E+05 13.0639 1.00000
  5.000E+05 5.001E+05 2.596E+00 5.449E-01 7.909E-01 1.899E-01 1.526E+00 4.121E+00 1.605E+05 13.2745 1.00000
  5.500E+05 5.501E+05 2.605E+00 6.052E-01 8.786E-01 2.093E-01 1.693E+00 4.299E+00 1.724E+05 13.4651 1.00000
  6.000E+05 6.001E+05 2.614E+00 6.660E-01 9.667E-01 2.289E-01 1.862E+00 4.476E+00 1.838E+05 13.6391 1.00000
  7.000E+05 7.001E+05 2.630E+00 7.886E-01 1.144E+00 2.684E-01 2.201E+00 4.831E+00 2.053E+05 13.9474 1.00000
  8.000E+05 8.001E+05 2.644E+00 9.123E-01 1.322E+00 3.083E-01 2.543E+00 5.187E+00 2.253E+05 14.2144 1.00000
  9.000E+05 9.001E+05 2.656E+00 1.037E+00 1.502E+00 3.486E-01 2.888E+00 5.544E+00 2.440E+05 14.4499 1.00000
  1.000E+06 1.000E+06 2.667E+00 1.163E+00 1.682E+00 3.893E-01 3.234E+00 5.901E+00 2.615E+05 14.6606 1.00000
  1.200E+06 1.200E+06 2.686E+00 1.415E+00 2.044E+00 4.716E-01 3.931E+00 6.617E+00 2.935E+05 15.0252 1.00000
  1.400E+06 1.400E+06 2.702E+00 1.671E+00 2.409E+00 5.552E-01 4.634E+00 7.336E+00 3.223E+05 15.3335 1.00000
  1.700E+06 1.700E+06 2.722E+00 2.056E+00 2.958E+00 6.824E-01 5.696E+00 8.419E+00 3.606E+05 15.7218 1.00000
  2.000E+06 2.000E+06 2.739E+00 2.445E+00 3.509E+00 8.117E-01 6.766E+00 9.505E+00 3.942E+05 16.0468 1.00000
  2.500E+06 2.500E+06 2.763E+00 3.098E+00 4.432E+00 1.031E+00 8.561E+00 1.132E+01 4.425E+05 16.4931 1.00000
  3.000E+06 3.000E+06 2.783E+00 3.755E+00 5.358E+00 1.255E+00 1.037E+01 1.315E+01 4.836E+05 16.8577 1.00000
  3.500E+06 3.500E+06 2.799E+00 4.416E+00 6.286E+00 1.482E+00 1.219E+01 1.498E+01 5.193E+05 17.1660 1.00000
  4.000E+06 4.000E+06 2.814E+00 5.080E+00 7.217E+00 1.713E+00 1.401E+01 1.682E+01 5.509E+05 17.4330 1.00000
  4.500E+06 4.500E+06 2.827E+00 5.746E+00 8.149E+00 1.947E+00 1.584E+01 1.867E+01 5.791E+05 17.6686 1.00000
  5.000E+06 5.000E+06 2.838E+00 6.413E+00 9.082E+00 2.183E+00 1.768E+01 2.052E+01 6.047E+05 17.8793 1.00000
  5.500E+06 5.500E+06 2.849E+00 7.083E+00 1.002E+01 2.421E+00 1.952E+01 2.237E+01 6.280E+05 18.0699 1.00000
  6.000E+06 6.000E+06 2.858E+00 7.753E+00 1.095E+01 2.662E+00 2.137E+01 2.422E+01 6.495E+05 18.2440 1.00000
  7.000E+06 7.000E+06 2.876E+00 9.097E+00 1.282E+01 3.150E+00 2.507E+01 2.794E+01 6.881E+05 18.5522 1.00000
  8.000E+06 8.000E+06 2.891E+00 1.044E+01 1.470E+01 3.645E+00 2.879E+01 3.168E+01 7.218E+05 18.8193 1.00000
  9.000E+06 9.000E+06 2.904E+00 1.180E+01 1.657E+01 4.146E+00 3.251E+01 3.542E+01 7.517E+05 19.0549 1.00000
  1.000E+07 1.000E+07 2.916E+00 1.315E+01 1.845E+01 4.654E+00 3.625E+01 3.917E+01 7.785E+05 19.2656 1.00000
  1.200E+07 1.200E+07 2.937E+00 1.586E+01 2.220E+01 5.684E+00 4.375E+01 4.668E+01 8.255E+05 19.6302 1.00000
  1.400E+07 1.400E+07 2.954E+00 1.858E+01 2.596E+01 6.733E+00 5.127E+01 5.423E+01 8.654E+05 19.9385 1.00000
  1.700E+07 1.700E+07 2.977E+00 2.266E+01 3.161E+01 8.336E+00 6.260E+01 6.558E+01 9.159E+05 20.3268 1.00000
  2.000E+07 2.000E+07 2.996E+00 2.675E+01 3.725E+01 9.969E+00 7.397E+01 7.697E+01 9.583E+05 20.6519 1.00000
  2.500E+07 2.500E+07 3.022E+00 3.358E+01 4.667E+01 1.275E+01 9.300E+01 9.602E+01 1.017E+06 21.0982 1.00000
  3.000E+07 3.000E+07 3.044E+00 4.041E+01 5.609E+01 1.559E+01 1.121E+02 1.151E+02 1.065E+06 21.4628 1.00000
  3.500E+07 3.500E+07 3.062E+00 4.726E+01 6.552E+01 1.849E+01 1.313E+02 1.343E+02 1.105E+06 21.7711 1.00000
  4.000E+07 4.000E+07 3.078E+00 5.410E+01 7.494E+01 2.143E+01 1.505E+02 1.536E+02 1.140E+06 22.0382 1.00000
  4.500E+07 4.500E+07 3.092E+00 6.096E+01 8.437E+01 2.441E+01 1.697E+02 1.728E+02 1.170E+06 22.2737 1.00000
  5.000E+07 5.000E+07 3.105E+00 6.781E+01 9.380E+01 2.743E+01 1.890E+02 1.922E+02 1.198E+06 22.4844 1.00000
  5.500E+07 5.500E+07 3.117E+00 7.467E+01 1.032E+02 3.048E+01 2.084E+02 2.115E+02 1.223E+06 22.6751 1.00000
  6.000E+07 6.000E+07 3.128E+00 8.154E+01 1.127E+02 3.357E+01 2.278E+02 2.309E+02 1.245E+06 22.8491 1.00000
  7.000E+07 7.000E+07 3.147E+00 9.526E+01 1.315E+02 3.982E+01 2.666E+02 2.698E+02 1.286E+06 23.1574 1.00000
  8.000E+07 8.000E+07 3.163E+00 1.090E+02 1.504E+02 4.618E+01 3.056E+02 3.087E+02 1.320E+06 23.4245 1.00000
  9.000E+07 9.000E+07 3.178E+00 1.227E+02 1.693E+02 5.262E+01 3.446E+02 3.478E+02 1.351E+06 23.6600 1.00000
  1.000E+08 1.000E+08 3.191E+00 1.365E+02 1.881E+02 5.915E+01 3.838E+02 3.870E+02 1.378E+06 23.8707 1.00000
  1.200E+08 1.200E+08 3.214E+00 1.640E+02 2.259E+02 7.242E+01 4.623E+02 4.655E+02 1.426E+06 24.2354 1.00000
  1.400E+08 1.400E+08 3.234E+00 1.915E+02 2.636E+02 8.594E+01 5.411E+02 5.443E+02 1.465E+06 24.5437 1.00000
  1.700E+08 1.700E+08 3.259E+00 2.327E+02 3.203E+02 1.066E+02 6.597E+02 6.629E+02 1.516E+06 24.9320 1.00000
  2.000E+08 2.000E+08 3.280E+00 2.740E+02 3.769E+02 1.277E+02 7.787E+02 7.820E+02 1.557E+06 25.2570 1.00000
  2.500E+08 2.500E+08 3.310E+00 3.428E+02 4.713E+02 1.637E+02 9.779E+02 9.812E+02 1.615E+06 25.7033 1.00000
  3.000E+08 3.000E+08 3.334E+00 4.116E+02 5.657E+02 2.006E+02 1.178E+03 1.181E+03 1.661E+06 26.0680 1.00000
  3.500E+08 3.500E+08 3.354E+00 4.805E+02 6.601E+02 2.381E+02 1.379E+03 1.382E+03 1.701E+06 26.3763 1.00000
  4.000E+08 4.000E+08 3.372E+00 5.493E+02 7.545E+02 2.763E+02 1.580E+03 1.583E+03 1.735E+06 26.6433 1.00000
  4.500E+08 4.500E+08 3.388E+00 6.181E+02 8.489E+02 3.151E+02 1.782E+03 1.785E+03 1.764E+06 26.8789 1.00000
  5.000E+08 5.000E+08 3.403E+00 6.870E+02 9.433E+02 3.543E+02 1.985E+03 1.988E+03 1.791E+06 27.0896 1.00000
  5.500E+08 5.500E+08 3.416E+00 7.558E+02 1.038E+03 3.941E+02 2.188E+03 2.191E+03 1.815E+06 27.2802 1.00000
  6.000E+08 6.000E+08 3.428E+00 8.247E+02 1.132E+03 4.342E+02 2.391E+03 2.394E+03 1.837E+06 27.4543 1.00000
  7.000E+08 7.000E+08 3.449E+00 9.623E+02 1.321E+03 5.157E+02 2.799E+03 2.802E+03 1.876E+06 27.7626 1.00000
  8.000E+08 8.000E+08 3.468E+00 1.100E+03 1.510E+03 5.985E+02 3.208E+03 3.212E+03 1.909E+06 28.0296 1.00000
  9.000E+08 9.000E+08 3.484E+00 1.238E+03 1.698E+03 6.826E+02 3.619E+03 3.622E+03 1.938E+06 28.2652 1.00000
  1.000E+09 1.000E+09 3.499E+00 1.375E+03 1.887E+03 7.678E+02 4.030E+03 4.034E+03 1.965E+06 28.4759 1.00000
