 Incident particle is a Muon with M = 105.65839 MeV
 Index = 0: SodiumCarbonate
      Absorber with <Z/A> = 0.49062
 Sternheimer coef:  a     k=m_s   x_0    x_1    I[eV]   Cbar  delta0
                 0.0872  3.5638  0.1287  2.8591  125.0  3.7178 0.00

 *** Table generated with PUMAS v1.00 ***

      T         p     Ionization  brems     pair     photonuc  Radloss    dE/dx   CSDA Range  delta   beta
    [MeV]    [MeV/c]  -----------------------[MeV cm^2/g]------------------------  [g/cm^2]
  1.000E+00 1.457E+01 4.055E+01 9.267E-07 0.000E+00 0.000E+00 9.267E-07 4.055E+01 1.233E-02  0.0000 0.13661
  1.200E+00 1.597E+01 3.510E+01 1.064E-06 0.000E+00 0.000E+00 1.064E-06 3.510E+01 1.765E-02  0.0000 0.14944
  1.400E+00 1.726E+01 3.105E+01 1.194E-06 0.000E+00 0.000E+00 1.194E-06 3.105E+01 2.372E-02  0.0000 0.16119
  1.700E+00 1.903E+01 2.659E+01 1.380E-06 0.000E+00 0.000E+00 1.380E-06 2.659E+01 3.419E-02  0.0000 0.17725
  2.000E+00 2.066E+01 2.334E+01 1.557E-06 0.000E+00 0.000E+00 1.557E-06 2.334E+01 4.626E-02  0.0000 0.19186
  2.500E+00 2.312E+01 1.952E+01 1.833E-06 0.000E+00 0.000E+00 1.833E-06 1.952E+01 6.978E-02  0.0000 0.21376
  3.000E+00 2.536E+01 1.686E+01 2.091E-06 0.000E+00 0.000E+00 2.091E-06 1.686E+01 9.741E-02  0.0000 0.23336
  3.500E+00 2.742E+01 1.491E+01 2.334E-06 0.000E+00 0.000E+00 2.334E-06 1.491E+01 1.290E-01  0.0000 0.25120
  4.000E+00 2.935E+01 1.340E+01 2.565E-06 0.000E+00 0.000E+00 2.565E-06 1.340E+01 1.644E-01  0.0000 0.26763
  4.500E+00 3.116E+01 1.220E+01 2.785E-06 0.000E+00 0.000E+00 2.785E-06 1.220E+01 2.036E-01  0.0000 0.28290
  5.000E+00 3.289E+01 1.123E+01 2.996E-06 0.000E+00 0.000E+00 2.996E-06 1.123E+01 2.463E-01  0.0000 0.29720
  5.500E+00 3.453E+01 1.041E+01 3.199E-06 0.000E+00 0.000E+00 3.199E-06 1.041E+01 2.926E-01  0.0000 0.31066
  6.000E+00 3.611E+01 9.727E+00 3.394E-06 0.000E+00 0.000E+00 3.394E-06 9.727E+00 3.423E-01  0.0000 0.32339
  7.000E+00 3.909E+01 8.627E+00 3.766E-06 0.000E+00 0.000E+00 3.766E-06 8.627E+00 4.517E-01  0.0000 0.34700
  8.000E+00 4.189E+01 7.784E+00 4.116E-06 0.000E+00 0.000E+00 4.116E-06 7.784E+00 5.739E-01  0.0000 0.36854
  9.000E+00 4.453E+01 7.117E+00 4.448E-06 0.000E+00 0.000E+00 4.448E-06 7.117E+00 7.084E-01  0.0000 0.38836
  1.000E+01 4.704E+01 6.575E+00 4.764E-06 0.000E+00 0.000E+00 4.764E-06 6.575E+00 8.547E-01  0.0000 0.40675
  1.200E+01 5.177E+01 5.746E+00 5.359E-06 0.000E+00 0.000E+00 5.359E-06 5.746E+00 1.181E+00  0.0000 0.43998
  1.400E+01 5.616E+01 5.142E+00 5.912E-06 0.000E+00 0.000E+00 5.912E-06 5.142E+00 1.549E+00  0.0000 0.46937
  1.700E+01 6.230E+01 4.490E+00 6.684E-06 0.000E+00 0.000E+00 6.684E-06 4.490E+00 2.175E+00  0.0000 0.50792
  2.000E+01 6.802E+01 4.026E+00 7.402E-06 0.000E+00 0.000E+00 7.402E-06 4.026E+00 2.882E+00  0.0000 0.54129
  2.500E+01 7.686E+01 3.492E+00 8.517E-06 0.000E+00 0.000E+00 8.517E-06 3.492E+00 4.219E+00  0.0000 0.58827
  3.000E+01 8.509E+01 3.131E+00 9.561E-06 0.000E+00 0.000E+00 9.561E-06 3.131E+00 5.733E+00  0.0000 0.62720
  3.500E+01 9.285E+01 2.873E+00 1.056E-05 0.000E+00 0.000E+00 1.056E-05 2.873E+00 7.402E+00  0.0000 0.66011
  4.000E+01 1.003E+02 2.679E+00 1.153E-05 0.000E+00 0.000E+00 1.153E-05 2.679E+00 9.205E+00  0.0000 0.68834
  4.500E+01 1.074E+02 2.528E+00 1.248E-05 0.000E+00 0.000E+00 1.248E-05 2.528E+00 1.113E+01  0.0000 0.71286
  5.000E+01 1.143E+02 2.408E+00 1.341E-05 0.000E+00 0.000E+00 1.341E-05 2.408E+00 1.315E+01  0.0000 0.73434
  5.500E+01 1.210E+02 2.311E+00 1.434E-05 0.000E+00 0.000E+00 1.434E-05 2.311E+00 1.527E+01  0.0000 0.75332
  6.000E+01 1.276E+02 2.231E+00 1.527E-05 0.000E+00 0.000E+00 1.527E-05 2.231E+00 1.748E+01  0.0000 0.77019
  7.000E+01 1.403E+02 2.108E+00 1.712E-05 0.000E+00 0.000E+00 1.712E-05 2.108E+00 2.209E+01  0.0000 0.79887
  8.000E+01 1.527E+02 2.017E+00 1.898E-05 0.000E+00 0.000E+00 1.898E-05 2.017E+00 2.694E+01  0.0201 0.82227
  9.000E+01 1.647E+02 1.948E+00 2.087E-05 0.000E+00 0.000E+00 2.087E-05 1.948E+00 3.198E+01  0.0433 0.84166
  1.000E+02 1.764E+02 1.895E+00 2.279E-05 0.000E+00 0.000E+00 2.279E-05 1.895E+00 3.719E+01  0.0678 0.85794
  1.200E+02 1.994E+02 1.820E+00 2.672E-05 0.000E+00 0.000E+00 2.672E-05 1.820E+00 4.796E+01  0.1193 0.88361
  1.400E+02 2.218E+02 1.771E+00 3.080E-05 0.000E+00 0.000E+00 3.080E-05 1.771E+00 5.911E+01  0.1722 0.90278
  1.700E+02 2.546E+02 1.727E+00 3.718E-05 2.732E-14 0.000E+00 3.718E-05 1.727E+00 7.626E+01  0.2516 0.92363
  2.000E+02 2.868E+02 1.703E+00 4.387E-05 1.235E-11 0.000E+00 4.387E-05 1.703E+00 9.375E+01  0.3297 0.93835
  2.500E+02 3.396E+02 1.684E+00 5.569E-05 1.007E-07 0.000E+00 5.579E-05 1.684E+00 1.233E+02  0.4550 0.95485
  3.000E+02 3.917E+02 1.681E+00 6.827E-05 9.107E-07 0.000E+00 6.918E-05 1.681E+00 1.530E+02  0.5735 0.96548
  3.500E+02 4.432E+02 1.684E+00 8.155E-05 2.519E-06 0.000E+00 8.407E-05 1.684E+00 1.827E+02  0.6854 0.97274
  4.000E+02 4.945E+02 1.690E+00 9.546E-05 4.891E-06 0.000E+00 1.004E-04 1.690E+00 2.124E+02  0.7911 0.97793
  4.500E+02 5.455E+02 1.699E+00 1.100E-04 7.998E-06 0.000E+00 1.180E-04 1.699E+00 2.419E+02  0.8912 0.98176
  5.000E+02 5.964E+02 1.708E+00 1.250E-04 1.181E-05 0.000E+00 1.368E-04 1.708E+00 2.712E+02  0.9862 0.98467
  5.500E+02 6.471E+02 1.718E+00 1.406E-04 1.631E-05 0.000E+00 1.569E-04 1.718E+00 3.004E+02  1.0765 0.98693
  6.000E+02 6.977E+02 1.727E+00 1.566E-04 2.147E-05 0.000E+00 1.781E-04 1.727E+00 3.294E+02  1.1626 0.98873
  7.000E+02 7.987E+02 1.746E+00 1.900E-04 3.369E-05 0.000E+00 2.237E-04 1.746E+00 3.870E+02  1.3237 0.99136
  8.000E+02 8.995E+02 1.764E+00 2.250E-04 4.829E-05 0.000E+00 2.733E-04 1.764E+00 4.440E+02  1.4720 0.99317
  9.000E+02 1.000E+03 1.780E+00 2.615E-04 6.513E-05 0.000E+00 3.266E-04 1.781E+00 5.004E+02  1.6092 0.99447
  1.000E+03 1.101E+03 1.796E+00 2.992E-04 8.407E-05 0.000E+00 3.833E-04 1.796E+00 5.563E+02  1.7371 0.99542
  1.200E+03 1.301E+03 1.823E+00 3.783E-04 1.278E-04 2.254E-05 5.287E-04 1.824E+00 6.668E+02  1.9694 0.99672
  1.400E+03 1.502E+03 1.847E+00 4.617E-04 1.786E-04 6.165E-05 7.019E-04 1.848E+00 7.758E+02  2.1764 0.99753
  1.700E+03 1.803E+03 1.878E+00 5.935E-04 2.666E-04 1.320E-04 9.921E-04 1.879E+00 9.368E+02  2.4500 0.99829
  2.000E+03 2.103E+03 1.903E+00 7.323E-04 3.671E-04 2.150E-04 1.314E-03 1.905E+00 1.095E+03  2.6896 0.99874
  2.500E+03 2.604E+03 1.939E+00 9.772E-04 5.590E-04 3.753E-04 1.911E-03 1.940E+00 1.355E+03  3.0331 0.99918
  3.000E+03 3.104E+03 1.967E+00 1.236E-03 7.768E-04 5.437E-04 2.557E-03 1.970E+00 1.611E+03  3.3253 0.99942
  3.500E+03 3.604E+03 1.991E+00 1.507E-03 1.017E-03 7.223E-04 3.246E-03 1.994E+00 1.864E+03  3.5799 0.99957
  4.000E+03 4.104E+03 2.011E+00 1.788E-03 1.290E-03 9.131E-04 3.992E-03 2.015E+00 2.113E+03  3.8056 0.99967
  4.500E+03 4.604E+03 2.029E+00 2.079E-03 1.587E-03 1.112E-03 4.778E-03 2.033E+00 2.360E+03  4.0084 0.99974
  5.000E+03 5.105E+03 2.044E+00 2.378E-03 1.902E-03 1.303E-03 5.582E-03 2.050E+00 2.605E+03  4.1925 0.99979
  5.500E+03 5.605E+03 2.058E+00 2.684E-03 2.232E-03 1.509E-03 6.425E-03 2.065E+00 2.848E+03  4.3612 0.99982
  6.000E+03 6.105E+03 2.071E+00 2.998E-03 2.577E-03 1.700E-03 7.275E-03 2.078E+00 3.089E+03  4.5168 0.99985
  7.000E+03 7.105E+03 2.093E+00 3.643E-03 3.307E-03 2.107E-03 9.057E-03 2.102E+00 3.568E+03  4.7962 0.99989
  8.000E+03 8.105E+03 2.111E+00 4.310E-03 4.083E-03 2.512E-03 1.090E-02 2.122E+00 4.041E+03  5.0417 0.99992
  9.000E+03 9.105E+03 2.127E+00 4.997E-03 4.900E-03 2.892E-03 1.279E-02 2.140E+00 4.511E+03  5.2607 0.99993
  1.000E+04 1.011E+04 2.142E+00 5.701E-03 5.755E-03 3.285E-03 1.474E-02 2.156E+00 4.976E+03  5.4583 0.99995
  1.200E+04 1.211E+04 2.166E+00 7.153E-03 7.559E-03 4.083E-03 1.880E-02 2.184E+00 5.898E+03  5.8039 0.99996
  1.400E+04 1.411E+04 2.185E+00 8.658E-03 9.474E-03 4.882E-03 2.301E-02 2.209E+00 6.808E+03  6.0993 0.99997
  1.700E+04 1.711E+04 2.210E+00 1.100E-02 1.252E-02 6.069E-03 2.958E-02 2.239E+00 8.157E+03  6.4748 0.99998
  2.000E+04 2.011E+04 2.230E+00 1.342E-02 1.573E-02 7.234E-03 3.639E-02 2.266E+00 9.489E+03  6.7918 0.99999
  2.500E+04 2.511E+04 2.256E+00 1.761E-02 2.141E-02 9.150E-03 4.817E-02 2.304E+00 1.168E+04  7.2300 0.99999
  3.000E+04 3.011E+04 2.277E+00 2.195E-02 2.739E-02 1.103E-02 6.038E-02 2.338E+00 1.383E+04  7.5902 0.99999
  3.500E+04 3.511E+04 2.295E+00 2.643E-02 3.363E-02 1.294E-02 7.300E-02 2.368E+00 1.596E+04  7.8958 1.00000
  4.000E+04 4.011E+04 2.310E+00 3.101E-02 4.009E-02 1.482E-02 8.592E-02 2.396E+00 1.806E+04  8.1612 1.00000
  4.500E+04 4.511E+04 2.323E+00 3.568E-02 4.672E-02 1.669E-02 9.909E-02 2.422E+00 2.013E+04  8.3958 1.00000
  5.000E+04 5.011E+04 2.334E+00 4.044E-02 5.352E-02 1.855E-02 1.125E-01 2.447E+00 2.219E+04  8.6058 1.00000
  5.500E+04 5.511E+04 2.344E+00 4.527E-02 6.045E-02 2.043E-02 1.261E-01 2.470E+00 2.422E+04  8.7959 1.00000
  6.000E+04 6.011E+04 2.354E+00 5.017E-02 6.750E-02 2.228E-02 1.400E-01 2.493E+00 2.623E+04  8.9695 1.00000
  7.000E+04 7.011E+04 2.370E+00 6.014E-02 8.193E-02 2.598E-02 1.680E-01 2.538E+00 3.021E+04  9.2773 1.00000
  8.000E+04 8.011E+04 2.384E+00 7.032E-02 9.672E-02 2.968E-02 1.967E-01 2.580E+00 3.412E+04  9.5440 1.00000
  9.000E+04 9.011E+04 2.396E+00 8.066E-02 1.118E-01 3.339E-02 2.259E-01 2.622E+00 3.796E+04  9.7793 1.00000
  1.000E+05 1.001E+05 2.407E+00 9.117E-02 1.272E-01 3.702E-02 2.554E-01 2.662E+00 4.175E+04  9.9897 1.00000
  1.200E+05 1.201E+05 2.425E+00 1.126E-01 1.585E-01 4.444E-02 3.155E-01 2.741E+00 4.915E+04 10.3540 1.00000
  1.400E+05 1.401E+05 2.441E+00 1.344E-01 1.906E-01 5.185E-02 3.768E-01 2.818E+00 5.635E+04 10.6621 1.00000
  1.700E+05 1.701E+05 2.461E+00 1.678E-01 2.397E-01 6.299E-02 4.705E-01 2.931E+00 6.679E+04 11.0501 1.00000
  2.000E+05 2.001E+05 2.477E+00 2.019E-01 2.898E-01 7.420E-02 5.659E-01 3.043E+00 7.684E+04 11.3750 1.00000
  2.500E+05 2.501E+05 2.500E+00 2.599E-01 3.749E-01 9.295E-02 7.277E-01 3.227E+00 9.280E+04 11.8211 1.00000
  3.000E+05 3.001E+05 2.518E+00 3.189E-01 4.615E-01 1.118E-01 8.923E-01 3.410E+00 1.079E+05 12.1856 1.00000
  3.500E+05 3.501E+05 2.533E+00 3.789E-01 5.493E-01 1.310E-01 1.059E+00 3.593E+00 1.222E+05 12.4938 1.00000
  4.000E+05 4.001E+05 2.547E+00 4.396E-01 6.380E-01 1.502E-01 1.228E+00 3.775E+00 1.357E+05 12.7607 1.00000
  4.500E+05 4.501E+05 2.559E+00 5.010E-01 7.274E-01 1.695E-01 1.398E+00 3.957E+00 1.487E+05 12.9963 1.00000
  5.000E+05 5.001E+05 2.569E+00 5.628E-01 8.174E-01 1.891E-01 1.569E+00 4.139E+00 1.610E+05 13.2069 1.00000
  5.500E+05 5.501E+05 2.579E+00 6.252E-01 9.080E-01 2.084E-01 1.742E+00 4.320E+00 1.729E+05 13.3975 1.00000
  6.000E+05 6.001E+05 2.588E+00 6.879E-01 9.990E-01 2.279E-01 1.915E+00 4.503E+00 1.842E+05 13.5715 1.00000
  7.000E+05 7.001E+05 2.603E+00 8.145E-01 1.182E+00 2.672E-01 2.264E+00 4.867E+00 2.056E+05 13.8798 1.00000
  8.000E+05 8.001E+05 2.617E+00 9.422E-01 1.366E+00 3.069E-01 2.616E+00 5.232E+00 2.254E+05 14.1468 1.00000
  9.000E+05 9.001E+05 2.629E+00 1.071E+00 1.552E+00 3.470E-01 2.970E+00 5.599E+00 2.439E+05 14.3823 1.00000
  1.000E+06 1.000E+06 2.640E+00 1.200E+00 1.738E+00 3.875E-01 3.326E+00 5.965E+00 2.612E+05 14.5930 1.00000
  1.200E+06 1.200E+06 2.659E+00 1.461E+00 2.112E+00 4.695E-01 4.043E+00 6.701E+00 2.929E+05 14.9576 1.00000
  1.400E+06 1.400E+06 2.675E+00 1.725E+00 2.488E+00 5.526E-01 4.765E+00 7.440E+00 3.213E+05 15.2659 1.00000
  1.700E+06 1.700E+06 2.695E+00 2.123E+00 3.054E+00 6.793E-01 5.857E+00 8.551E+00 3.590E+05 15.6542 1.00000
  2.000E+06 2.000E+06 2.712E+00 2.524E+00 3.624E+00 8.080E-01 6.955E+00 9.667E+00 3.920E+05 15.9792 1.00000
  2.500E+06 2.500E+06 2.735E+00 3.198E+00 4.576E+00 1.026E+00 8.800E+00 1.154E+01 4.396E+05 16.4255 1.00000
  3.000E+06 3.000E+06 2.755E+00 3.876E+00 5.532E+00 1.249E+00 1.066E+01 1.341E+01 4.799E+05 16.7901 1.00000
  3.500E+06 3.500E+06 2.771E+00 4.558E+00 6.490E+00 1.475E+00 1.252E+01 1.529E+01 5.149E+05 17.0984 1.00000
  4.000E+06 4.000E+06 2.786E+00 5.242E+00 7.450E+00 1.705E+00 1.440E+01 1.718E+01 5.458E+05 17.3654 1.00000
  4.500E+06 4.500E+06 2.799E+00 5.929E+00 8.412E+00 1.937E+00 1.628E+01 1.908E+01 5.734E+05 17.6010 1.00000
  5.000E+06 5.000E+06 2.810E+00 6.618E+00 9.375E+00 2.173E+00 1.817E+01 2.098E+01 5.984E+05 17.8117 1.00000
  5.500E+06 5.500E+06 2.821E+00 7.308E+00 1.034E+01 2.410E+00 2.006E+01 2.288E+01 6.213E+05 18.0023 1.00000
  6.000E+06 6.000E+06 2.830E+00 7.999E+00 1.130E+01 2.650E+00 2.195E+01 2.478E+01 6.423E+05 18.1764 1.00000
  7.000E+06 7.000E+06 2.847E+00 9.385E+00 1.324E+01 3.135E+00 2.576E+01 2.860E+01 6.800E+05 18.4846 1.00000
  8.000E+06 8.000E+06 2.862E+00 1.078E+01 1.517E+01 3.628E+00 2.957E+01 3.243E+01 7.128E+05 18.7517 1.00000
  9.000E+06 9.000E+06 2.875E+00 1.217E+01 1.710E+01 4.127E+00 3.340E+01 3.627E+01 7.420E+05 18.9873 1.00000
  1.000E+07 1.000E+07 2.887E+00 1.356E+01 1.904E+01 4.632E+00 3.724E+01 4.012E+01 7.683E+05 19.1980 1.00000
  1.200E+07 1.200E+07 2.908E+00 1.636E+01 2.292E+01 5.657E+00 4.493E+01 4.784E+01 8.141E+05 19.5626 1.00000
  1.400E+07 1.400E+07 2.925E+00 1.916E+01 2.680E+01 6.701E+00 5.266E+01 5.558E+01 8.530E+05 19.8709 1.00000
  1.700E+07 1.700E+07 2.947E+00 2.337E+01 3.262E+01 8.296E+00 6.429E+01 6.723E+01 9.023E+05 20.2592 1.00000
  2.000E+07 2.000E+07 2.966E+00 2.759E+01 3.845E+01 9.922E+00 7.596E+01 7.892E+01 9.436E+05 20.5843 1.00000
  2.500E+07 2.500E+07 2.992E+00 3.463E+01 4.816E+01 1.269E+01 9.548E+01 9.847E+01 1.001E+06 21.0306 1.00000
  3.000E+07 3.000E+07 3.014E+00 4.168E+01 5.789E+01 1.552E+01 1.151E+02 1.181E+02 1.047E+06 21.3952 1.00000
  3.500E+07 3.500E+07 3.032E+00 4.873E+01 6.761E+01 1.840E+01 1.347E+02 1.378E+02 1.087E+06 21.7035 1.00000
  4.000E+07 4.000E+07 3.048E+00 5.579E+01 7.734E+01 2.133E+01 1.545E+02 1.575E+02 1.121E+06 21.9706 1.00000
  4.500E+07 4.500E+07 3.062E+00 6.286E+01 8.707E+01 2.430E+01 1.742E+02 1.773E+02 1.151E+06 22.2061 1.00000
  5.000E+07 5.000E+07 3.075E+00 6.993E+01 9.680E+01 2.730E+01 1.940E+02 1.971E+02 1.177E+06 22.4168 1.00000
  5.500E+07 5.500E+07 3.087E+00 7.700E+01 1.065E+02 3.034E+01 2.139E+02 2.170E+02 1.202E+06 22.6075 1.00000
  6.000E+07 6.000E+07 3.097E+00 8.408E+01 1.163E+02 3.341E+01 2.337E+02 2.368E+02 1.224E+06 22.7815 1.00000
  7.000E+07 7.000E+07 3.116E+00 9.823E+01 1.357E+02 3.963E+01 2.736E+02 2.767E+02 1.263E+06 23.0898 1.00000
  8.000E+07 8.000E+07 3.133E+00 1.124E+02 1.552E+02 4.596E+01 3.136E+02 3.167E+02 1.297E+06 23.3569 1.00000
  9.000E+07 9.000E+07 3.147E+00 1.266E+02 1.747E+02 5.237E+01 3.536E+02 3.567E+02 1.326E+06 23.5924 1.00000
  1.000E+08 1.000E+08 3.161E+00 1.407E+02 1.942E+02 5.887E+01 3.937E+02 3.969E+02 1.353E+06 23.8031 1.00000
  1.200E+08 1.200E+08 3.184E+00 1.691E+02 2.331E+02 7.207E+01 4.742E+02 4.774E+02 1.399E+06 24.1678 1.00000
  1.400E+08 1.400E+08 3.203E+00 1.974E+02 2.721E+02 8.553E+01 5.550E+02 5.582E+02 1.438E+06 24.4761 1.00000
  1.700E+08 1.700E+08 3.228E+00 2.400E+02 3.305E+02 1.061E+02 6.766E+02 6.798E+02 1.487E+06 24.8644 1.00000
  2.000E+08 2.000E+08 3.249E+00 2.825E+02 3.889E+02 1.271E+02 7.986E+02 8.018E+02 1.528E+06 25.1894 1.00000
  2.500E+08 2.500E+08 3.278E+00 3.534E+02 4.863E+02 1.630E+02 1.003E+03 1.006E+03 1.584E+06 25.6357 1.00000
  3.000E+08 3.000E+08 3.302E+00 4.244E+02 5.837E+02 1.996E+02 1.208E+03 1.211E+03 1.629E+06 26.0004 1.00000
  3.500E+08 3.500E+08 3.322E+00 4.953E+02 6.811E+02 2.370E+02 1.413E+03 1.417E+03 1.668E+06 26.3087 1.00000
  4.000E+08 4.000E+08 3.340E+00 5.663E+02 7.786E+02 2.750E+02 1.620E+03 1.623E+03 1.701E+06 26.5757 1.00000
  4.500E+08 4.500E+08 3.356E+00 6.373E+02 8.760E+02 3.136E+02 1.827E+03 1.830E+03 1.730E+06 26.8113 1.00000
  5.000E+08 5.000E+08 3.370E+00 7.082E+02 9.734E+02 3.526E+02 2.034E+03 2.038E+03 1.756E+06 27.0220 1.00000
  5.500E+08 5.500E+08 3.383E+00 7.792E+02 1.071E+03 3.922E+02 2.242E+03 2.246E+03 1.779E+06 27.2126 1.00000
  6.000E+08 6.000E+08 3.395E+00 8.502E+02 1.168E+03 4.321E+02 2.450E+03 2.454E+03 1.800E+06 27.3867 1.00000
  7.000E+08 7.000E+08 3.416E+00 9.921E+02 1.363E+03 5.132E+02 2.868E+03 2.872E+03 1.838E+06 27.6950 1.00000
  8.000E+08 8.000E+08 3.435E+00 1.134E+03 1.558E+03 5.956E+02 3.288E+03 3.291E+03 1.871E+06 27.9620 1.00000
  9.000E+08 9.000E+08 3.451E+00 1.276E+03 1.753E+03 6.793E+02 3.708E+03 3.711E+03 1.899E+06 28.1976 1.00000
  1.000E+09 1.000E+09 3.466E+00 1.418E+03 1.947E+03 7.641E+02 4.130E+03 4.133E+03 1.925E+06 28.4083 1.00000
