 Incident particle is a Muon with M = 105.65839 MeV
 Index = 0: SodiumIodide
      Absorber with <Z/A> = 0.42697
 Sternheimer coef:  a     k=m_s   x_0    x_1    I[eV]   Cbar  delta0
                 0.1252  3.0398  0.1203  3.5920  452.0  6.0572 0.00

 *** Table generated with PUMAS v1.00 ***

      T         p     Ionization  brems     pair     photonuc  Radloss    dE/dx   CSDA Range  delta   beta
    [MeV]    [MeV/c]  -----------------------[MeV cm^2/g]------------------------  [g/cm^2]
  1.000E+00 1.457E+01 2.626E+01 3.501E-06 0.000E+00 0.000E+00 3.501E-06 2.626E+01 1.904E-02  0.0000 0.13661
  1.200E+00 1.597E+01 2.300E+01 4.022E-06 0.000E+00 0.000E+00 4.022E-06 2.300E+01 2.720E-02  0.0000 0.14944
  1.400E+00 1.726E+01 2.053E+01 4.517E-06 0.000E+00 0.000E+00 4.517E-06 2.053E+01 3.642E-02  0.0000 0.16119
  1.700E+00 1.903E+01 1.777E+01 5.217E-06 0.000E+00 0.000E+00 5.217E-06 1.777E+01 5.216E-02  0.0000 0.17725
  2.000E+00 2.066E+01 1.573E+01 5.875E-06 0.000E+00 0.000E+00 5.875E-06 1.573E+01 7.014E-02  0.0000 0.19186
  2.500E+00 2.312E+01 1.330E+01 6.897E-06 0.000E+00 0.000E+00 6.897E-06 1.330E+01 1.048E-01  0.0000 0.21376
  3.000E+00 2.536E+01 1.158E+01 7.844E-06 0.000E+00 0.000E+00 7.844E-06 1.158E+01 1.452E-01  0.0000 0.23336
  3.500E+00 2.742E+01 1.030E+01 8.729E-06 0.000E+00 0.000E+00 8.729E-06 1.030E+01 1.911E-01  0.0000 0.25120
  4.000E+00 2.935E+01 9.308E+00 9.563E-06 0.000E+00 0.000E+00 9.563E-06 9.308E+00 2.422E-01  0.0000 0.26763
  4.500E+00 3.116E+01 8.513E+00 1.035E-05 0.000E+00 0.000E+00 1.035E-05 8.513E+00 2.984E-01  0.0000 0.28290
  5.000E+00 3.289E+01 7.861E+00 1.111E-05 0.000E+00 0.000E+00 1.111E-05 7.861E+00 3.596E-01  0.0000 0.29720
  5.500E+00 3.453E+01 7.316E+00 1.182E-05 0.000E+00 0.000E+00 1.182E-05 7.316E+00 4.256E-01  0.0000 0.31066
  6.000E+00 3.611E+01 6.853E+00 1.251E-05 0.000E+00 0.000E+00 1.251E-05 6.853E+00 4.962E-01  0.0000 0.32339
  7.000E+00 3.909E+01 6.108E+00 1.382E-05 0.000E+00 0.000E+00 1.382E-05 6.108E+00 6.510E-01  0.0000 0.34700
  8.000E+00 4.189E+01 5.533E+00 1.504E-05 0.000E+00 0.000E+00 1.504E-05 5.533E+00 8.232E-01  0.0000 0.36854
  9.000E+00 4.453E+01 5.076E+00 1.619E-05 0.000E+00 0.000E+00 1.619E-05 5.076E+00 1.012E+00  0.0000 0.38836
  1.000E+01 4.704E+01 4.703E+00 1.728E-05 0.000E+00 0.000E+00 1.728E-05 4.703E+00 1.217E+00  0.0000 0.40675
  1.200E+01 5.177E+01 4.130E+00 1.931E-05 0.000E+00 0.000E+00 1.931E-05 4.130E+00 1.672E+00  0.0000 0.43998
  1.400E+01 5.616E+01 3.710E+00 2.119E-05 0.000E+00 0.000E+00 2.119E-05 3.710E+00 2.183E+00  0.0000 0.46937
  1.700E+01 6.230E+01 3.254E+00 2.379E-05 0.000E+00 0.000E+00 2.379E-05 3.254E+00 3.049E+00  0.0000 0.50792
  2.000E+01 6.802E+01 2.928E+00 2.620E-05 0.000E+00 0.000E+00 2.620E-05 2.928E+00 4.022E+00  0.0000 0.54129
  2.500E+01 7.686E+01 2.552E+00 2.994E-05 0.000E+00 0.000E+00 2.994E-05 2.552E+00 5.855E+00  0.0000 0.58827
  3.000E+01 8.509E+01 2.297E+00 3.344E-05 0.000E+00 0.000E+00 3.344E-05 2.297E+00 7.923E+00  0.0000 0.62720
  3.500E+01 9.285E+01 2.113E+00 3.679E-05 0.000E+00 0.000E+00 3.679E-05 2.113E+00 1.019E+01  0.0000 0.66011
  4.000E+01 1.003E+02 1.975E+00 4.004E-05 0.000E+00 0.000E+00 4.004E-05 1.975E+00 1.264E+01  0.0000 0.68834
  4.500E+01 1.074E+02 1.868E+00 4.324E-05 0.000E+00 0.000E+00 4.324E-05 1.868E+00 1.525E+01  0.0000 0.71286
  5.000E+01 1.143E+02 1.783E+00 4.640E-05 0.000E+00 0.000E+00 4.640E-05 1.783E+00 1.799E+01  0.0000 0.73434
  5.500E+01 1.210E+02 1.715E+00 4.955E-05 0.000E+00 0.000E+00 4.955E-05 1.715E+00 2.085E+01  0.0000 0.75332
  6.000E+01 1.276E+02 1.658E+00 5.269E-05 0.000E+00 0.000E+00 5.269E-05 1.658E+00 2.381E+01  0.0000 0.77019
  7.000E+01 1.403E+02 1.571E+00 5.901E-05 0.000E+00 0.000E+00 5.901E-05 1.571E+00 3.001E+01  0.0010 0.79887
  8.000E+01 1.527E+02 1.508E+00 6.541E-05 0.000E+00 0.000E+00 6.541E-05 1.508E+00 3.651E+01 -0.0046 0.82227
  9.000E+01 1.647E+02 1.462E+00 7.191E-05 0.000E+00 0.000E+00 7.191E-05 1.462E+00 4.324E+01 -0.0065 0.84166
  1.000E+02 1.764E+02 1.426E+00 7.852E-05 0.000E+00 0.000E+00 7.852E-05 1.427E+00 5.017E+01 -0.0057 0.85794
  1.200E+02 1.994E+02 1.378E+00 9.216E-05 0.000E+00 0.000E+00 9.216E-05 1.378E+00 6.444E+01  0.0019 0.88361
  1.400E+02 2.218E+02 1.347E+00 1.063E-04 0.000E+00 0.000E+00 1.063E-04 1.347E+00 7.912E+01  0.0148 0.90278
  1.700E+02 2.546E+02 1.322E+00 1.286E-04 0.000E+00 0.000E+00 1.286E-04 1.322E+00 1.016E+02  0.0398 0.92363
  2.000E+02 2.868E+02 1.310E+00 1.522E-04 2.205E-12 0.000E+00 1.522E-04 1.310E+00 1.244E+02  0.0690 0.93835
  2.500E+02 3.396E+02 1.305E+00 1.939E-04 1.785E-08 0.000E+00 1.939E-04 1.305E+00 1.626E+02  0.1222 0.95485
  3.000E+02 3.917E+02 1.310E+00 2.385E-04 1.637E-07 0.000E+00 2.387E-04 1.310E+00 2.009E+02  0.1776 0.96548
  3.500E+02 4.432E+02 1.318E+00 2.858E-04 4.547E-07 0.000E+00 2.862E-04 1.319E+00 2.389E+02  0.2333 0.97274
  4.000E+02 4.945E+02 1.329E+00 3.355E-04 1.289E-05 0.000E+00 3.484E-04 1.330E+00 2.767E+02  0.2883 0.97793
  4.500E+02 5.455E+02 1.341E+00 3.876E-04 3.221E-05 0.000E+00 4.198E-04 1.341E+00 3.141E+02  0.3422 0.98176
  5.000E+02 5.964E+02 1.353E+00 4.417E-04 4.885E-05 0.000E+00 4.905E-04 1.353E+00 3.512E+02  0.3949 0.98467
  5.500E+02 6.471E+02 1.364E+00 4.978E-04 6.812E-05 0.000E+00 5.659E-04 1.365E+00 3.880E+02  0.4461 0.98693
  6.000E+02 6.977E+02 1.375E+00 5.557E-04 9.022E-05 0.000E+00 6.459E-04 1.376E+00 4.245E+02  0.4959 0.98873
  7.000E+02 7.987E+02 1.397E+00 6.766E-04 1.427E-04 0.000E+00 8.193E-04 1.398E+00 4.966E+02  0.5913 0.99136
  8.000E+02 8.995E+02 1.417E+00 8.038E-04 2.055E-04 0.000E+00 1.009E-03 1.418E+00 5.677E+02  0.6813 0.99317
  9.000E+02 1.000E+03 1.435E+00 9.367E-04 2.781E-04 0.000E+00 1.215E-03 1.436E+00 6.378E+02  0.7665 0.99447
  1.000E+03 1.101E+03 1.452E+00 1.075E-03 3.599E-04 0.000E+00 1.435E-03 1.453E+00 7.070E+02  0.8473 0.99542
  1.200E+03 1.301E+03 1.481E+00 1.365E-03 5.487E-04 2.248E-05 1.936E-03 1.483E+00 8.432E+02  0.9973 0.99672
  1.400E+03 1.502E+03 1.507E+00 1.671E-03 7.684E-04 6.108E-05 2.500E-03 1.509E+00 9.769E+02  1.1341 0.99753
  1.700E+03 1.803E+03 1.539E+00 2.157E-03 1.149E-03 1.297E-04 3.436E-03 1.543E+00 1.174E+03  1.3192 0.99829
  2.000E+03 2.103E+03 1.567E+00 2.671E-03 1.585E-03 2.097E-04 4.465E-03 1.571E+00 1.366E+03  1.4849 0.99874
  2.500E+03 2.604E+03 1.604E+00 3.579E-03 2.415E-03 3.629E-04 6.357E-03 1.610E+00 1.681E+03  1.7279 0.99918
  3.000E+03 3.104E+03 1.634E+00 4.543E-03 3.358E-03 5.220E-04 8.422E-03 1.642E+00 1.988E+03  1.9394 0.99942
  3.500E+03 3.604E+03 1.659E+00 5.553E-03 4.397E-03 6.892E-04 1.064E-02 1.670E+00 2.290E+03  2.1270 0.99957
  4.000E+03 4.104E+03 1.681E+00 6.603E-03 5.531E-03 8.669E-04 1.300E-02 1.694E+00 2.587E+03  2.2958 0.99967
  4.500E+03 4.604E+03 1.699E+00 7.688E-03 6.745E-03 1.051E-03 1.548E-02 1.715E+00 2.881E+03  2.4493 0.99974
  5.000E+03 5.105E+03 1.715E+00 8.806E-03 8.028E-03 1.227E-03 1.806E-02 1.734E+00 3.171E+03  2.5904 0.99979
  5.500E+03 5.605E+03 1.730E+00 9.952E-03 9.373E-03 1.416E-03 2.074E-02 1.751E+00 3.458E+03  2.7208 0.99982
  6.000E+03 6.105E+03 1.743E+00 1.112E-02 1.077E-02 1.592E-03 2.349E-02 1.767E+00 3.742E+03  2.8423 0.99985
  7.000E+03 7.105E+03 1.766E+00 1.354E-02 1.373E-02 1.963E-03 2.923E-02 1.795E+00 4.304E+03  3.0628 0.99989
  8.000E+03 8.105E+03 1.786E+00 1.604E-02 1.686E-02 2.331E-03 3.523E-02 1.821E+00 4.857E+03  3.2591 0.99992
  9.000E+03 9.105E+03 1.802E+00 1.861E-02 2.015E-02 2.675E-03 4.144E-02 1.844E+00 5.402E+03  3.4363 0.99993
  1.000E+04 1.011E+04 1.817E+00 2.124E-02 2.358E-02 3.029E-03 4.786E-02 1.865E+00 5.942E+03  3.5978 0.99995
  1.200E+04 1.211E+04 1.842E+00 2.668E-02 3.081E-02 3.746E-03 6.123E-02 1.903E+00 7.003E+03  3.8839 0.99996
  1.400E+04 1.411E+04 1.862E+00 3.231E-02 3.844E-02 4.461E-03 7.521E-02 1.938E+00 8.045E+03  4.1319 0.99997
  1.700E+04 1.711E+04 1.887E+00 4.106E-02 5.052E-02 5.518E-03 9.710E-02 1.984E+00 9.575E+03  4.4520 0.99998
  2.000E+04 2.011E+04 1.907E+00 5.011E-02 6.323E-02 6.551E-03 1.199E-01 2.027E+00 1.107E+04  4.7261 0.99999
  2.500E+04 2.511E+04 1.934E+00 6.574E-02 8.553E-02 8.243E-03 1.595E-01 2.093E+00 1.350E+04  5.1110 0.99999
  3.000E+04 3.011E+04 1.955E+00 8.193E-02 1.089E-01 9.898E-03 2.008E-01 2.156E+00 1.585E+04  5.4324 0.99999
  3.500E+04 3.511E+04 1.972E+00 9.857E-02 1.332E-01 1.157E-02 2.434E-01 2.215E+00 1.814E+04  5.7086 1.00000
  4.000E+04 4.011E+04 1.986E+00 1.156E-01 1.583E-01 1.321E-02 2.871E-01 2.273E+00 2.037E+04  5.9510 1.00000
  4.500E+04 4.511E+04 1.999E+00 1.329E-01 1.839E-01 1.484E-02 3.317E-01 2.331E+00 2.254E+04  6.1671 1.00000
  5.000E+04 5.011E+04 2.010E+00 1.506E-01 2.101E-01 1.646E-02 3.771E-01 2.387E+00 2.466E+04  6.3620 1.00000
  5.500E+04 5.511E+04 2.019E+00 1.685E-01 2.367E-01 1.809E-02 4.233E-01 2.443E+00 2.673E+04  6.5397 1.00000
  6.000E+04 6.011E+04 2.028E+00 1.866E-01 2.638E-01 1.970E-02 4.701E-01 2.498E+00 2.876E+04  6.7030 1.00000
  7.000E+04 7.011E+04 2.043E+00 2.235E-01 3.189E-01 2.289E-02 5.653E-01 2.609E+00 3.267E+04  6.9945 1.00000
  8.000E+04 8.011E+04 2.056E+00 2.610E-01 3.751E-01 2.609E-02 6.623E-01 2.719E+00 3.643E+04  7.2492 1.00000
  9.000E+04 9.011E+04 2.068E+00 2.992E-01 4.324E-01 2.929E-02 7.608E-01 2.828E+00 4.004E+04  7.4754 1.00000
  1.000E+05 1.001E+05 2.078E+00 3.379E-01 4.904E-01 3.242E-02 8.607E-01 2.938E+00 4.351E+04  7.6790 1.00000
  1.200E+05 1.201E+05 2.094E+00 4.165E-01 6.085E-01 3.880E-02 1.064E+00 3.158E+00 5.008E+04  8.0335 1.00000
  1.400E+05 1.401E+05 2.108E+00 4.966E-01 7.287E-01 4.517E-02 1.270E+00 3.379E+00 5.620E+04  8.3353 1.00000
  1.700E+05 1.701E+05 2.126E+00 6.189E-01 9.121E-01 5.471E-02 1.586E+00 3.712E+00 6.468E+04  8.7176 1.00000
  2.000E+05 2.001E+05 2.140E+00 7.433E-01 1.098E+00 6.431E-02 1.906E+00 4.046E+00 7.243E+04  9.0393 1.00000
  2.500E+05 2.501E+05 2.160E+00 9.544E-01 1.413E+00 8.033E-02 2.448E+00 4.608E+00 8.403E+04  9.4829 1.00000
  3.000E+05 3.001E+05 2.176E+00 1.169E+00 1.733E+00 9.646E-02 2.998E+00 5.174E+00 9.429E+04  9.8465 1.00000
  3.500E+05 3.501E+05 2.190E+00 1.386E+00 2.055E+00 1.128E-01 3.555E+00 5.744E+00 1.035E+05 10.1544 1.00000
  4.000E+05 4.001E+05 2.201E+00 1.606E+00 2.381E+00 1.292E-01 4.116E+00 6.317E+00 1.118E+05 10.4213 1.00000
  4.500E+05 4.501E+05 2.212E+00 1.828E+00 2.708E+00 1.456E-01 4.681E+00 6.892E+00 1.194E+05 10.6569 1.00000
  5.000E+05 5.001E+05 2.221E+00 2.051E+00 3.036E+00 1.622E-01 5.249E+00 7.470E+00 1.263E+05 10.8675 1.00000
  5.500E+05 5.501E+05 2.229E+00 2.275E+00 3.367E+00 1.787E-01 5.820E+00 8.050E+00 1.328E+05 11.0581 1.00000
  6.000E+05 6.001E+05 2.237E+00 2.501E+00 3.698E+00 1.952E-01 6.394E+00 8.631E+00 1.388E+05 11.2321 1.00000
  7.000E+05 7.001E+05 2.250E+00 2.955E+00 4.363E+00 2.286E-01 7.547E+00 9.798E+00 1.497E+05 11.5404 1.00000
  8.000E+05 8.001E+05 2.262E+00 3.413E+00 5.032E+00 2.624E-01 8.708E+00 1.097E+01 1.594E+05 11.8074 1.00000
  9.000E+05 9.001E+05 2.273E+00 3.874E+00 5.703E+00 2.964E-01 9.874E+00 1.215E+01 1.680E+05 12.0429 1.00000
  1.000E+06 1.000E+06 2.282E+00 4.337E+00 6.376E+00 3.308E-01 1.104E+01 1.333E+01 1.759E+05 12.2536 1.00000
  1.200E+06 1.200E+06 2.299E+00 5.269E+00 7.728E+00 4.003E-01 1.340E+01 1.570E+01 1.898E+05 12.6182 1.00000
  1.400E+06 1.400E+06 2.312E+00 6.206E+00 9.084E+00 4.709E-01 1.576E+01 1.807E+01 2.017E+05 12.9265 1.00000
  1.700E+06 1.700E+06 2.330E+00 7.622E+00 1.113E+01 5.783E-01 1.933E+01 2.166E+01 2.169E+05 13.3148 1.00000
  2.000E+06 2.000E+06 2.345E+00 9.045E+00 1.317E+01 6.874E-01 2.291E+01 2.525E+01 2.298E+05 13.6398 1.00000
  2.500E+06 2.500E+06 2.365E+00 1.143E+01 1.659E+01 8.726E-01 2.890E+01 3.126E+01 2.477E+05 14.0861 1.00000
  3.000E+06 3.000E+06 2.382E+00 1.383E+01 2.003E+01 1.061E+00 3.491E+01 3.730E+01 2.624E+05 14.4507 1.00000
  3.500E+06 3.500E+06 2.397E+00 1.623E+01 2.346E+01 1.253E+00 4.095E+01 4.335E+01 2.748E+05 14.7590 1.00000
  4.000E+06 4.000E+06 2.409E+00 1.865E+01 2.690E+01 1.448E+00 4.700E+01 4.941E+01 2.857E+05 15.0260 1.00000
  4.500E+06 4.500E+06 2.420E+00 2.106E+01 3.035E+01 1.644E+00 5.306E+01 5.548E+01 2.952E+05 15.2616 1.00000
  5.000E+06 5.000E+06 2.430E+00 2.349E+01 3.380E+01 1.844E+00 5.913E+01 6.156E+01 3.038E+05 15.4723 1.00000
  5.500E+06 5.500E+06 2.439E+00 2.591E+01 3.725E+01 2.045E+00 6.521E+01 6.765E+01 3.116E+05 15.6629 1.00000
  6.000E+06 6.000E+06 2.448E+00 2.834E+01 4.070E+01 2.248E+00 7.129E+01 7.374E+01 3.186E+05 15.8370 1.00000
  7.000E+06 7.000E+06 2.463E+00 3.321E+01 4.761E+01 2.659E+00 8.348E+01 8.594E+01 3.312E+05 16.1452 1.00000
  8.000E+06 8.000E+06 2.475E+00 3.809E+01 5.453E+01 3.076E+00 9.569E+01 9.816E+01 3.422E+05 16.4123 1.00000
  9.000E+06 9.000E+06 2.487E+00 4.297E+01 6.144E+01 3.498E+00 1.079E+02 1.104E+02 3.518E+05 16.6479 1.00000
  1.000E+07 1.000E+07 2.497E+00 4.785E+01 6.837E+01 3.926E+00 1.201E+02 1.226E+02 3.604E+05 16.8586 1.00000
  1.200E+07 1.200E+07 2.515E+00 5.764E+01 8.222E+01 4.794E+00 1.447E+02 1.472E+02 3.753E+05 17.2232 1.00000
  1.400E+07 1.400E+07 2.530E+00 6.744E+01 9.608E+01 5.678E+00 1.692E+02 1.717E+02 3.880E+05 17.5315 1.00000
  1.700E+07 1.700E+07 2.550E+00 8.216E+01 1.169E+02 7.028E+00 2.061E+02 2.086E+02 4.039E+05 17.9198 1.00000
  2.000E+07 2.000E+07 2.566E+00 9.689E+01 1.377E+02 8.405E+00 2.430E+02 2.455E+02 4.172E+05 18.2449 1.00000
  2.500E+07 2.500E+07 2.589E+00 1.215E+02 1.724E+02 1.075E+01 3.046E+02 3.072E+02 4.355E+05 18.6912 1.00000
  3.000E+07 3.000E+07 2.608E+00 1.461E+02 2.071E+02 1.314E+01 3.663E+02 3.689E+02 4.504E+05 19.0558 1.00000
  3.500E+07 3.500E+07 2.624E+00 1.707E+02 2.418E+02 1.558E+01 4.281E+02 4.307E+02 4.630E+05 19.3641 1.00000
  4.000E+07 4.000E+07 2.638E+00 1.953E+02 2.765E+02 1.806E+01 4.899E+02 4.925E+02 4.739E+05 19.6312 1.00000
  4.500E+07 4.500E+07 2.650E+00 2.199E+02 3.112E+02 2.057E+01 5.517E+02 5.544E+02 4.835E+05 19.8667 1.00000
  5.000E+07 5.000E+07 2.661E+00 2.446E+02 3.460E+02 2.312E+01 6.136E+02 6.163E+02 4.920E+05 20.0774 1.00000
  5.500E+07 5.500E+07 2.671E+00 2.692E+02 3.807E+02 2.569E+01 6.756E+02 6.783E+02 4.998E+05 20.2681 1.00000
  6.000E+07 6.000E+07 2.680E+00 2.939E+02 4.154E+02 2.829E+01 7.376E+02 7.403E+02 5.068E+05 20.4421 1.00000
  7.000E+07 7.000E+07 2.697E+00 3.432E+02 4.849E+02 3.355E+01 8.616E+02 8.643E+02 5.194E+05 20.7504 1.00000
  8.000E+07 8.000E+07 2.711E+00 3.925E+02 5.544E+02 3.891E+01 9.858E+02 9.885E+02 5.302E+05 21.0175 1.00000
  9.000E+07 9.000E+07 2.724E+00 4.418E+02 6.238E+02 4.434E+01 1.110E+03 1.113E+03 5.398E+05 21.2530 1.00000
  1.000E+08 1.000E+08 2.735E+00 4.911E+02 6.933E+02 4.983E+01 1.234E+03 1.237E+03 5.483E+05 21.4637 1.00000
  1.200E+08 1.200E+08 2.755E+00 5.898E+02 8.323E+02 6.101E+01 1.483E+03 1.486E+03 5.631E+05 21.8284 1.00000
  1.400E+08 1.400E+08 2.772E+00 6.885E+02 9.713E+02 7.240E+01 1.732E+03 1.735E+03 5.756E+05 22.1367 1.00000
  1.700E+08 1.700E+08 2.794E+00 8.366E+02 1.180E+03 8.984E+01 2.106E+03 2.109E+03 5.914E+05 22.5250 1.00000
  2.000E+08 2.000E+08 2.812E+00 9.847E+02 1.388E+03 1.076E+02 2.481E+03 2.483E+03 6.045E+05 22.8500 1.00000
  2.500E+08 2.500E+08 2.838E+00 1.232E+03 1.736E+03 1.379E+02 3.105E+03 3.108E+03 6.226E+05 23.2963 1.00000
  3.000E+08 3.000E+08 2.858E+00 1.478E+03 2.083E+03 1.690E+02 3.731E+03 3.733E+03 6.374E+05 23.6610 1.00000
  3.500E+08 3.500E+08 2.876E+00 1.725E+03 2.431E+03 2.006E+02 4.356E+03 4.359E+03 6.498E+05 23.9693 1.00000
  4.000E+08 4.000E+08 2.892E+00 1.972E+03 2.778E+03 2.328E+02 4.983E+03 4.986E+03 6.605E+05 24.2363 1.00000
  4.500E+08 4.500E+08 2.906E+00 2.219E+03 3.125E+03 2.654E+02 5.610E+03 5.613E+03 6.700E+05 24.4719 1.00000
  5.000E+08 5.000E+08 2.918E+00 2.466E+03 3.473E+03 2.985E+02 6.237E+03 6.240E+03 6.785E+05 24.6826 1.00000
  5.500E+08 5.500E+08 2.929E+00 2.713E+03 3.820E+03 3.320E+02 6.865E+03 6.868E+03 6.861E+05 24.8732 1.00000
  6.000E+08 6.000E+08 2.940E+00 2.960E+03 4.168E+03 3.658E+02 7.493E+03 7.496E+03 6.931E+05 25.0473 1.00000
  7.000E+08 7.000E+08 2.958E+00 3.454E+03 4.863E+03 4.344E+02 8.751E+03 8.754E+03 7.055E+05 25.3556 1.00000
  8.000E+08 8.000E+08 2.974E+00 3.947E+03 5.558E+03 5.042E+02 1.001E+04 1.001E+04 7.162E+05 25.6226 1.00000
  9.000E+08 9.000E+08 2.988E+00 4.441E+03 6.252E+03 5.750E+02 1.127E+04 1.127E+04 7.256E+05 25.8582 1.00000
  1.000E+09 1.000E+09 3.001E+00 4.935E+03 6.947E+03 6.468E+02 1.253E+04 1.253E+04 7.340E+05 26.0689 1.00000
