 Incident particle is a Muon with M = 105.65839 MeV
 Index = 0: StriatedMuscle
      Absorber with <Z/A> = 0.55095
 Sternheimer coef:  a     k=m_s   x_0    x_1    I[eV]   Cbar  delta0
                 0.0851  3.5383  0.2249  2.8032   74.7  3.4636 0.00

 *** Table generated with PUMAS v1.00 ***

      T         p     Ionization  brems     pair     photonuc  Radloss    dE/dx   CSDA Range  delta   beta
    [MeV]    [MeV/c]  -----------------------[MeV cm^2/g]------------------------  [g/cm^2]
  1.000E+00 1.457E+01 5.020E+01 7.795E-07 0.000E+00 0.000E+00 7.795E-07 5.020E+01 9.960E-03  0.0000 0.13661
  1.200E+00 1.597E+01 4.331E+01 8.932E-07 0.000E+00 0.000E+00 8.932E-07 4.331E+01 1.426E-02  0.0000 0.14944
  1.400E+00 1.726E+01 3.821E+01 1.002E-06 0.000E+00 0.000E+00 1.002E-06 3.821E+01 1.919E-02  0.0000 0.16119
  1.700E+00 1.903E+01 3.263E+01 1.157E-06 0.000E+00 0.000E+00 1.157E-06 3.263E+01 2.771E-02  0.0000 0.17725
  2.000E+00 2.066E+01 2.858E+01 1.303E-06 0.000E+00 0.000E+00 1.303E-06 2.858E+01 3.756E-02  0.0000 0.19186
  2.500E+00 2.312E+01 2.382E+01 1.534E-06 0.000E+00 0.000E+00 1.534E-06 2.382E+01 5.680E-02  0.0000 0.21376
  3.000E+00 2.536E+01 2.054E+01 1.749E-06 0.000E+00 0.000E+00 1.749E-06 2.054E+01 7.947E-02  0.0000 0.23336
  3.500E+00 2.742E+01 1.812E+01 1.952E-06 0.000E+00 0.000E+00 1.952E-06 1.812E+01 1.054E-01  0.0000 0.25120
  4.000E+00 2.935E+01 1.626E+01 2.145E-06 0.000E+00 0.000E+00 2.145E-06 1.626E+01 1.346E-01  0.0000 0.26763
  4.500E+00 3.116E+01 1.479E+01 2.330E-06 0.000E+00 0.000E+00 2.330E-06 1.479E+01 1.669E-01  0.0000 0.28290
  5.000E+00 3.289E+01 1.359E+01 2.506E-06 0.000E+00 0.000E+00 2.506E-06 1.359E+01 2.022E-01  0.0000 0.29720
  5.500E+00 3.453E+01 1.260E+01 2.676E-06 0.000E+00 0.000E+00 2.676E-06 1.260E+01 2.404E-01  0.0000 0.31066
  6.000E+00 3.611E+01 1.176E+01 2.840E-06 0.000E+00 0.000E+00 2.840E-06 1.176E+01 2.815E-01  0.0000 0.32339
  7.000E+00 3.909E+01 1.041E+01 3.152E-06 0.000E+00 0.000E+00 3.152E-06 1.041E+01 3.721E-01  0.0000 0.34700
  8.000E+00 4.189E+01 9.383E+00 3.447E-06 0.000E+00 0.000E+00 3.447E-06 9.383E+00 4.734E-01  0.0000 0.36854
  9.000E+00 4.453E+01 8.569E+00 3.726E-06 0.000E+00 0.000E+00 3.726E-06 8.569E+00 5.850E-01  0.0000 0.38836
  1.000E+01 4.704E+01 7.909E+00 3.993E-06 0.000E+00 0.000E+00 3.993E-06 7.909E+00 7.066E-01  0.0000 0.40675
  1.200E+01 5.177E+01 6.903E+00 4.494E-06 0.000E+00 0.000E+00 4.494E-06 6.903E+00 9.779E-01  0.0000 0.43998
  1.400E+01 5.616E+01 6.170E+00 4.961E-06 0.000E+00 0.000E+00 4.961E-06 6.170E+00 1.285E+00  0.0000 0.46937
  1.700E+01 6.230E+01 5.380E+00 5.613E-06 0.000E+00 0.000E+00 5.613E-06 5.380E+00 1.807E+00  0.0000 0.50792
  2.000E+01 6.802E+01 4.818E+00 6.220E-06 0.000E+00 0.000E+00 6.220E-06 4.818E+00 2.397E+00  0.0000 0.54129
  2.500E+01 7.686E+01 4.173E+00 7.164E-06 0.000E+00 0.000E+00 7.164E-06 4.173E+00 3.515E+00  0.0000 0.58827
  3.000E+01 8.509E+01 3.738E+00 8.048E-06 0.000E+00 0.000E+00 8.048E-06 3.738E+00 4.783E+00  0.0000 0.62720
  3.500E+01 9.285E+01 3.426E+00 8.893E-06 0.000E+00 0.000E+00 8.893E-06 3.426E+00 6.182E+00  0.0000 0.66011
  4.000E+01 1.003E+02 3.192E+00 9.712E-06 0.000E+00 0.000E+00 9.712E-06 3.192E+00 7.695E+00  0.0000 0.68834
  4.500E+01 1.074E+02 3.010E+00 1.051E-05 0.000E+00 0.000E+00 1.051E-05 3.010E+00 9.308E+00  0.0000 0.71286
  5.000E+01 1.143E+02 2.866E+00 1.131E-05 0.000E+00 0.000E+00 1.131E-05 2.866E+00 1.101E+01  0.0000 0.73434
  5.500E+01 1.210E+02 2.749E+00 1.209E-05 0.000E+00 0.000E+00 1.209E-05 2.749E+00 1.279E+01  0.0000 0.75332
  6.000E+01 1.276E+02 2.653E+00 1.287E-05 0.000E+00 0.000E+00 1.287E-05 2.653E+00 1.464E+01  0.0000 0.77019
  7.000E+01 1.403E+02 2.504E+00 1.444E-05 0.000E+00 0.000E+00 1.444E-05 2.504E+00 1.853E+01  0.0000 0.79887
  8.000E+01 1.527E+02 2.396E+00 1.602E-05 0.000E+00 0.000E+00 1.602E-05 2.396E+00 2.261E+01  0.0000 0.82227
  9.000E+01 1.647E+02 2.315E+00 1.761E-05 0.000E+00 0.000E+00 1.761E-05 2.316E+00 2.686E+01  0.0000 0.84166
  1.000E+02 1.764E+02 2.254E+00 1.923E-05 0.000E+00 0.000E+00 1.923E-05 2.254E+00 3.123E+01  0.0000 0.85794
  1.200E+02 1.994E+02 2.160E+00 2.255E-05 0.000E+00 0.000E+00 2.255E-05 2.160E+00 4.030E+01  0.0697 0.88361
  1.400E+02 2.218E+02 2.099E+00 2.598E-05 0.000E+00 0.000E+00 2.598E-05 2.099E+00 4.969E+01  0.1394 0.90278
  1.700E+02 2.546E+02 2.043E+00 3.136E-05 4.478E-14 0.000E+00 3.136E-05 2.043E+00 6.418E+01  0.2397 0.92363
  2.000E+02 2.868E+02 2.010E+00 3.699E-05 1.003E-11 0.000E+00 3.699E-05 2.010E+00 7.898E+01  0.3349 0.93835
  2.500E+02 3.396E+02 1.984E+00 4.694E-05 8.338E-08 0.000E+00 4.702E-05 1.985E+00 1.040E+02  0.4831 0.95485
  3.000E+02 3.917E+02 1.976E+00 5.752E-05 7.522E-07 0.000E+00 5.827E-05 1.977E+00 1.293E+02  0.6197 0.96548
  3.500E+02 4.432E+02 1.977E+00 6.868E-05 2.072E-06 0.000E+00 7.076E-05 1.977E+00 1.546E+02  0.7464 0.97274
  4.000E+02 4.945E+02 1.983E+00 8.038E-05 4.014E-06 0.000E+00 8.440E-05 1.983E+00 1.798E+02  0.8646 0.97793
  4.500E+02 5.455E+02 1.991E+00 9.257E-05 6.556E-06 0.000E+00 9.913E-05 1.991E+00 2.050E+02  0.9754 0.98176
  5.000E+02 5.964E+02 2.000E+00 1.052E-04 9.676E-06 0.000E+00 1.149E-04 2.000E+00 2.300E+02  1.0796 0.98467
  5.500E+02 6.471E+02 2.009E+00 1.183E-04 1.335E-05 0.000E+00 1.316E-04 2.009E+00 2.550E+02  1.1782 0.98693
  6.000E+02 6.977E+02 2.019E+00 1.318E-04 1.757E-05 0.000E+00 1.493E-04 2.019E+00 2.798E+02  1.2716 0.98873
  7.000E+02 7.987E+02 2.039E+00 1.598E-04 2.755E-05 0.000E+00 1.873E-04 2.039E+00 3.291E+02  1.4451 0.99136
  8.000E+02 8.995E+02 2.058E+00 1.892E-04 3.948E-05 0.000E+00 2.287E-04 2.058E+00 3.779E+02  1.6036 0.99317
  9.000E+02 1.000E+03 2.075E+00 2.198E-04 5.323E-05 0.000E+00 2.730E-04 2.076E+00 4.263E+02  1.7496 0.99447
  1.000E+03 1.101E+03 2.092E+00 2.515E-04 6.870E-05 0.000E+00 3.202E-04 2.092E+00 4.743E+02  1.8850 0.99542
  1.200E+03 1.301E+03 2.122E+00 3.178E-04 1.044E-04 2.261E-05 4.448E-04 2.122E+00 5.692E+02  2.1295 0.99672
  1.400E+03 1.502E+03 2.147E+00 3.878E-04 1.458E-04 6.193E-05 5.955E-04 2.148E+00 6.629E+02  2.3461 0.99753
  1.700E+03 1.803E+03 2.181E+00 4.984E-04 2.177E-04 1.329E-04 8.490E-04 2.181E+00 8.015E+02  2.6309 0.99829
  2.000E+03 2.103E+03 2.209E+00 6.149E-04 2.998E-04 2.169E-04 1.132E-03 2.210E+00 9.381E+02  2.8791 0.99874
  2.500E+03 2.604E+03 2.247E+00 8.205E-04 4.564E-04 3.796E-04 1.656E-03 2.249E+00 1.162E+03  3.2333 0.99918
  3.000E+03 3.104E+03 2.278E+00 1.038E-03 6.342E-04 5.511E-04 2.223E-03 2.281E+00 1.383E+03  3.5335 0.99942
  3.500E+03 3.604E+03 2.305E+00 1.266E-03 8.303E-04 7.334E-04 2.829E-03 2.307E+00 1.601E+03  3.7941 0.99957
  4.000E+03 4.104E+03 2.327E+00 1.502E-03 1.058E-03 9.286E-04 3.489E-03 2.330E+00 1.817E+03  4.0245 0.99967
  4.500E+03 4.604E+03 2.346E+00 1.747E-03 1.306E-03 1.132E-03 4.185E-03 2.351E+00 2.030E+03  4.2311 0.99974
  5.000E+03 5.105E+03 2.364E+00 1.998E-03 1.570E-03 1.328E-03 4.896E-03 2.368E+00 2.242E+03  4.4185 0.99979
  5.500E+03 5.605E+03 2.379E+00 2.256E-03 1.847E-03 1.539E-03 5.642E-03 2.385E+00 2.453E+03  4.5899 0.99982
  6.000E+03 6.105E+03 2.393E+00 2.520E-03 2.136E-03 1.736E-03 6.393E-03 2.399E+00 2.662E+03  4.7479 0.99985
  7.000E+03 7.105E+03 2.417E+00 3.063E-03 2.749E-03 2.155E-03 7.967E-03 2.425E+00 3.076E+03  5.0310 0.99989
  8.000E+03 8.105E+03 2.438E+00 3.626E-03 3.402E-03 2.571E-03 9.599E-03 2.447E+00 3.487E+03  5.2794 0.99992
  9.000E+03 9.105E+03 2.456E+00 4.205E-03 4.089E-03 2.963E-03 1.126E-02 2.467E+00 3.894E+03  5.5007 0.99993
  1.000E+04 1.011E+04 2.472E+00 4.799E-03 4.809E-03 3.369E-03 1.298E-02 2.485E+00 4.298E+03  5.7002 0.99995
  1.200E+04 1.211E+04 2.498E+00 6.026E-03 6.329E-03 4.193E-03 1.655E-02 2.515E+00 5.098E+03  6.0487 0.99996
  1.400E+04 1.411E+04 2.520E+00 7.298E-03 7.944E-03 5.020E-03 2.026E-02 2.541E+00 5.889E+03  6.3461 0.99997
  1.700E+04 1.711E+04 2.548E+00 9.277E-03 1.052E-02 6.249E-03 2.604E-02 2.574E+00 7.062E+03  6.7237 0.99998
  2.000E+04 2.011E+04 2.570E+00 1.133E-02 1.323E-02 7.457E-03 3.202E-02 2.602E+00 8.222E+03  7.0421 0.99999
  2.500E+04 2.511E+04 2.599E+00 1.488E-02 1.803E-02 9.447E-03 4.236E-02 2.642E+00 1.013E+04  7.4819 0.99999
  3.000E+04 3.011E+04 2.623E+00 1.857E-02 2.310E-02 1.141E-02 5.307E-02 2.676E+00 1.201E+04  7.8429 0.99999
  3.500E+04 3.511E+04 2.643E+00 2.236E-02 2.840E-02 1.339E-02 6.414E-02 2.707E+00 1.387E+04  8.1492 1.00000
  4.000E+04 4.011E+04 2.659E+00 2.626E-02 3.387E-02 1.535E-02 7.548E-02 2.735E+00 1.570E+04  8.4149 1.00000
  4.500E+04 4.511E+04 2.674E+00 3.023E-02 3.951E-02 1.729E-02 8.703E-02 2.761E+00 1.752E+04  8.6497 1.00000
  5.000E+04 5.011E+04 2.687E+00 3.428E-02 4.528E-02 1.923E-02 9.879E-02 2.785E+00 1.933E+04  8.8598 1.00000
  5.500E+04 5.511E+04 2.698E+00 3.839E-02 5.117E-02 2.119E-02 1.108E-01 2.809E+00 2.112E+04  9.0500 1.00000
  6.000E+04 6.011E+04 2.709E+00 4.256E-02 5.717E-02 2.313E-02 1.229E-01 2.831E+00 2.289E+04  9.2237 1.00000
  7.000E+04 7.011E+04 2.727E+00 5.106E-02 6.944E-02 2.698E-02 1.475E-01 2.874E+00 2.639E+04  9.5315 1.00000
  8.000E+04 8.011E+04 2.742E+00 5.974E-02 8.204E-02 3.085E-02 1.726E-01 2.915E+00 2.985E+04  9.7982 1.00000
  9.000E+04 9.011E+04 2.756E+00 6.857E-02 9.490E-02 3.472E-02 1.982E-01 2.954E+00 3.326E+04 10.0335 1.00000
  1.000E+05 1.001E+05 2.768E+00 7.753E-02 1.080E-01 3.853E-02 2.240E-01 2.992E+00 3.662E+04 10.2439 1.00000
  1.200E+05 1.201E+05 2.789E+00 9.581E-02 1.347E-01 4.628E-02 2.768E-01 3.066E+00 4.322E+04 10.6082 1.00000
  1.400E+05 1.401E+05 2.807E+00 1.145E-01 1.621E-01 5.404E-02 3.306E-01 3.138E+00 4.967E+04 10.9163 1.00000
  1.700E+05 1.701E+05 2.829E+00 1.431E-01 2.041E-01 6.570E-02 4.129E-01 3.242E+00 5.908E+04 11.3043 1.00000
  2.000E+05 2.001E+05 2.847E+00 1.722E-01 2.470E-01 7.743E-02 4.966E-01 3.344E+00 6.819E+04 11.6292 1.00000
  2.500E+05 2.501E+05 2.873E+00 2.219E-01 3.198E-01 9.707E-02 6.388E-01 3.511E+00 8.279E+04 12.0753 1.00000
  3.000E+05 3.001E+05 2.893E+00 2.725E-01 3.941E-01 1.169E-01 7.835E-01 3.677E+00 9.671E+04 12.4398 1.00000
  3.500E+05 3.501E+05 2.910E+00 3.240E-01 4.694E-01 1.369E-01 9.303E-01 3.841E+00 1.100E+05 12.7480 1.00000
  4.000E+05 4.001E+05 2.926E+00 3.761E-01 5.455E-01 1.571E-01 1.079E+00 4.004E+00 1.228E+05 13.0149 1.00000
  4.500E+05 4.501E+05 2.939E+00 4.287E-01 6.222E-01 1.774E-01 1.228E+00 4.167E+00 1.350E+05 13.2505 1.00000
  5.000E+05 5.001E+05 2.951E+00 4.819E-01 6.996E-01 1.978E-01 1.379E+00 4.330E+00 1.468E+05 13.4611 1.00000
  5.500E+05 5.501E+05 2.962E+00 5.355E-01 7.774E-01 2.181E-01 1.531E+00 4.493E+00 1.581E+05 13.6517 1.00000
  6.000E+05 6.001E+05 2.971E+00 5.894E-01 8.556E-01 2.386E-01 1.684E+00 4.655E+00 1.691E+05 13.8257 1.00000
  7.000E+05 7.001E+05 2.989E+00 6.982E-01 1.013E+00 2.798E-01 1.991E+00 4.980E+00 1.898E+05 14.1340 1.00000
  8.000E+05 8.001E+05 3.004E+00 8.081E-01 1.172E+00 3.215E-01 2.301E+00 5.306E+00 2.093E+05 14.4010 1.00000
  9.000E+05 9.001E+05 3.018E+00 9.189E-01 1.331E+00 3.636E-01 2.613E+00 5.631E+00 2.276E+05 14.6365 1.00000
  1.000E+06 1.000E+06 3.030E+00 1.030E+00 1.491E+00 4.061E-01 2.928E+00 5.958E+00 2.449E+05 14.8472 1.00000
  1.200E+06 1.200E+06 3.051E+00 1.255E+00 1.813E+00 4.921E-01 3.561E+00 6.612E+00 2.768E+05 15.2118 1.00000
  1.400E+06 1.400E+06 3.069E+00 1.482E+00 2.137E+00 5.794E-01 4.199E+00 7.268E+00 3.057E+05 15.5201 1.00000
  1.700E+06 1.700E+06 3.092E+00 1.825E+00 2.626E+00 7.124E-01 5.163E+00 8.255E+00 3.445E+05 15.9084 1.00000
  2.000E+06 2.000E+06 3.111E+00 2.171E+00 3.116E+00 8.475E-01 6.135E+00 9.246E+00 3.789E+05 16.2334 1.00000
  2.500E+06 2.500E+06 3.137E+00 2.753E+00 3.938E+00 1.077E+00 7.767E+00 1.090E+01 4.288E+05 16.6797 1.00000
  3.000E+06 3.000E+06 3.159E+00 3.338E+00 4.762E+00 1.311E+00 9.411E+00 1.257E+01 4.717E+05 17.0443 1.00000
  3.500E+06 3.500E+06 3.178E+00 3.927E+00 5.589E+00 1.548E+00 1.106E+01 1.424E+01 5.091E+05 17.3526 1.00000
  4.000E+06 4.000E+06 3.194E+00 4.519E+00 6.418E+00 1.789E+00 1.273E+01 1.592E+01 5.424E+05 17.6196 1.00000
  4.500E+06 4.500E+06 3.208E+00 5.112E+00 7.248E+00 2.033E+00 1.439E+01 1.760E+01 5.723E+05 17.8552 1.00000
  5.000E+06 5.000E+06 3.221E+00 5.707E+00 8.079E+00 2.280E+00 1.607E+01 1.929E+01 5.994E+05 18.0659 1.00000
  5.500E+06 5.500E+06 3.233E+00 6.304E+00 8.911E+00 2.530E+00 1.775E+01 2.098E+01 6.243E+05 18.2565 1.00000
  6.000E+06 6.000E+06 3.244E+00 6.902E+00 9.744E+00 2.781E+00 1.943E+01 2.267E+01 6.472E+05 18.4306 1.00000
  7.000E+06 7.000E+06 3.263E+00 8.101E+00 1.141E+01 3.291E+00 2.280E+01 2.607E+01 6.885E+05 18.7388 1.00000
  8.000E+06 8.000E+06 3.279E+00 9.303E+00 1.308E+01 3.808E+00 2.619E+01 2.947E+01 7.246E+05 19.0059 1.00000
  9.000E+06 9.000E+06 3.294E+00 1.051E+01 1.475E+01 4.333E+00 2.959E+01 3.289E+01 7.568E+05 19.2415 1.00000
  1.000E+07 1.000E+07 3.308E+00 1.172E+01 1.643E+01 4.863E+00 3.300E+01 3.631E+01 7.858E+05 19.4522 1.00000
  1.200E+07 1.200E+07 3.331E+00 1.414E+01 1.977E+01 5.940E+00 3.985E+01 4.318E+01 8.365E+05 19.8168 1.00000
  1.400E+07 1.400E+07 3.350E+00 1.656E+01 2.312E+01 7.036E+00 4.672E+01 5.007E+01 8.796E+05 20.1251 1.00000
  1.700E+07 1.700E+07 3.375E+00 2.021E+01 2.815E+01 8.712E+00 5.707E+01 6.045E+01 9.344E+05 20.5134 1.00000
  2.000E+07 2.000E+07 3.397E+00 2.386E+01 3.319E+01 1.042E+01 6.747E+01 7.086E+01 9.804E+05 20.8385 1.00000
  2.500E+07 2.500E+07 3.426E+00 2.996E+01 4.158E+01 1.333E+01 8.487E+01 8.829E+01 1.044E+06 21.2848 1.00000
  3.000E+07 3.000E+07 3.450E+00 3.606E+01 4.998E+01 1.630E+01 1.023E+02 1.058E+02 1.096E+06 21.6494 1.00000
  3.500E+07 3.500E+07 3.471E+00 4.218E+01 5.838E+01 1.932E+01 1.199E+02 1.234E+02 1.140E+06 21.9577 1.00000
  4.000E+07 4.000E+07 3.489E+00 4.830E+01 6.679E+01 2.240E+01 1.375E+02 1.410E+02 1.178E+06 22.2248 1.00000
  4.500E+07 4.500E+07 3.504E+00 5.442E+01 7.519E+01 2.552E+01 1.551E+02 1.586E+02 1.211E+06 22.4603 1.00000
  5.000E+07 5.000E+07 3.519E+00 6.055E+01 8.360E+01 2.867E+01 1.728E+02 1.763E+02 1.241E+06 22.6710 1.00000
  5.500E+07 5.500E+07 3.532E+00 6.668E+01 9.201E+01 3.187E+01 1.906E+02 1.941E+02 1.268E+06 22.8617 1.00000
  6.000E+07 6.000E+07 3.544E+00 7.281E+01 1.004E+02 3.509E+01 2.083E+02 2.119E+02 1.293E+06 23.0357 1.00000
  7.000E+07 7.000E+07 3.565E+00 8.508E+01 1.172E+02 4.163E+01 2.439E+02 2.475E+02 1.337E+06 23.3440 1.00000
  8.000E+07 8.000E+07 3.584E+00 9.735E+01 1.341E+02 4.827E+01 2.797E+02 2.833E+02 1.375E+06 23.6111 1.00000
  9.000E+07 9.000E+07 3.600E+00 1.096E+02 1.509E+02 5.501E+01 3.155E+02 3.191E+02 1.408E+06 23.8466 1.00000
  1.000E+08 1.000E+08 3.615E+00 1.219E+02 1.677E+02 6.183E+01 3.515E+02 3.551E+02 1.438E+06 24.0573 1.00000
  1.200E+08 1.200E+08 3.641E+00 1.465E+02 2.014E+02 7.570E+01 4.236E+02 4.272E+02 1.489E+06 24.4220 1.00000
  1.400E+08 1.400E+08 3.663E+00 1.711E+02 2.350E+02 8.983E+01 4.959E+02 4.996E+02 1.533E+06 24.7303 1.00000
  1.700E+08 1.700E+08 3.690E+00 2.079E+02 2.855E+02 1.115E+02 6.049E+02 6.086E+02 1.587E+06 25.1186 1.00000
  2.000E+08 2.000E+08 3.714E+00 2.448E+02 3.360E+02 1.335E+02 7.144E+02 7.181E+02 1.633E+06 25.4436 1.00000
  2.500E+08 2.500E+08 3.747E+00 3.063E+02 4.202E+02 1.712E+02 8.977E+02 9.014E+02 1.695E+06 25.8899 1.00000
  3.000E+08 3.000E+08 3.774E+00 3.679E+02 5.044E+02 2.097E+02 1.082E+03 1.086E+03 1.746E+06 26.2546 1.00000
  3.500E+08 3.500E+08 3.797E+00 4.294E+02 5.885E+02 2.489E+02 1.267E+03 1.271E+03 1.789E+06 26.5629 1.00000
  4.000E+08 4.000E+08 3.817E+00 4.909E+02 6.727E+02 2.889E+02 1.452E+03 1.456E+03 1.826E+06 26.8299 1.00000
  4.500E+08 4.500E+08 3.834E+00 5.524E+02 7.569E+02 3.294E+02 1.639E+03 1.643E+03 1.858E+06 27.0655 1.00000
  5.000E+08 5.000E+08 3.850E+00 6.140E+02 8.410E+02 3.704E+02 1.825E+03 1.829E+03 1.887E+06 27.2762 1.00000
  5.500E+08 5.500E+08 3.865E+00 6.755E+02 9.252E+02 4.119E+02 2.013E+03 2.017E+03 1.913E+06 27.4668 1.00000
  6.000E+08 6.000E+08 3.878E+00 7.371E+02 1.009E+03 4.539E+02 2.200E+03 2.204E+03 1.937E+06 27.6409 1.00000
  7.000E+08 7.000E+08 3.902E+00 8.602E+02 1.178E+03 5.390E+02 2.577E+03 2.581E+03 1.979E+06 27.9492 1.00000
  8.000E+08 8.000E+08 3.923E+00 9.833E+02 1.346E+03 6.256E+02 2.955E+03 2.959E+03 2.015E+06 28.2162 1.00000
  9.000E+08 9.000E+08 3.941E+00 1.106E+03 1.514E+03 7.135E+02 3.334E+03 3.338E+03 2.047E+06 28.4518 1.00000
  1.000E+09 1.000E+09 3.958E+00 1.229E+03 1.683E+03 8.026E+02 3.715E+03 3.719E+03 2.075E+06 28.6625 1.00000
