 Incident particle is a Muon with M = 105.65839 MeV
 Index = 0: Technetium
      Absorber with <Z/A> = 0.43919
 Sternheimer coef:  a     k=m_s   x_0    x_1    I[eV]   Cbar  delta0
                 0.1657  2.9738  0.0949  3.1253  428.0  4.7769 0.14

 *** Table generated with PUMAS v1.00 ***

      T         p     Ionization  brems     pair     photonuc  Radloss    dE/dx   CSDA Range  delta   beta
    [MeV]    [MeV/c]  -----------------------[MeV cm^2/g]------------------------  [g/cm^2]
  1.000E+00 1.457E+01 2.740E+01 3.428E-06 0.000E+00 0.000E+00 3.428E-06 2.740E+01 1.825E-02  0.0017 0.13661
  1.200E+00 1.597E+01 2.398E+01 3.939E-06 0.000E+00 0.000E+00 3.939E-06 2.398E+01 2.607E-02  0.0021 0.14944
  1.400E+00 1.726E+01 2.140E+01 4.425E-06 0.000E+00 0.000E+00 4.425E-06 2.140E+01 3.491E-02  0.0024 0.16119
  1.700E+00 1.903E+01 1.851E+01 5.113E-06 0.000E+00 0.000E+00 5.113E-06 1.851E+01 5.003E-02  0.0029 0.17725
  2.000E+00 2.066E+01 1.638E+01 5.761E-06 0.000E+00 0.000E+00 5.761E-06 1.638E+01 6.729E-02  0.0035 0.19186
  2.500E+00 2.312E+01 1.383E+01 6.767E-06 0.000E+00 0.000E+00 6.767E-06 1.383E+01 1.006E-01  0.0043 0.21376
  3.000E+00 2.536E+01 1.204E+01 7.700E-06 0.000E+00 0.000E+00 7.700E-06 1.204E+01 1.395E-01  0.0052 0.23336
  3.500E+00 2.742E+01 1.071E+01 8.573E-06 0.000E+00 0.000E+00 8.573E-06 1.071E+01 1.836E-01  0.0061 0.25120
  4.000E+00 2.935E+01 9.671E+00 9.396E-06 0.000E+00 0.000E+00 9.396E-06 9.671E+00 2.328E-01  0.0070 0.26763
  4.500E+00 3.116E+01 8.842E+00 1.018E-05 0.000E+00 0.000E+00 1.018E-05 8.842E+00 2.869E-01  0.0079 0.28290
  5.000E+00 3.289E+01 8.163E+00 1.092E-05 0.000E+00 0.000E+00 1.092E-05 8.163E+00 3.458E-01  0.0088 0.29720
  5.500E+00 3.453E+01 7.595E+00 1.163E-05 0.000E+00 0.000E+00 1.163E-05 7.595E+00 4.093E-01  0.0097 0.31066
  6.000E+00 3.611E+01 7.113E+00 1.231E-05 0.000E+00 0.000E+00 1.231E-05 7.113E+00 4.774E-01  0.0106 0.32339
  7.000E+00 3.909E+01 6.337E+00 1.361E-05 0.000E+00 0.000E+00 1.361E-05 6.337E+00 6.266E-01  0.0124 0.34700
  8.000E+00 4.189E+01 5.739E+00 1.481E-05 0.000E+00 0.000E+00 1.481E-05 5.739E+00 7.926E-01  0.0142 0.36854
  9.000E+00 4.453E+01 5.263E+00 1.595E-05 0.000E+00 0.000E+00 1.595E-05 5.263E+00 9.747E-01  0.0161 0.38836
  1.000E+01 4.704E+01 4.875E+00 1.703E-05 0.000E+00 0.000E+00 1.703E-05 4.875E+00 1.172E+00  0.0179 0.40675
  1.200E+01 5.177E+01 4.279E+00 1.905E-05 0.000E+00 0.000E+00 1.905E-05 4.279E+00 1.611E+00  0.0217 0.43998
  1.400E+01 5.616E+01 3.842E+00 2.092E-05 0.000E+00 0.000E+00 2.092E-05 3.842E+00 2.105E+00  0.0256 0.46937
  1.700E+01 6.230E+01 3.368E+00 2.350E-05 0.000E+00 0.000E+00 2.350E-05 3.368E+00 2.941E+00  0.0314 0.50792
  2.000E+01 6.802E+01 3.029E+00 2.590E-05 0.000E+00 0.000E+00 2.590E-05 3.029E+00 3.882E+00  0.0375 0.54129
  2.500E+01 7.686E+01 2.637E+00 2.962E-05 0.000E+00 0.000E+00 2.962E-05 2.637E+00 5.655E+00  0.0479 0.58827
  3.000E+01 8.509E+01 2.371E+00 3.309E-05 0.000E+00 0.000E+00 3.309E-05 2.371E+00 7.658E+00  0.0586 0.62720
  3.500E+01 9.285E+01 2.180E+00 3.642E-05 0.000E+00 0.000E+00 3.642E-05 2.180E+00 9.859E+00  0.0698 0.66011
  4.000E+01 1.003E+02 2.036E+00 3.965E-05 0.000E+00 0.000E+00 3.965E-05 2.036E+00 1.223E+01  0.0814 0.68834
  4.500E+01 1.074E+02 1.924E+00 4.282E-05 0.000E+00 0.000E+00 4.282E-05 1.924E+00 1.476E+01  0.0934 0.71286
  5.000E+01 1.143E+02 1.835E+00 4.596E-05 0.000E+00 0.000E+00 4.596E-05 1.835E+00 1.742E+01  0.1058 0.73434
  5.500E+01 1.210E+02 1.762E+00 4.909E-05 0.000E+00 0.000E+00 4.909E-05 1.763E+00 2.020E+01  0.1187 0.75332
  6.000E+01 1.276E+02 1.703E+00 5.221E-05 0.000E+00 0.000E+00 5.221E-05 1.703E+00 2.309E+01  0.1319 0.77019
  7.000E+01 1.403E+02 1.612E+00 5.848E-05 0.000E+00 0.000E+00 5.848E-05 1.612E+00 2.913E+01  0.1465 0.79887
  8.000E+01 1.527E+02 1.546E+00 6.481E-05 0.000E+00 0.000E+00 6.481E-05 1.546E+00 3.546E+01  0.1590 0.82227
  9.000E+01 1.647E+02 1.497E+00 7.125E-05 0.000E+00 0.000E+00 7.125E-05 1.497E+00 4.204E+01  0.1735 0.84166
  1.000E+02 1.764E+02 1.459E+00 7.781E-05 0.000E+00 0.000E+00 7.781E-05 1.459E+00 4.880E+01  0.1892 0.85794
  1.200E+02 1.994E+02 1.407E+00 9.130E-05 0.000E+00 0.000E+00 9.130E-05 1.407E+00 6.276E+01  0.2233 0.88361
  1.400E+02 2.218E+02 1.375E+00 1.053E-04 0.000E+00 0.000E+00 1.053E-04 1.375E+00 7.714E+01  0.2590 0.90278
  1.700E+02 2.546E+02 1.347E+00 1.274E-04 0.000E+00 0.000E+00 1.274E-04 1.347E+00 9.919E+01  0.3139 0.92363
  2.000E+02 2.868E+02 1.333E+00 1.507E-04 0.000E+00 0.000E+00 1.507E-04 1.333E+00 1.216E+02  0.3687 0.93835
  2.500E+02 3.396E+02 1.326E+00 1.919E-04 0.000E+00 0.000E+00 1.919E-04 1.326E+00 1.592E+02  0.4582 0.95485
  3.000E+02 3.917E+02 1.328E+00 2.360E-04 0.000E+00 0.000E+00 2.360E-04 1.329E+00 1.969E+02  0.5442 0.96548
  3.500E+02 4.432E+02 1.336E+00 2.827E-04 0.000E+00 0.000E+00 2.827E-04 1.336E+00 2.344E+02  0.6263 0.97274
  4.000E+02 4.945E+02 1.346E+00 3.318E-04 1.852E-05 0.000E+00 3.503E-04 1.346E+00 2.717E+02  0.7046 0.97793
  4.500E+02 5.455E+02 1.356E+00 3.831E-04 3.184E-05 0.000E+00 4.149E-04 1.357E+00 3.087E+02  0.7794 0.98176
  5.000E+02 5.964E+02 1.367E+00 4.365E-04 4.763E-05 0.000E+00 4.841E-04 1.368E+00 3.454E+02  0.8509 0.98467
  5.500E+02 6.471E+02 1.378E+00 4.918E-04 6.627E-05 0.000E+00 5.580E-04 1.379E+00 3.818E+02  0.9193 0.98693
  6.000E+02 6.977E+02 1.389E+00 5.489E-04 8.769E-05 0.000E+00 6.365E-04 1.389E+00 4.179E+02  0.9850 0.98873
  7.000E+02 7.987E+02 1.409E+00 6.681E-04 1.385E-04 0.000E+00 8.066E-04 1.410E+00 4.894E+02  1.1086 0.99136
  8.000E+02 8.995E+02 1.428E+00 7.933E-04 1.994E-04 0.000E+00 9.928E-04 1.429E+00 5.599E+02  1.2234 0.99317
  9.000E+02 1.000E+03 1.445E+00 9.241E-04 2.697E-04 0.000E+00 1.194E-03 1.446E+00 6.294E+02  1.3306 0.99447
  1.000E+03 1.101E+03 1.461E+00 1.060E-03 3.489E-04 0.000E+00 1.409E-03 1.462E+00 6.982E+02  1.4311 0.99542
  1.200E+03 1.301E+03 1.489E+00 1.345E-03 5.318E-04 2.248E-05 1.899E-03 1.491E+00 8.337E+02  1.6153 0.99672
  1.400E+03 1.502E+03 1.514E+00 1.646E-03 7.445E-04 6.108E-05 2.452E-03 1.516E+00 9.667E+02  1.7810 0.99753
  1.700E+03 1.803E+03 1.545E+00 2.124E-03 1.113E-03 1.297E-04 3.367E-03 1.548E+00 1.163E+03  2.0025 0.99829
  2.000E+03 2.103E+03 1.571E+00 2.629E-03 1.535E-03 2.097E-04 4.374E-03 1.575E+00 1.355E+03  2.1986 0.99874
  2.500E+03 2.604E+03 1.606E+00 3.521E-03 2.339E-03 3.628E-04 6.223E-03 1.612E+00 1.668E+03  2.4829 0.99918
  3.000E+03 3.104E+03 1.635E+00 4.467E-03 3.252E-03 5.219E-04 8.241E-03 1.643E+00 1.976E+03  2.7278 0.99942
  3.500E+03 3.604E+03 1.659E+00 5.458E-03 4.258E-03 6.890E-04 1.040E-02 1.669E+00 2.278E+03  2.9433 0.99957
  4.000E+03 4.104E+03 1.679E+00 6.488E-03 5.356E-03 8.665E-04 1.271E-02 1.692E+00 2.575E+03  3.1360 0.99967
  4.500E+03 4.604E+03 1.697E+00 7.553E-03 6.533E-03 1.050E-03 1.514E-02 1.712E+00 2.869E+03  3.3104 0.99974
  5.000E+03 5.105E+03 1.713E+00 8.648E-03 7.777E-03 1.226E-03 1.765E-02 1.730E+00 3.159E+03  3.4698 0.99979
  5.500E+03 5.605E+03 1.727E+00 9.772E-03 9.081E-03 1.415E-03 2.027E-02 1.747E+00 3.447E+03  3.6167 0.99982
  6.000E+03 6.105E+03 1.739E+00 1.092E-02 1.044E-02 1.591E-03 2.295E-02 1.762E+00 3.732E+03  3.7530 0.99985
  7.000E+03 7.105E+03 1.761E+00 1.329E-02 1.331E-02 1.962E-03 2.855E-02 1.790E+00 4.295E+03  3.9994 0.99989
  8.000E+03 8.105E+03 1.780E+00 1.573E-02 1.635E-02 2.329E-03 3.441E-02 1.814E+00 4.850E+03  4.2176 0.99992
  9.000E+03 9.105E+03 1.795E+00 1.825E-02 1.954E-02 2.673E-03 4.046E-02 1.836E+00 5.398E+03  4.4138 0.99993
  1.000E+04 1.011E+04 1.810E+00 2.083E-02 2.287E-02 3.027E-03 4.672E-02 1.856E+00 5.940E+03  4.5919 0.99995
  1.200E+04 1.211E+04 1.833E+00 2.616E-02 2.987E-02 3.742E-03 5.977E-02 1.893E+00 7.007E+03  4.9060 0.99996
  1.400E+04 1.411E+04 1.853E+00 3.167E-02 3.728E-02 4.457E-03 7.341E-02 1.926E+00 8.054E+03  5.1769 0.99997
  1.700E+04 1.711E+04 1.876E+00 4.023E-02 4.901E-02 5.512E-03 9.475E-02 1.971E+00 9.594E+03  5.5246 0.99998
  2.000E+04 2.011E+04 1.895E+00 4.909E-02 6.136E-02 6.544E-03 1.170E-01 2.012E+00 1.110E+04  5.8209 0.99999
  2.500E+04 2.511E+04 1.921E+00 6.438E-02 8.302E-02 8.233E-03 1.556E-01 2.076E+00 1.355E+04  6.2346 0.99999
  3.000E+04 3.011E+04 1.941E+00 8.021E-02 1.058E-01 9.886E-03 1.959E-01 2.137E+00 1.592E+04  6.5781 0.99999
  3.500E+04 3.511E+04 1.957E+00 9.649E-02 1.294E-01 1.155E-02 2.374E-01 2.195E+00 1.823E+04  6.8719 1.00000
  4.000E+04 4.011E+04 1.971E+00 1.131E-01 1.537E-01 1.320E-02 2.801E-01 2.251E+00 2.048E+04  7.1286 1.00000
  4.500E+04 4.511E+04 1.983E+00 1.301E-01 1.787E-01 1.481E-02 3.236E-01 2.307E+00 2.267E+04  7.3567 1.00000
  5.000E+04 5.011E+04 1.994E+00 1.474E-01 2.042E-01 1.643E-02 3.680E-01 2.362E+00 2.482E+04  7.5618 1.00000
  5.500E+04 5.511E+04 2.003E+00 1.649E-01 2.301E-01 1.806E-02 4.130E-01 2.416E+00 2.691E+04  7.7482 1.00000
  6.000E+04 6.011E+04 2.012E+00 1.826E-01 2.564E-01 1.967E-02 4.587E-01 2.470E+00 2.896E+04  7.9190 1.00000
  7.000E+04 7.011E+04 2.026E+00 2.187E-01 3.101E-01 2.286E-02 5.516E-01 2.578E+00 3.292E+04  8.2230 1.00000
  8.000E+04 8.011E+04 2.039E+00 2.554E-01 3.649E-01 2.605E-02 6.463E-01 2.685E+00 3.672E+04  8.4874 1.00000
  9.000E+04 9.011E+04 2.050E+00 2.927E-01 4.206E-01 2.924E-02 7.426E-01 2.793E+00 4.037E+04  8.7214 1.00000
  1.000E+05 1.001E+05 2.060E+00 3.305E-01 4.771E-01 3.237E-02 8.401E-01 2.900E+00 4.389E+04  8.9312 1.00000
  1.200E+05 1.201E+05 2.077E+00 4.074E-01 5.922E-01 3.873E-02 1.038E+00 3.115E+00 5.055E+04  9.2950 1.00000
  1.400E+05 1.401E+05 2.091E+00 4.858E-01 7.094E-01 4.509E-02 1.240E+00 3.331E+00 5.676E+04  9.6030 1.00000
  1.700E+05 1.701E+05 2.108E+00 6.054E-01 8.882E-01 5.462E-02 1.548E+00 3.657E+00 6.536E+04  9.9910 1.00000
  2.000E+05 2.001E+05 2.123E+00 7.271E-01 1.070E+00 6.419E-02 1.861E+00 3.984E+00 7.323E+04 10.3159 1.00000
  2.500E+05 2.501E+05 2.143E+00 9.336E-01 1.377E+00 8.018E-02 2.391E+00 4.534E+00 8.502E+04 10.7620 1.00000
  3.000E+05 3.001E+05 2.159E+00 1.144E+00 1.689E+00 9.628E-02 2.929E+00 5.088E+00 9.545E+04 11.1265 1.00000
  3.500E+05 3.501E+05 2.173E+00 1.356E+00 2.004E+00 1.125E-01 3.473E+00 5.646E+00 1.048E+05 11.4347 1.00000
  4.000E+05 4.001E+05 2.185E+00 1.571E+00 2.321E+00 1.289E-01 4.021E+00 6.207E+00 1.132E+05 11.7016 1.00000
  4.500E+05 4.501E+05 2.196E+00 1.788E+00 2.641E+00 1.453E-01 4.574E+00 6.770E+00 1.210E+05 11.9372 1.00000
  5.000E+05 5.001E+05 2.205E+00 2.006E+00 2.962E+00 1.619E-01 5.130E+00 7.335E+00 1.281E+05 12.1478 1.00000
  5.500E+05 5.501E+05 2.214E+00 2.226E+00 3.284E+00 1.783E-01 5.688E+00 7.902E+00 1.346E+05 12.3384 1.00000
  6.000E+05 6.001E+05 2.222E+00 2.447E+00 3.607E+00 1.948E-01 6.249E+00 8.471E+00 1.408E+05 12.5124 1.00000
  7.000E+05 7.001E+05 2.236E+00 2.892E+00 4.257E+00 2.282E-01 7.378E+00 9.613E+00 1.519E+05 12.8207 1.00000
  8.000E+05 8.001E+05 2.248E+00 3.340E+00 4.910E+00 2.618E-01 8.513E+00 1.076E+01 1.617E+05 13.0877 1.00000
  9.000E+05 9.001E+05 2.259E+00 3.791E+00 5.566E+00 2.958E-01 9.653E+00 1.191E+01 1.705E+05 13.3232 1.00000
  1.000E+06 1.000E+06 2.269E+00 4.245E+00 6.224E+00 3.301E-01 1.080E+01 1.307E+01 1.786E+05 13.5339 1.00000
  1.200E+06 1.200E+06 2.285E+00 5.157E+00 7.544E+00 3.995E-01 1.310E+01 1.539E+01 1.927E+05 13.8985 1.00000
  1.400E+06 1.400E+06 2.300E+00 6.075E+00 8.869E+00 4.699E-01 1.541E+01 1.771E+01 2.049E+05 14.2068 1.00000
  1.700E+06 1.700E+06 2.318E+00 7.461E+00 1.086E+01 5.770E-01 1.890E+01 2.122E+01 2.204E+05 14.5951 1.00000
  2.000E+06 2.000E+06 2.333E+00 8.855E+00 1.286E+01 6.859E-01 2.240E+01 2.474E+01 2.335E+05 14.9201 1.00000
  2.500E+06 2.500E+06 2.354E+00 1.119E+01 1.621E+01 8.707E-01 2.827E+01 3.062E+01 2.518E+05 15.3664 1.00000
  3.000E+06 3.000E+06 2.372E+00 1.354E+01 1.956E+01 1.059E+00 3.416E+01 3.653E+01 2.668E+05 15.7310 1.00000
  3.500E+06 3.500E+06 2.386E+00 1.590E+01 2.292E+01 1.250E+00 4.007E+01 4.245E+01 2.795E+05 16.0393 1.00000
  4.000E+06 4.000E+06 2.399E+00 1.826E+01 2.628E+01 1.444E+00 4.599E+01 4.839E+01 2.906E+05 16.3063 1.00000
  4.500E+06 4.500E+06 2.411E+00 2.063E+01 2.965E+01 1.641E+00 5.192E+01 5.433E+01 3.004E+05 16.5419 1.00000
  5.000E+06 5.000E+06 2.421E+00 2.300E+01 3.302E+01 1.839E+00 5.786E+01 6.028E+01 3.091E+05 16.7526 1.00000
  5.500E+06 5.500E+06 2.430E+00 2.538E+01 3.639E+01 2.040E+00 6.381E+01 6.624E+01 3.170E+05 16.9432 1.00000
  6.000E+06 6.000E+06 2.439E+00 2.776E+01 3.976E+01 2.243E+00 6.977E+01 7.221E+01 3.243E+05 17.1173 1.00000
  7.000E+06 7.000E+06 2.454E+00 3.253E+01 4.652E+01 2.653E+00 8.170E+01 8.415E+01 3.371E+05 17.4255 1.00000
  8.000E+06 8.000E+06 2.467E+00 3.731E+01 5.328E+01 3.069E+00 9.365E+01 9.612E+01 3.483E+05 17.6926 1.00000
  9.000E+06 9.000E+06 2.479E+00 4.209E+01 6.004E+01 3.491E+00 1.056E+02 1.081E+02 3.581E+05 17.9282 1.00000
  1.000E+07 1.000E+07 2.490E+00 4.688E+01 6.680E+01 3.917E+00 1.176E+02 1.201E+02 3.669E+05 18.1389 1.00000
  1.200E+07 1.200E+07 2.508E+00 5.647E+01 8.034E+01 4.784E+00 1.416E+02 1.441E+02 3.822E+05 18.5035 1.00000
  1.400E+07 1.400E+07 2.524E+00 6.607E+01 9.389E+01 5.665E+00 1.656E+02 1.682E+02 3.951E+05 18.8118 1.00000
  1.700E+07 1.700E+07 2.544E+00 8.050E+01 1.142E+02 7.013E+00 2.017E+02 2.043E+02 4.113E+05 19.2001 1.00000
  2.000E+07 2.000E+07 2.561E+00 9.493E+01 1.346E+02 8.386E+00 2.379E+02 2.404E+02 4.249E+05 19.5252 1.00000
  2.500E+07 2.500E+07 2.584E+00 1.190E+02 1.685E+02 1.072E+01 2.982E+02 3.008E+02 4.436E+05 19.9715 1.00000
  3.000E+07 3.000E+07 2.603E+00 1.431E+02 2.024E+02 1.311E+01 3.586E+02 3.612E+02 4.588E+05 20.3361 1.00000
  3.500E+07 3.500E+07 2.620E+00 1.672E+02 2.363E+02 1.555E+01 4.191E+02 4.217E+02 4.717E+05 20.6444 1.00000
  4.000E+07 4.000E+07 2.634E+00 1.914E+02 2.703E+02 1.802E+01 4.797E+02 4.823E+02 4.828E+05 20.9115 1.00000
  4.500E+07 4.500E+07 2.647E+00 2.155E+02 3.042E+02 2.053E+01 5.402E+02 5.429E+02 4.926E+05 21.1470 1.00000
  5.000E+07 5.000E+07 2.658E+00 2.397E+02 3.381E+02 2.307E+01 6.009E+02 6.035E+02 5.013E+05 21.3577 1.00000
  5.500E+07 5.500E+07 2.669E+00 2.638E+02 3.721E+02 2.563E+01 6.615E+02 6.642E+02 5.092E+05 21.5484 1.00000
  6.000E+07 6.000E+07 2.678E+00 2.880E+02 4.060E+02 2.822E+01 7.222E+02 7.249E+02 5.165E+05 21.7224 1.00000
  7.000E+07 7.000E+07 2.695E+00 3.363E+02 4.739E+02 3.348E+01 8.437E+02 8.464E+02 5.293E+05 22.0307 1.00000
  8.000E+07 8.000E+07 2.710E+00 3.847E+02 5.418E+02 3.882E+01 9.653E+02 9.680E+02 5.403E+05 22.2978 1.00000
  9.000E+07 9.000E+07 2.723E+00 4.330E+02 6.098E+02 4.424E+01 1.087E+03 1.090E+03 5.501E+05 22.5333 1.00000
  1.000E+08 1.000E+08 2.735E+00 4.814E+02 6.777E+02 4.972E+01 1.209E+03 1.211E+03 5.588E+05 22.7440 1.00000
  1.200E+08 1.200E+08 2.755E+00 5.781E+02 8.135E+02 6.088E+01 1.452E+03 1.455E+03 5.739E+05 23.1087 1.00000
  1.400E+08 1.400E+08 2.773E+00 6.748E+02 9.494E+02 7.224E+01 1.696E+03 1.699E+03 5.867E+05 23.4170 1.00000
  1.700E+08 1.700E+08 2.795E+00 8.200E+02 1.153E+03 8.964E+01 2.063E+03 2.066E+03 6.028E+05 23.8053 1.00000
  2.000E+08 2.000E+08 2.814E+00 9.651E+02 1.357E+03 1.074E+02 2.429E+03 2.432E+03 6.162E+05 24.1303 1.00000
  2.500E+08 2.500E+08 2.840E+00 1.207E+03 1.697E+03 1.376E+02 3.041E+03 3.044E+03 6.347E+05 24.5766 1.00000
  3.000E+08 3.000E+08 2.861E+00 1.449E+03 2.036E+03 1.686E+02 3.654E+03 3.657E+03 6.497E+05 24.9413 1.00000
  3.500E+08 3.500E+08 2.880E+00 1.691E+03 2.376E+03 2.002E+02 4.267E+03 4.270E+03 6.624E+05 25.2496 1.00000
  4.000E+08 4.000E+08 2.896E+00 1.933E+03 2.715E+03 2.323E+02 4.881E+03 4.884E+03 6.734E+05 25.5166 1.00000
  4.500E+08 4.500E+08 2.910E+00 2.175E+03 3.055E+03 2.648E+02 5.495E+03 5.498E+03 6.831E+05 25.7522 1.00000
  5.000E+08 5.000E+08 2.922E+00 2.417E+03 3.395E+03 2.978E+02 6.110E+03 6.112E+03 6.917E+05 25.9629 1.00000
  5.500E+08 5.500E+08 2.934E+00 2.659E+03 3.734E+03 3.312E+02 6.725E+03 6.727E+03 6.995E+05 26.1535 1.00000
  6.000E+08 6.000E+08 2.945E+00 2.901E+03 4.074E+03 3.650E+02 7.340E+03 7.343E+03 7.066E+05 26.3276 1.00000
  7.000E+08 7.000E+08 2.964E+00 3.385E+03 4.753E+03 4.334E+02 8.572E+03 8.575E+03 7.193E+05 26.6359 1.00000
  8.000E+08 8.000E+08 2.980E+00 3.869E+03 5.432E+03 5.031E+02 9.805E+03 9.807E+03 7.302E+05 26.9029 1.00000
  9.000E+08 9.000E+08 2.995E+00 4.353E+03 6.112E+03 5.737E+02 1.104E+04 1.104E+04 7.398E+05 27.1385 1.00000
  1.000E+09 1.000E+09 3.008E+00 4.837E+03 6.791E+03 6.454E+02 1.227E+04 1.228E+04 7.484E+05 27.3492 1.00000
