 Incident particle is a Muon with M = 105.65839 MeV
 Index = 0: Teflon
      Absorber with <Z/A> = 0.47993
 Sternheimer coef:  a     k=m_s   x_0    x_1    I[eV]   Cbar  delta0
                 0.1061  3.4046  0.1648  2.7404   99.1  3.4161 0.00

 *** Table generated with PUMAS v1.00 ***

      T         p     Ionization  brems     pair     photonuc  Radloss    dE/dx   CSDA Range  delta   beta
    [MeV]    [MeV/c]  -----------------------[MeV cm^2/g]------------------------  [g/cm^2]
  1.000E+00 1.457E+01 4.150E+01 8.348E-07 0.000E+00 0.000E+00 8.348E-07 4.150E+01 1.205E-02  0.0000 0.13661
  1.200E+00 1.597E+01 3.586E+01 9.577E-07 0.000E+00 0.000E+00 9.577E-07 3.586E+01 1.725E-02  0.0000 0.14944
  1.400E+00 1.726E+01 3.169E+01 1.075E-06 0.000E+00 0.000E+00 1.075E-06 3.169E+01 2.319E-02  0.0000 0.16119
  1.700E+00 1.903E+01 2.710E+01 1.242E-06 0.000E+00 0.000E+00 1.242E-06 2.710E+01 3.346E-02  0.0000 0.17725
  2.000E+00 2.066E+01 2.376E+01 1.401E-06 0.000E+00 0.000E+00 1.401E-06 2.376E+01 4.531E-02  0.0000 0.19186
  2.500E+00 2.312E+01 1.984E+01 1.649E-06 0.000E+00 0.000E+00 1.649E-06 1.984E+01 6.843E-02  0.0000 0.21376
  3.000E+00 2.536E+01 1.712E+01 1.881E-06 0.000E+00 0.000E+00 1.881E-06 1.712E+01 9.563E-02  0.0000 0.23336
  3.500E+00 2.742E+01 1.512E+01 2.100E-06 0.000E+00 0.000E+00 2.100E-06 1.512E+01 1.268E-01  0.0000 0.25120
  4.000E+00 2.935E+01 1.359E+01 2.307E-06 0.000E+00 0.000E+00 2.307E-06 1.359E+01 1.617E-01  0.0000 0.26763
  4.500E+00 3.116E+01 1.236E+01 2.506E-06 0.000E+00 0.000E+00 2.506E-06 1.236E+01 2.003E-01  0.0000 0.28290
  5.000E+00 3.289E+01 1.137E+01 2.695E-06 0.000E+00 0.000E+00 2.695E-06 1.137E+01 2.425E-01  0.0000 0.29720
  5.500E+00 3.453E+01 1.054E+01 2.878E-06 0.000E+00 0.000E+00 2.878E-06 1.054E+01 2.882E-01  0.0000 0.31066
  6.000E+00 3.611E+01 9.842E+00 3.054E-06 0.000E+00 0.000E+00 3.054E-06 9.842E+00 3.374E-01  0.0000 0.32339
  7.000E+00 3.909E+01 8.723E+00 3.389E-06 0.000E+00 0.000E+00 3.389E-06 8.723E+00 4.455E-01  0.0000 0.34700
  8.000E+00 4.189E+01 7.866E+00 3.704E-06 0.000E+00 0.000E+00 3.704E-06 7.866E+00 5.664E-01  0.0000 0.36854
  9.000E+00 4.453E+01 7.189E+00 4.004E-06 0.000E+00 0.000E+00 4.004E-06 7.189E+00 6.995E-01  0.0000 0.38836
  1.000E+01 4.704E+01 6.638E+00 4.289E-06 0.000E+00 0.000E+00 4.289E-06 6.638E+00 8.443E-01  0.0000 0.40675
  1.200E+01 5.177E+01 5.798E+00 4.825E-06 0.000E+00 0.000E+00 4.825E-06 5.798E+00 1.167E+00  0.0000 0.43998
  1.400E+01 5.616E+01 5.185E+00 5.324E-06 0.000E+00 0.000E+00 5.324E-06 5.185E+00 1.533E+00  0.0000 0.46937
  1.700E+01 6.230E+01 4.525E+00 6.020E-06 0.000E+00 0.000E+00 6.020E-06 4.525E+00 2.154E+00  0.0000 0.50792
  2.000E+01 6.802E+01 4.055E+00 6.669E-06 0.000E+00 0.000E+00 6.669E-06 4.055E+00 2.855E+00  0.0000 0.54129
  2.500E+01 7.686E+01 3.514E+00 7.675E-06 0.000E+00 0.000E+00 7.675E-06 3.514E+00 4.183E+00  0.0000 0.58827
  3.000E+01 8.509E+01 3.150E+00 8.618E-06 0.000E+00 0.000E+00 8.618E-06 3.150E+00 5.688E+00  0.0000 0.62720
  3.500E+01 9.285E+01 2.889E+00 9.519E-06 0.000E+00 0.000E+00 9.519E-06 2.889E+00 7.347E+00  0.0000 0.66011
  4.000E+01 1.003E+02 2.692E+00 1.039E-05 0.000E+00 0.000E+00 1.039E-05 2.692E+00 9.141E+00  0.0000 0.68834
  4.500E+01 1.074E+02 2.540E+00 1.125E-05 0.000E+00 0.000E+00 1.125E-05 2.540E+00 1.105E+01  0.0000 0.71286
  5.000E+01 1.143E+02 2.419E+00 1.209E-05 0.000E+00 0.000E+00 1.209E-05 2.419E+00 1.307E+01  0.0000 0.73434
  5.500E+01 1.210E+02 2.321E+00 1.293E-05 0.000E+00 0.000E+00 1.293E-05 2.321E+00 1.518E+01  0.0000 0.75332
  6.000E+01 1.276E+02 2.240E+00 1.377E-05 0.000E+00 0.000E+00 1.377E-05 2.240E+00 1.737E+01  0.0000 0.77019
  7.000E+01 1.403E+02 2.116E+00 1.544E-05 0.000E+00 0.000E+00 1.544E-05 2.116E+00 2.197E+01  0.0000 0.79887
  8.000E+01 1.527E+02 2.026E+00 1.712E-05 0.000E+00 0.000E+00 1.712E-05 2.026E+00 2.680E+01  0.0000 0.82227
  9.000E+01 1.647E+02 1.955E+00 1.882E-05 0.000E+00 0.000E+00 1.882E-05 1.955E+00 3.183E+01  0.0328 0.84166
  1.000E+02 1.764E+02 1.900E+00 2.055E-05 0.000E+00 0.000E+00 2.055E-05 1.900E+00 3.702E+01  0.0697 0.85794
  1.200E+02 1.994E+02 1.822E+00 2.410E-05 0.000E+00 0.000E+00 2.410E-05 1.822E+00 4.777E+01  0.1420 0.88361
  1.400E+02 2.218E+02 1.771E+00 2.777E-05 0.000E+00 0.000E+00 2.777E-05 1.771E+00 5.890E+01  0.2120 0.90278
  1.700E+02 2.546E+02 1.724E+00 3.353E-05 4.979E-14 0.000E+00 3.353E-05 1.724E+00 7.607E+01  0.3124 0.92363
  2.000E+02 2.868E+02 1.698E+00 3.956E-05 1.114E-11 0.000E+00 3.956E-05 1.698E+00 9.361E+01  0.4074 0.93835
  2.500E+02 3.396E+02 1.677E+00 5.021E-05 9.125E-08 0.000E+00 5.030E-05 1.677E+00 1.232E+02  0.5549 0.95485
  3.000E+02 3.917E+02 1.671E+00 6.155E-05 8.190E-07 0.000E+00 6.236E-05 1.671E+00 1.531E+02  0.6908 0.96548
  3.500E+02 4.432E+02 1.673E+00 7.351E-05 2.260E-06 0.000E+00 7.577E-05 1.673E+00 1.830E+02  0.8167 0.97274
  4.000E+02 4.945E+02 1.678E+00 8.605E-05 4.383E-06 0.000E+00 9.043E-05 1.678E+00 2.128E+02  0.9340 0.97793
  4.500E+02 5.455E+02 1.686E+00 9.912E-05 7.162E-06 0.000E+00 1.063E-04 1.686E+00 2.426E+02  1.0440 0.98176
  5.000E+02 5.964E+02 1.694E+00 1.127E-04 1.057E-05 0.000E+00 1.233E-04 1.694E+00 2.722E+02  1.1475 0.98467
  5.500E+02 6.471E+02 1.703E+00 1.267E-04 1.460E-05 0.000E+00 1.413E-04 1.703E+00 3.016E+02  1.2453 0.98693
  6.000E+02 6.977E+02 1.711E+00 1.411E-04 1.921E-05 0.000E+00 1.604E-04 1.712E+00 3.309E+02  1.3379 0.98873
  7.000E+02 7.987E+02 1.729E+00 1.712E-04 3.013E-05 0.000E+00 2.013E-04 1.729E+00 3.890E+02  1.5101 0.99136
  8.000E+02 8.995E+02 1.745E+00 2.027E-04 4.319E-05 0.000E+00 2.459E-04 1.746E+00 4.466E+02  1.6674 0.99317
  9.000E+02 1.000E+03 1.761E+00 2.356E-04 5.824E-05 0.000E+00 2.938E-04 1.761E+00 5.036E+02  1.8123 0.99447
  1.000E+03 1.101E+03 1.776E+00 2.696E-04 7.516E-05 0.000E+00 3.447E-04 1.776E+00 5.601E+02  1.9466 0.99542
  1.200E+03 1.301E+03 1.802E+00 3.408E-04 1.142E-04 2.255E-05 4.776E-04 1.802E+00 6.719E+02  2.1894 0.99672
  1.400E+03 1.502E+03 1.824E+00 4.158E-04 1.596E-04 6.168E-05 6.371E-04 1.825E+00 7.822E+02  2.4044 0.99753
  1.700E+03 1.803E+03 1.854E+00 5.345E-04 2.382E-04 1.321E-04 9.048E-04 1.854E+00 9.453E+02  2.6874 0.99829
  2.000E+03 2.103E+03 1.878E+00 6.595E-04 3.281E-04 2.152E-04 1.203E-03 1.879E+00 1.106E+03  2.9342 0.99874
  2.500E+03 2.604E+03 1.912E+00 8.800E-04 4.995E-04 3.758E-04 1.755E-03 1.914E+00 1.370E+03  3.2865 0.99918
  3.000E+03 3.104E+03 1.939E+00 1.113E-03 6.941E-04 5.446E-04 2.352E-03 1.942E+00 1.629E+03  3.5852 0.99942
  3.500E+03 3.604E+03 1.962E+00 1.357E-03 9.088E-04 7.236E-04 2.990E-03 1.965E+00 1.885E+03  3.8447 0.99957
  4.000E+03 4.104E+03 1.982E+00 1.611E-03 1.154E-03 9.150E-04 3.680E-03 1.985E+00 2.138E+03  4.0743 0.99967
  4.500E+03 4.604E+03 1.999E+00 1.873E-03 1.421E-03 1.114E-03 4.408E-03 2.003E+00 2.389E+03  4.2803 0.99974
  5.000E+03 5.105E+03 2.014E+00 2.142E-03 1.704E-03 1.306E-03 5.152E-03 2.019E+00 2.638E+03  4.4671 0.99979
  5.500E+03 5.605E+03 2.027E+00 2.418E-03 2.002E-03 1.512E-03 5.932E-03 2.033E+00 2.884E+03  4.6381 0.99982
  6.000E+03 6.105E+03 2.039E+00 2.700E-03 2.312E-03 1.705E-03 6.717E-03 2.046E+00 3.130E+03  4.7957 0.99985
  7.000E+03 7.105E+03 2.060E+00 3.282E-03 2.969E-03 2.113E-03 8.363E-03 2.069E+00 3.616E+03  5.0783 0.99989
  8.000E+03 8.105E+03 2.078E+00 3.883E-03 3.668E-03 2.519E-03 1.007E-02 2.089E+00 4.097E+03  5.3263 0.99992
  9.000E+03 9.105E+03 2.094E+00 4.502E-03 4.404E-03 2.901E-03 1.181E-02 2.106E+00 4.574E+03  5.5473 0.99993
  1.000E+04 1.011E+04 2.108E+00 5.137E-03 5.173E-03 3.295E-03 1.361E-02 2.121E+00 5.047E+03  5.7467 0.99995
  1.200E+04 1.211E+04 2.131E+00 6.447E-03 6.799E-03 4.096E-03 1.734E-02 2.149E+00 5.983E+03  6.0950 0.99996
  1.400E+04 1.411E+04 2.150E+00 7.804E-03 8.525E-03 4.899E-03 2.123E-02 2.172E+00 6.909E+03  6.3923 0.99997
  1.700E+04 1.711E+04 2.174E+00 9.915E-03 1.127E-02 6.091E-03 2.728E-02 2.201E+00 8.281E+03  6.7701 0.99998
  2.000E+04 2.011E+04 2.193E+00 1.210E-02 1.417E-02 7.262E-03 3.353E-02 2.227E+00 9.636E+03  7.0886 0.99999
  2.500E+04 2.511E+04 2.219E+00 1.588E-02 1.929E-02 9.187E-03 4.436E-02 2.264E+00 1.186E+04  7.5286 0.99999
  3.000E+04 3.011E+04 2.240E+00 1.980E-02 2.469E-02 1.108E-02 5.557E-02 2.295E+00 1.406E+04  7.8899 0.99999
  3.500E+04 3.511E+04 2.257E+00 2.384E-02 3.032E-02 1.299E-02 6.716E-02 2.324E+00 1.622E+04  8.1963 1.00000
  4.000E+04 4.011E+04 2.271E+00 2.798E-02 3.615E-02 1.489E-02 7.902E-02 2.350E+00 1.836E+04  8.4622 1.00000
  4.500E+04 4.511E+04 2.284E+00 3.221E-02 4.214E-02 1.676E-02 9.111E-02 2.375E+00 2.048E+04  8.6971 1.00000
  5.000E+04 5.011E+04 2.295E+00 3.650E-02 4.828E-02 1.863E-02 1.034E-01 2.399E+00 2.257E+04  8.9073 1.00000
  5.500E+04 5.511E+04 2.305E+00 4.087E-02 5.454E-02 2.052E-02 1.159E-01 2.421E+00 2.465E+04  9.0975 1.00000
  6.000E+04 6.011E+04 2.314E+00 4.530E-02 6.092E-02 2.239E-02 1.286E-01 2.443E+00 2.670E+04  9.2712 1.00000
  7.000E+04 7.011E+04 2.330E+00 5.431E-02 7.396E-02 2.610E-02 1.544E-01 2.485E+00 3.076E+04  9.5790 1.00000
  8.000E+04 8.011E+04 2.344E+00 6.351E-02 8.733E-02 2.982E-02 1.807E-01 2.524E+00 3.476E+04  9.8457 1.00000
  9.000E+04 9.011E+04 2.356E+00 7.287E-02 1.010E-01 3.355E-02 2.074E-01 2.563E+00 3.869E+04 10.0810 1.00000
  1.000E+05 1.001E+05 2.366E+00 8.237E-02 1.149E-01 3.721E-02 2.344E-01 2.601E+00 4.256E+04 10.2914 1.00000
  1.200E+05 1.201E+05 2.385E+00 1.017E-01 1.432E-01 4.467E-02 2.896E-01 2.674E+00 5.014E+04 10.6557 1.00000
  1.400E+05 1.401E+05 2.400E+00 1.215E-01 1.722E-01 5.212E-02 3.458E-01 2.746E+00 5.753E+04 10.9638 1.00000
  1.700E+05 1.701E+05 2.419E+00 1.517E-01 2.167E-01 6.333E-02 4.318E-01 2.851E+00 6.825E+04 11.3518 1.00000
  2.000E+05 2.001E+05 2.435E+00 1.826E-01 2.620E-01 7.460E-02 5.192E-01 2.954E+00 7.859E+04 11.6767 1.00000
  2.500E+05 2.501E+05 2.457E+00 2.351E-01 3.391E-01 9.346E-02 6.676E-01 3.125E+00 9.505E+04 12.1228 1.00000
  3.000E+05 3.001E+05 2.475E+00 2.886E-01 4.176E-01 1.125E-01 8.187E-01 3.294E+00 1.106E+05 12.4873 1.00000
  3.500E+05 3.501E+05 2.490E+00 3.429E-01 4.972E-01 1.317E-01 9.718E-01 3.462E+00 1.255E+05 12.7955 1.00000
  4.000E+05 4.001E+05 2.503E+00 3.979E-01 5.776E-01 1.511E-01 1.127E+00 3.630E+00 1.396E+05 13.0624 1.00000
  4.500E+05 4.501E+05 2.515E+00 4.535E-01 6.586E-01 1.705E-01 1.283E+00 3.797E+00 1.530E+05 13.2980 1.00000
  5.000E+05 5.001E+05 2.525E+00 5.095E-01 7.403E-01 1.901E-01 1.440E+00 3.965E+00 1.659E+05 13.5086 1.00000
  5.500E+05 5.501E+05 2.535E+00 5.660E-01 8.224E-01 2.096E-01 1.598E+00 4.133E+00 1.783E+05 13.6992 1.00000
  6.000E+05 6.001E+05 2.543E+00 6.229E-01 9.049E-01 2.292E-01 1.757E+00 4.300E+00 1.901E+05 13.8732 1.00000
  7.000E+05 7.001E+05 2.559E+00 7.376E-01 1.071E+00 2.688E-01 2.077E+00 4.636E+00 2.126E+05 14.1815 1.00000
  8.000E+05 8.001E+05 2.572E+00 8.534E-01 1.238E+00 3.087E-01 2.400E+00 4.972E+00 2.334E+05 14.4485 1.00000
  9.000E+05 9.001E+05 2.584E+00 9.701E-01 1.406E+00 3.491E-01 2.725E+00 5.309E+00 2.529E+05 14.6840 1.00000
  1.000E+06 1.000E+06 2.594E+00 1.088E+00 1.575E+00 3.898E-01 3.052E+00 5.647E+00 2.711E+05 14.8947 1.00000
  1.200E+06 1.200E+06 2.613E+00 1.324E+00 1.914E+00 4.723E-01 3.711E+00 6.324E+00 3.047E+05 15.2593 1.00000
  1.400E+06 1.400E+06 2.628E+00 1.563E+00 2.256E+00 5.560E-01 4.375E+00 7.003E+00 3.348E+05 15.5676 1.00000
  1.700E+06 1.700E+06 2.648E+00 1.924E+00 2.770E+00 6.834E-01 5.378E+00 8.026E+00 3.749E+05 15.9559 1.00000
  2.000E+06 2.000E+06 2.665E+00 2.288E+00 3.287E+00 8.129E-01 6.388E+00 9.053E+00 4.101E+05 16.2809 1.00000
  2.500E+06 2.500E+06 2.688E+00 2.900E+00 4.151E+00 1.033E+00 8.084E+00 1.077E+01 4.609E+05 16.7272 1.00000
  3.000E+06 3.000E+06 2.707E+00 3.515E+00 5.019E+00 1.257E+00 9.792E+00 1.250E+01 5.042E+05 17.0918 1.00000
  3.500E+06 3.500E+06 2.723E+00 4.134E+00 5.890E+00 1.485E+00 1.151E+01 1.423E+01 5.417E+05 17.4001 1.00000
  4.000E+06 4.000E+06 2.737E+00 4.756E+00 6.762E+00 1.716E+00 1.323E+01 1.597E+01 5.749E+05 17.6671 1.00000
  4.500E+06 4.500E+06 2.750E+00 5.380E+00 7.635E+00 1.949E+00 1.496E+01 1.771E+01 6.047E+05 17.9027 1.00000
  5.000E+06 5.000E+06 2.761E+00 6.005E+00 8.510E+00 2.186E+00 1.670E+01 1.946E+01 6.317E+05 18.1134 1.00000
  5.500E+06 5.500E+06 2.771E+00 6.632E+00 9.385E+00 2.425E+00 1.844E+01 2.121E+01 6.563E+05 18.3040 1.00000
  6.000E+06 6.000E+06 2.780E+00 7.260E+00 1.026E+01 2.666E+00 2.019E+01 2.297E+01 6.790E+05 18.4781 1.00000
  7.000E+06 7.000E+06 2.797E+00 8.519E+00 1.202E+01 3.154E+00 2.369E+01 2.649E+01 7.196E+05 18.7863 1.00000
  8.000E+06 8.000E+06 2.812E+00 9.781E+00 1.377E+01 3.650E+00 2.720E+01 3.001E+01 7.552E+05 19.0534 1.00000
  9.000E+06 9.000E+06 2.824E+00 1.105E+01 1.553E+01 4.152E+00 3.073E+01 3.355E+01 7.867E+05 19.2890 1.00000
  1.000E+07 1.000E+07 2.836E+00 1.231E+01 1.729E+01 4.660E+00 3.426E+01 3.710E+01 8.151E+05 19.4997 1.00000
  1.200E+07 1.200E+07 2.856E+00 1.485E+01 2.081E+01 5.692E+00 4.136E+01 4.421E+01 8.647E+05 19.8643 1.00000
  1.400E+07 1.400E+07 2.873E+00 1.740E+01 2.433E+01 6.743E+00 4.847E+01 5.135E+01 9.068E+05 20.1726 1.00000
  1.700E+07 1.700E+07 2.895E+00 2.122E+01 2.962E+01 8.348E+00 5.919E+01 6.209E+01 9.601E+05 20.5609 1.00000
  2.000E+07 2.000E+07 2.914E+00 2.506E+01 3.492E+01 9.984E+00 6.996E+01 7.287E+01 1.005E+06 20.8860 1.00000
  2.500E+07 2.500E+07 2.939E+00 3.145E+01 4.374E+01 1.277E+01 8.797E+01 9.090E+01 1.067E+06 21.3323 1.00000
  3.000E+07 3.000E+07 2.960E+00 3.786E+01 5.257E+01 1.562E+01 1.060E+02 1.090E+02 1.117E+06 21.6969 1.00000
  3.500E+07 3.500E+07 2.978E+00 4.427E+01 6.141E+01 1.852E+01 1.242E+02 1.272E+02 1.160E+06 22.0052 1.00000
  4.000E+07 4.000E+07 2.994E+00 5.069E+01 7.025E+01 2.146E+01 1.424E+02 1.454E+02 1.197E+06 22.2723 1.00000
  4.500E+07 4.500E+07 3.008E+00 5.711E+01 7.908E+01 2.445E+01 1.606E+02 1.637E+02 1.229E+06 22.5078 1.00000
  5.000E+07 5.000E+07 3.020E+00 6.354E+01 8.792E+01 2.747E+01 1.789E+02 1.820E+02 1.258E+06 22.7185 1.00000
  5.500E+07 5.500E+07 3.031E+00 6.997E+01 9.676E+01 3.053E+01 1.973E+02 2.003E+02 1.284E+06 22.9092 1.00000
  6.000E+07 6.000E+07 3.042E+00 7.640E+01 1.056E+02 3.362E+01 2.156E+02 2.187E+02 1.308E+06 23.0832 1.00000
  7.000E+07 7.000E+07 3.060E+00 8.926E+01 1.233E+02 3.988E+01 2.524E+02 2.555E+02 1.351E+06 23.3915 1.00000
  8.000E+07 8.000E+07 3.076E+00 1.021E+02 1.410E+02 4.624E+01 2.894E+02 2.924E+02 1.387E+06 23.6586 1.00000
  9.000E+07 9.000E+07 3.091E+00 1.150E+02 1.587E+02 5.270E+01 3.264E+02 3.295E+02 1.420E+06 23.8941 1.00000
  1.000E+08 1.000E+08 3.104E+00 1.279E+02 1.764E+02 5.923E+01 3.635E+02 3.666E+02 1.448E+06 24.1048 1.00000
  1.200E+08 1.200E+08 3.126E+00 1.537E+02 2.117E+02 7.252E+01 4.379E+02 4.410E+02 1.498E+06 24.4695 1.00000
  1.400E+08 1.400E+08 3.145E+00 1.794E+02 2.471E+02 8.606E+01 5.126E+02 5.158E+02 1.540E+06 24.7778 1.00000
  1.700E+08 1.700E+08 3.170E+00 2.181E+02 3.002E+02 1.068E+02 6.251E+02 6.283E+02 1.593E+06 25.1661 1.00000
  2.000E+08 2.000E+08 3.190E+00 2.568E+02 3.533E+02 1.279E+02 7.380E+02 7.412E+02 1.637E+06 25.4911 1.00000
  2.500E+08 2.500E+08 3.219E+00 3.213E+02 4.418E+02 1.640E+02 9.270E+02 9.302E+02 1.698E+06 25.9374 1.00000
  3.000E+08 3.000E+08 3.242E+00 3.857E+02 5.303E+02 2.009E+02 1.117E+03 1.120E+03 1.747E+06 26.3021 1.00000
  3.500E+08 3.500E+08 3.262E+00 4.502E+02 6.188E+02 2.385E+02 1.308E+03 1.311E+03 1.789E+06 26.6104 1.00000
  4.000E+08 4.000E+08 3.279E+00 5.148E+02 7.073E+02 2.767E+02 1.499E+03 1.502E+03 1.824E+06 26.8774 1.00000
  4.500E+08 4.500E+08 3.295E+00 5.793E+02 7.957E+02 3.155E+02 1.691E+03 1.694E+03 1.856E+06 27.1130 1.00000
  5.000E+08 5.000E+08 3.309E+00 6.438E+02 8.842E+02 3.549E+02 1.883E+03 1.886E+03 1.884E+06 27.3237 1.00000
  5.500E+08 5.500E+08 3.322E+00 7.083E+02 9.727E+02 3.946E+02 2.076E+03 2.079E+03 1.909E+06 27.5143 1.00000
  6.000E+08 6.000E+08 3.333E+00 7.728E+02 1.061E+03 4.348E+02 2.269E+03 2.272E+03 1.932E+06 27.6884 1.00000
  7.000E+08 7.000E+08 3.354E+00 9.019E+02 1.238E+03 5.164E+02 2.656E+03 2.660E+03 1.973E+06 27.9967 1.00000
  8.000E+08 8.000E+08 3.372E+00 1.031E+03 1.415E+03 5.994E+02 3.045E+03 3.049E+03 2.008E+06 28.2637 1.00000
  9.000E+08 9.000E+08 3.388E+00 1.160E+03 1.592E+03 6.836E+02 3.436E+03 3.439E+03 2.039E+06 28.4993 1.00000
  1.000E+09 1.000E+09 3.402E+00 1.289E+03 1.769E+03 7.689E+02 3.827E+03 3.830E+03 2.067E+06 28.7100 1.00000
