 Incident particle is a Muon with M = 105.65839 MeV
 Index = 0: Tellurium
      Absorber with <Z/A> = 0.40751
 Sternheimer coef:  a     k=m_s   x_0    x_1    I[eV]   Cbar  delta0
                 0.1382  3.0354  0.3296  3.4418  485.0  5.7131 0.14

 *** Table generated with PUMAS v1.00 ***

      T         p     Ionization  brems     pair     photonuc  Radloss    dE/dx   CSDA Range  delta   beta
    [MeV]    [MeV/c]  -----------------------[MeV cm^2/g]------------------------  [g/cm^2]
  1.000E+00 1.457E+01 2.459E+01 3.771E-06 0.000E+00 0.000E+00 3.771E-06 2.459E+01 2.034E-02  0.0006 0.13661
  1.200E+00 1.597E+01 2.155E+01 4.333E-06 0.000E+00 0.000E+00 4.333E-06 2.155E+01 2.904E-02  0.0007 0.14944
  1.400E+00 1.726E+01 1.925E+01 4.865E-06 0.000E+00 0.000E+00 4.865E-06 1.925E+01 3.888E-02  0.0008 0.16119
  1.700E+00 1.903E+01 1.668E+01 5.619E-06 0.000E+00 0.000E+00 5.619E-06 1.668E+01 5.566E-02  0.0010 0.17725
  2.000E+00 2.066E+01 1.478E+01 6.327E-06 0.000E+00 0.000E+00 6.327E-06 1.478E+01 7.480E-02  0.0012 0.19186
  2.500E+00 2.312E+01 1.250E+01 7.427E-06 0.000E+00 0.000E+00 7.427E-06 1.250E+01 1.117E-01  0.0015 0.21376
  3.000E+00 2.536E+01 1.089E+01 8.444E-06 0.000E+00 0.000E+00 8.444E-06 1.089E+01 1.547E-01  0.0018 0.23336
  3.500E+00 2.742E+01 9.690E+00 9.396E-06 0.000E+00 0.000E+00 9.396E-06 9.690E+00 2.035E-01  0.0021 0.25120
  4.000E+00 2.935E+01 8.759E+00 1.029E-05 0.000E+00 0.000E+00 1.029E-05 8.759E+00 2.578E-01  0.0024 0.26763
  4.500E+00 3.116E+01 8.013E+00 1.114E-05 0.000E+00 0.000E+00 1.114E-05 8.013E+00 3.175E-01  0.0027 0.28290
  5.000E+00 3.289E+01 7.401E+00 1.195E-05 0.000E+00 0.000E+00 1.195E-05 7.401E+00 3.825E-01  0.0030 0.29720
  5.500E+00 3.453E+01 6.889E+00 1.272E-05 0.000E+00 0.000E+00 1.272E-05 6.889E+00 4.526E-01  0.0033 0.31066
  6.000E+00 3.611E+01 6.455E+00 1.346E-05 0.000E+00 0.000E+00 1.346E-05 6.455E+00 5.276E-01  0.0036 0.32339
  7.000E+00 3.909E+01 5.754E+00 1.486E-05 0.000E+00 0.000E+00 1.486E-05 5.754E+00 6.920E-01  0.0042 0.34700
  8.000E+00 4.189E+01 5.214E+00 1.617E-05 0.000E+00 0.000E+00 1.617E-05 5.214E+00 8.747E-01  0.0048 0.36854
  9.000E+00 4.453E+01 4.784E+00 1.740E-05 0.000E+00 0.000E+00 1.740E-05 4.784E+00 1.075E+00  0.0055 0.38836
  1.000E+01 4.704E+01 4.433E+00 1.856E-05 0.000E+00 0.000E+00 1.856E-05 4.433E+00 1.292E+00  0.0061 0.40675
  1.200E+01 5.177E+01 3.894E+00 2.074E-05 0.000E+00 0.000E+00 2.074E-05 3.894E+00 1.775E+00  0.0074 0.43998
  1.400E+01 5.616E+01 3.498E+00 2.275E-05 0.000E+00 0.000E+00 2.275E-05 3.498E+00 2.317E+00  0.0087 0.46937
  1.700E+01 6.230E+01 3.069E+00 2.554E-05 0.000E+00 0.000E+00 2.554E-05 3.069E+00 3.235E+00  0.0107 0.50792
  2.000E+01 6.802E+01 2.762E+00 2.813E-05 0.000E+00 0.000E+00 2.813E-05 2.762E+00 4.267E+00  0.0127 0.54129
  2.500E+01 7.686E+01 2.407E+00 3.212E-05 0.000E+00 0.000E+00 3.212E-05 2.407E+00 6.210E+00  0.0162 0.58827
  3.000E+01 8.509E+01 2.166E+00 3.587E-05 0.000E+00 0.000E+00 3.587E-05 2.167E+00 8.403E+00  0.0199 0.62720
  3.500E+01 9.285E+01 1.993E+00 3.945E-05 0.000E+00 0.000E+00 3.945E-05 1.993E+00 1.081E+01  0.0237 0.66011
  4.000E+01 1.003E+02 1.863E+00 4.293E-05 0.000E+00 0.000E+00 4.293E-05 1.863E+00 1.341E+01  0.0276 0.68834
  4.500E+01 1.074E+02 1.762E+00 4.636E-05 0.000E+00 0.000E+00 4.636E-05 1.762E+00 1.617E+01  0.0317 0.71286
  5.000E+01 1.143E+02 1.682E+00 4.974E-05 0.000E+00 0.000E+00 4.974E-05 1.682E+00 1.907E+01  0.0359 0.73434
  5.500E+01 1.210E+02 1.616E+00 5.312E-05 0.000E+00 0.000E+00 5.312E-05 1.616E+00 2.211E+01  0.0403 0.75332
  6.000E+01 1.276E+02 1.563E+00 5.648E-05 0.000E+00 0.000E+00 5.648E-05 1.563E+00 2.525E+01  0.0447 0.77019
  7.000E+01 1.403E+02 1.480E+00 6.325E-05 0.000E+00 0.000E+00 6.325E-05 1.480E+00 3.183E+01  0.0541 0.79887
  8.000E+01 1.527E+02 1.420E+00 7.011E-05 0.000E+00 0.000E+00 7.011E-05 1.420E+00 3.873E+01  0.0641 0.82227
  9.000E+01 1.647E+02 1.376E+00 7.707E-05 0.000E+00 0.000E+00 7.707E-05 1.376E+00 4.588E+01  0.0745 0.84166
  1.000E+02 1.764E+02 1.342E+00 8.417E-05 0.000E+00 0.000E+00 8.417E-05 1.342E+00 5.324E+01  0.0856 0.85794
  1.200E+02 1.994E+02 1.295E+00 9.878E-05 0.000E+00 0.000E+00 9.878E-05 1.295E+00 6.842E+01  0.1093 0.88361
  1.400E+02 2.218E+02 1.266E+00 1.140E-04 0.000E+00 0.000E+00 1.140E-04 1.266E+00 8.404E+01  0.1352 0.90278
  1.700E+02 2.546E+02 1.242E+00 1.379E-04 0.000E+00 0.000E+00 1.379E-04 1.242E+00 1.080E+02  0.1650 0.92363
  2.000E+02 2.868E+02 1.231E+00 1.631E-04 0.000E+00 0.000E+00 1.631E-04 1.231E+00 1.322E+02  0.1954 0.93835
  2.500E+02 3.396E+02 1.227E+00 2.079E-04 0.000E+00 0.000E+00 2.079E-04 1.227E+00 1.729E+02  0.2509 0.95485
  3.000E+02 3.917E+02 1.232E+00 2.558E-04 0.000E+00 0.000E+00 2.558E-04 1.232E+00 2.136E+02  0.3086 0.96548
  3.500E+02 4.432E+02 1.240E+00 3.066E-04 0.000E+00 0.000E+00 3.066E-04 1.241E+00 2.540E+02  0.3666 0.97274
  4.000E+02 4.945E+02 1.251E+00 3.600E-04 1.526E-05 0.000E+00 3.753E-04 1.251E+00 2.941E+02  0.4239 0.97793
  4.500E+02 5.455E+02 1.262E+00 4.159E-04 3.492E-05 0.000E+00 4.508E-04 1.262E+00 3.339E+02  0.4800 0.98176
  5.000E+02 5.964E+02 1.273E+00 4.740E-04 5.289E-05 0.000E+00 5.269E-04 1.273E+00 3.734E+02  0.5348 0.98467
  5.500E+02 6.471E+02 1.284E+00 5.343E-04 7.374E-05 0.000E+00 6.080E-04 1.284E+00 4.125E+02  0.5881 0.98693
  6.000E+02 6.977E+02 1.295E+00 5.965E-04 9.768E-05 0.000E+00 6.942E-04 1.295E+00 4.512E+02  0.6398 0.98873
  7.000E+02 7.987E+02 1.315E+00 7.265E-04 1.545E-04 0.000E+00 8.810E-04 1.316E+00 5.278E+02  0.7390 0.99136
  8.000E+02 8.995E+02 1.334E+00 8.632E-04 2.226E-04 0.000E+00 1.086E-03 1.335E+00 6.033E+02  0.8325 0.99317
  9.000E+02 1.000E+03 1.351E+00 1.006E-03 3.013E-04 0.000E+00 1.307E-03 1.352E+00 6.777E+02  0.9210 0.99447
  1.000E+03 1.101E+03 1.367E+00 1.154E-03 3.898E-04 0.000E+00 1.544E-03 1.368E+00 7.513E+02  1.0049 0.99542
  1.200E+03 1.301E+03 1.395E+00 1.466E-03 5.944E-04 2.247E-05 2.083E-03 1.397E+00 8.960E+02  1.1606 0.99672
  1.400E+03 1.502E+03 1.419E+00 1.796E-03 8.325E-04 6.099E-05 2.689E-03 1.421E+00 1.038E+03  1.3024 0.99753
  1.700E+03 1.803E+03 1.449E+00 2.319E-03 1.245E-03 1.293E-04 3.693E-03 1.453E+00 1.247E+03  1.4942 0.99829
  2.000E+03 2.103E+03 1.475E+00 2.871E-03 1.717E-03 2.089E-04 4.797E-03 1.480E+00 1.451E+03  1.6658 0.99874
  2.500E+03 2.604E+03 1.510E+00 3.849E-03 2.617E-03 3.610E-04 6.827E-03 1.517E+00 1.785E+03  1.9172 0.99918
  3.000E+03 3.104E+03 1.538E+00 4.886E-03 3.638E-03 5.186E-04 9.043E-03 1.547E+00 2.111E+03  2.1359 0.99942
  3.500E+03 3.604E+03 1.562E+00 5.973E-03 4.764E-03 6.840E-04 1.142E-02 1.573E+00 2.432E+03  2.3297 0.99957
  4.000E+03 4.104E+03 1.582E+00 7.103E-03 5.991E-03 8.596E-04 1.395E-02 1.596E+00 2.747E+03  2.5040 0.99967
  4.500E+03 4.604E+03 1.600E+00 8.272E-03 7.305E-03 1.041E-03 1.662E-02 1.616E+00 3.059E+03  2.6625 0.99974
  5.000E+03 5.105E+03 1.615E+00 9.475E-03 8.692E-03 1.215E-03 1.938E-02 1.634E+00 3.366E+03  2.8079 0.99979
  5.500E+03 5.605E+03 1.629E+00 1.071E-02 1.015E-02 1.401E-03 2.226E-02 1.651E+00 3.671E+03  2.9424 0.99982
  6.000E+03 6.105E+03 1.641E+00 1.197E-02 1.166E-02 1.575E-03 2.521E-02 1.666E+00 3.972E+03  3.0676 0.99985
  7.000E+03 7.105E+03 1.662E+00 1.457E-02 1.486E-02 1.940E-03 3.137E-02 1.694E+00 4.567E+03  3.2947 0.99989
  8.000E+03 8.105E+03 1.681E+00 1.726E-02 1.825E-02 2.302E-03 3.781E-02 1.718E+00 5.154E+03  3.4968 0.99992
  9.000E+03 9.105E+03 1.696E+00 2.003E-02 2.181E-02 2.641E-03 4.448E-02 1.741E+00 5.732E+03  3.6790 0.99993
  1.000E+04 1.011E+04 1.710E+00 2.287E-02 2.551E-02 2.989E-03 5.137E-02 1.761E+00 6.303E+03  3.8450 0.99995
  1.200E+04 1.211E+04 1.733E+00 2.872E-02 3.332E-02 3.693E-03 6.574E-02 1.799E+00 7.426E+03  4.1388 0.99996
  1.400E+04 1.411E+04 1.752E+00 3.479E-02 4.157E-02 4.396E-03 8.075E-02 1.833E+00 8.528E+03  4.3934 0.99997
  1.700E+04 1.711E+04 1.776E+00 4.421E-02 5.463E-02 5.432E-03 1.043E-01 1.880E+00 1.014E+04  4.7215 0.99998
  2.000E+04 2.011E+04 1.794E+00 5.396E-02 6.836E-02 6.445E-03 1.288E-01 1.923E+00 1.172E+04  5.0022 0.99999
  2.500E+04 2.511E+04 1.819E+00 7.079E-02 9.245E-02 8.101E-03 1.713E-01 1.990E+00 1.428E+04  5.3959 0.99999
  3.000E+04 3.011E+04 1.839E+00 8.823E-02 1.177E-01 9.720E-03 2.157E-01 2.054E+00 1.675E+04  5.7242 0.99999
  3.500E+04 3.511E+04 1.855E+00 1.062E-01 1.440E-01 1.135E-02 2.615E-01 2.116E+00 1.915E+04  6.0061 1.00000
  4.000E+04 4.011E+04 1.868E+00 1.245E-01 1.710E-01 1.296E-02 3.085E-01 2.177E+00 2.148E+04  6.2532 1.00000
  4.500E+04 4.511E+04 1.880E+00 1.432E-01 1.987E-01 1.455E-02 3.564E-01 2.236E+00 2.375E+04  6.4733 1.00000
  5.000E+04 5.011E+04 1.890E+00 1.622E-01 2.270E-01 1.613E-02 4.053E-01 2.295E+00 2.595E+04  6.6717 1.00000
  5.500E+04 5.511E+04 1.899E+00 1.815E-01 2.557E-01 1.772E-02 4.549E-01 2.354E+00 2.810E+04  6.8525 1.00000
  6.000E+04 6.011E+04 1.907E+00 2.010E-01 2.849E-01 1.929E-02 5.052E-01 2.412E+00 3.020E+04  7.0184 1.00000
  7.000E+04 7.011E+04 1.922E+00 2.407E-01 3.444E-01 2.241E-02 6.075E-01 2.529E+00 3.425E+04  7.3144 1.00000
  8.000E+04 8.011E+04 1.934E+00 2.811E-01 4.051E-01 2.553E-02 7.118E-01 2.645E+00 3.812E+04  7.5727 1.00000
  9.000E+04 9.011E+04 1.944E+00 3.222E-01 4.669E-01 2.865E-02 8.177E-01 2.762E+00 4.182E+04  7.8020 1.00000
  1.000E+05 1.001E+05 1.953E+00 3.638E-01 5.295E-01 3.170E-02 9.250E-01 2.879E+00 4.537E+04  8.0080 1.00000
  1.200E+05 1.201E+05 1.969E+00 4.485E-01 6.569E-01 3.792E-02 1.143E+00 3.113E+00 5.205E+04  8.3664 1.00000
  1.400E+05 1.401E+05 1.983E+00 5.347E-01 7.866E-01 4.412E-02 1.365E+00 3.348E+00 5.825E+04  8.6711 1.00000
  1.700E+05 1.701E+05 1.999E+00 6.664E-01 9.844E-01 5.342E-02 1.704E+00 3.703E+00 6.678E+04  9.0565 1.00000
  2.000E+05 2.001E+05 2.013E+00 8.004E-01 1.185E+00 6.276E-02 2.048E+00 4.061E+00 7.453E+04  9.3803 1.00000
  2.500E+05 2.501E+05 2.031E+00 1.028E+00 1.525E+00 7.836E-02 2.631E+00 4.662E+00 8.605E+04  9.8258 1.00000
  3.000E+05 3.001E+05 2.047E+00 1.259E+00 1.869E+00 9.405E-02 3.222E+00 5.269E+00 9.615E+04 10.1903 1.00000
  3.500E+05 3.501E+05 2.059E+00 1.493E+00 2.217E+00 1.099E-01 3.820E+00 5.879E+00 1.052E+05 10.4985 1.00000
  4.000E+05 4.001E+05 2.071E+00 1.729E+00 2.568E+00 1.259E-01 4.422E+00 6.493E+00 1.133E+05 10.7654 1.00000
  4.500E+05 4.501E+05 2.080E+00 1.967E+00 2.920E+00 1.419E-01 5.029E+00 7.110E+00 1.206E+05 11.0010 1.00000
  5.000E+05 5.001E+05 2.089E+00 2.208E+00 3.274E+00 1.580E-01 5.640E+00 7.729E+00 1.274E+05 11.2116 1.00000
  5.500E+05 5.501E+05 2.097E+00 2.449E+00 3.630E+00 1.740E-01 6.253E+00 8.351E+00 1.336E+05 11.4022 1.00000
  6.000E+05 6.001E+05 2.105E+00 2.692E+00 3.987E+00 1.901E-01 6.869E+00 8.974E+00 1.394E+05 11.5762 1.00000
  7.000E+05 7.001E+05 2.118E+00 3.181E+00 4.704E+00 2.226E-01 8.108E+00 1.023E+01 1.498E+05 11.8845 1.00000
  8.000E+05 8.001E+05 2.129E+00 3.674E+00 5.425E+00 2.554E-01 9.354E+00 1.148E+01 1.591E+05 12.1515 1.00000
  9.000E+05 9.001E+05 2.139E+00 4.169E+00 6.148E+00 2.885E-01 1.061E+01 1.274E+01 1.674E+05 12.3870 1.00000
  1.000E+06 1.000E+06 2.148E+00 4.668E+00 6.873E+00 3.219E-01 1.186E+01 1.401E+01 1.749E+05 12.5977 1.00000
  1.200E+06 1.200E+06 2.163E+00 5.670E+00 8.329E+00 3.895E-01 1.439E+01 1.655E+01 1.880E+05 12.9623 1.00000
  1.400E+06 1.400E+06 2.177E+00 6.679E+00 9.790E+00 4.581E-01 1.693E+01 1.910E+01 1.993E+05 13.2706 1.00000
  1.700E+06 1.700E+06 2.194E+00 8.201E+00 1.199E+01 5.625E-01 2.075E+01 2.295E+01 2.137E+05 13.6589 1.00000
  2.000E+06 2.000E+06 2.208E+00 9.732E+00 1.419E+01 6.686E-01 2.460E+01 2.680E+01 2.258E+05 13.9839 1.00000
  2.500E+06 2.500E+06 2.227E+00 1.230E+01 1.788E+01 8.485E-01 3.103E+01 3.325E+01 2.427E+05 14.4302 1.00000
  3.000E+06 3.000E+06 2.243E+00 1.488E+01 2.158E+01 1.032E+00 3.748E+01 3.973E+01 2.565E+05 14.7948 1.00000
  3.500E+06 3.500E+06 2.257E+00 1.746E+01 2.528E+01 1.218E+00 4.396E+01 4.622E+01 2.682E+05 15.1031 1.00000
  4.000E+06 4.000E+06 2.269E+00 2.006E+01 2.898E+01 1.407E+00 5.045E+01 5.272E+01 2.783E+05 15.3701 1.00000
  4.500E+06 4.500E+06 2.280E+00 2.266E+01 3.270E+01 1.599E+00 5.695E+01 5.923E+01 2.873E+05 15.6057 1.00000
  5.000E+06 5.000E+06 2.289E+00 2.526E+01 3.641E+01 1.792E+00 6.346E+01 6.575E+01 2.953E+05 15.8164 1.00000
  5.500E+06 5.500E+06 2.298E+00 2.787E+01 4.013E+01 1.988E+00 6.999E+01 7.228E+01 3.026E+05 16.0070 1.00000
  6.000E+06 6.000E+06 2.306E+00 3.049E+01 4.384E+01 2.185E+00 7.651E+01 7.882E+01 3.092E+05 16.1811 1.00000
  7.000E+06 7.000E+06 2.320E+00 3.572E+01 5.129E+01 2.584E+00 8.959E+01 9.191E+01 3.210E+05 16.4893 1.00000
  8.000E+06 8.000E+06 2.332E+00 4.096E+01 5.873E+01 2.990E+00 1.027E+02 1.050E+02 3.312E+05 16.7564 1.00000
  9.000E+06 9.000E+06 2.343E+00 4.621E+01 6.618E+01 3.400E+00 1.158E+02 1.181E+02 3.402E+05 16.9920 1.00000
  1.000E+07 1.000E+07 2.353E+00 5.146E+01 7.364E+01 3.816E+00 1.289E+02 1.313E+02 3.482E+05 17.2027 1.00000
  1.200E+07 1.200E+07 2.370E+00 6.199E+01 8.856E+01 4.659E+00 1.552E+02 1.576E+02 3.622E+05 17.5673 1.00000
  1.400E+07 1.400E+07 2.385E+00 7.252E+01 1.035E+02 5.518E+00 1.815E+02 1.839E+02 3.740E+05 17.8756 1.00000
  1.700E+07 1.700E+07 2.403E+00 8.834E+01 1.259E+02 6.831E+00 2.211E+02 2.235E+02 3.889E+05 18.2639 1.00000
  2.000E+07 2.000E+07 2.419E+00 1.042E+02 1.483E+02 8.168E+00 2.606E+02 2.631E+02 4.013E+05 18.5890 1.00000
  2.500E+07 2.500E+07 2.441E+00 1.306E+02 1.857E+02 1.044E+01 3.267E+02 3.291E+02 4.184E+05 19.0353 1.00000
  3.000E+07 3.000E+07 2.459E+00 1.570E+02 2.230E+02 1.277E+01 3.928E+02 3.953E+02 4.323E+05 19.3999 1.00000
  3.500E+07 3.500E+07 2.474E+00 1.835E+02 2.604E+02 1.514E+01 4.591E+02 4.615E+02 4.440E+05 19.7082 1.00000
  4.000E+07 4.000E+07 2.487E+00 2.100E+02 2.978E+02 1.755E+01 5.253E+02 5.278E+02 4.542E+05 19.9753 1.00000
  4.500E+07 4.500E+07 2.499E+00 2.364E+02 3.352E+02 1.999E+01 5.916E+02 5.941E+02 4.631E+05 20.2108 1.00000
  5.000E+07 5.000E+07 2.509E+00 2.629E+02 3.726E+02 2.246E+01 6.580E+02 6.605E+02 4.711E+05 20.4215 1.00000
  5.500E+07 5.500E+07 2.519E+00 2.894E+02 4.100E+02 2.496E+01 7.244E+02 7.269E+02 4.783E+05 20.6122 1.00000
  6.000E+07 6.000E+07 2.528E+00 3.159E+02 4.474E+02 2.749E+01 7.908E+02 7.933E+02 4.849E+05 20.7862 1.00000
  7.000E+07 7.000E+07 2.544E+00 3.689E+02 5.222E+02 3.261E+01 9.237E+02 9.263E+02 4.966E+05 21.0945 1.00000
  8.000E+07 8.000E+07 2.557E+00 4.219E+02 5.970E+02 3.781E+01 1.057E+03 1.059E+03 5.068E+05 21.3616 1.00000
  9.000E+07 9.000E+07 2.569E+00 4.750E+02 6.718E+02 4.308E+01 1.190E+03 1.192E+03 5.157E+05 21.5971 1.00000
  1.000E+08 1.000E+08 2.580E+00 5.280E+02 7.467E+02 4.842E+01 1.323E+03 1.326E+03 5.236E+05 21.8078 1.00000
  1.200E+08 1.200E+08 2.599E+00 6.341E+02 8.963E+02 5.929E+01 1.590E+03 1.592E+03 5.375E+05 22.1725 1.00000
  1.400E+08 1.400E+08 2.616E+00 7.402E+02 1.046E+03 7.036E+01 1.856E+03 1.859E+03 5.491E+05 22.4808 1.00000
  1.700E+08 1.700E+08 2.636E+00 8.993E+02 1.270E+03 8.729E+01 2.257E+03 2.260E+03 5.638E+05 22.8691 1.00000
  2.000E+08 2.000E+08 2.654E+00 1.059E+03 1.495E+03 1.046E+02 2.658E+03 2.661E+03 5.761E+05 23.1941 1.00000
  2.500E+08 2.500E+08 2.678E+00 1.324E+03 1.869E+03 1.340E+02 3.327E+03 3.330E+03 5.930E+05 23.6404 1.00000
  3.000E+08 3.000E+08 2.698E+00 1.589E+03 2.243E+03 1.642E+02 3.997E+03 3.999E+03 6.068E+05 24.0051 1.00000
  3.500E+08 3.500E+08 2.715E+00 1.855E+03 2.617E+03 1.949E+02 4.667E+03 4.670E+03 6.184E+05 24.3134 1.00000
  4.000E+08 4.000E+08 2.730E+00 2.120E+03 2.992E+03 2.262E+02 5.338E+03 5.341E+03 6.284E+05 24.5804 1.00000
  4.500E+08 4.500E+08 2.743E+00 2.385E+03 3.366E+03 2.579E+02 6.009E+03 6.012E+03 6.372E+05 24.8160 1.00000
  5.000E+08 5.000E+08 2.755E+00 2.651E+03 3.740E+03 2.901E+02 6.681E+03 6.684E+03 6.451E+05 25.0267 1.00000
  5.500E+08 5.500E+08 2.765E+00 2.916E+03 4.114E+03 3.226E+02 7.353E+03 7.356E+03 6.523E+05 25.2173 1.00000
  6.000E+08 6.000E+08 2.775E+00 3.182E+03 4.488E+03 3.554E+02 8.025E+03 8.028E+03 6.588E+05 25.3914 1.00000
  7.000E+08 7.000E+08 2.793E+00 3.712E+03 5.237E+03 4.221E+02 9.371E+03 9.374E+03 6.704E+05 25.6997 1.00000
  8.000E+08 8.000E+08 2.808E+00 4.243E+03 5.985E+03 4.899E+02 1.072E+04 1.072E+04 6.803E+05 25.9667 1.00000
  9.000E+08 9.000E+08 2.822E+00 4.774E+03 6.733E+03 5.587E+02 1.207E+04 1.207E+04 6.892E+05 26.2023 1.00000
  1.000E+09 1.000E+09 2.834E+00 5.305E+03 7.481E+03 6.285E+02 1.341E+04 1.342E+04 6.970E+05 26.4130 1.00000
