 Incident particle is a Muon with M = 105.65839 MeV
 Index = 0: Terbium
      Absorber with <Z/A> = 0.40900
 Sternheimer coef:  a     k=m_s   x_0    x_1    I[eV]   Cbar  delta0
                 0.2445  2.6056  0.0947  3.4224  614.0  5.9044 0.14

 *** Table generated with PUMAS v1.00 ***

      T         p     Ionization  brems     pair     photonuc  Radloss    dE/dx   CSDA Range  delta   beta
    [MeV]    [MeV/c]  -----------------------[MeV cm^2/g]------------------------  [g/cm^2]
  1.000E+00 1.457E+01 2.309E+01 4.651E-06 0.000E+00 0.000E+00 4.651E-06 2.309E+01 2.166E-02  0.0017 0.13661
  1.200E+00 1.597E+01 2.030E+01 5.342E-06 0.000E+00 0.000E+00 5.342E-06 2.030E+01 3.092E-02  0.0021 0.14944
  1.400E+00 1.726E+01 1.818E+01 5.997E-06 0.000E+00 0.000E+00 5.997E-06 1.818E+01 4.134E-02  0.0024 0.16119
  1.700E+00 1.903E+01 1.579E+01 6.923E-06 0.000E+00 0.000E+00 6.923E-06 1.579E+01 5.909E-02  0.0029 0.17725
  2.000E+00 2.066E+01 1.402E+01 7.793E-06 0.000E+00 0.000E+00 7.793E-06 1.402E+01 7.928E-02  0.0035 0.19186
  2.500E+00 2.312E+01 1.189E+01 9.141E-06 0.000E+00 0.000E+00 9.141E-06 1.189E+01 1.181E-01  0.0043 0.21376
  3.000E+00 2.536E+01 1.038E+01 1.039E-05 0.000E+00 0.000E+00 1.039E-05 1.038E+01 1.633E-01  0.0052 0.23336
  3.500E+00 2.742E+01 9.252E+00 1.155E-05 0.000E+00 0.000E+00 1.155E-05 9.252E+00 2.144E-01  0.0061 0.25120
  4.000E+00 2.935E+01 8.373E+00 1.265E-05 0.000E+00 0.000E+00 1.265E-05 8.373E+00 2.712E-01  0.0070 0.26763
  4.500E+00 3.116E+01 7.668E+00 1.368E-05 0.000E+00 0.000E+00 1.368E-05 7.668E+00 3.337E-01  0.0079 0.28290
  5.000E+00 3.289E+01 7.089E+00 1.467E-05 0.000E+00 0.000E+00 1.467E-05 7.089E+00 4.016E-01  0.0088 0.29720
  5.500E+00 3.453E+01 6.603E+00 1.561E-05 0.000E+00 0.000E+00 1.561E-05 6.603E+00 4.747E-01  0.0097 0.31066
  6.000E+00 3.611E+01 6.191E+00 1.651E-05 0.000E+00 0.000E+00 1.651E-05 6.191E+00 5.529E-01  0.0106 0.32339
  7.000E+00 3.909E+01 5.525E+00 1.822E-05 0.000E+00 0.000E+00 1.822E-05 5.525E+00 7.242E-01  0.0124 0.34700
  8.000E+00 4.189E+01 5.011E+00 1.981E-05 0.000E+00 0.000E+00 1.981E-05 5.011E+00 9.145E-01  0.0142 0.36854
  9.000E+00 4.453E+01 4.601E+00 2.131E-05 0.000E+00 0.000E+00 2.131E-05 4.601E+00 1.123E+00  0.0161 0.38836
  1.000E+01 4.704E+01 4.266E+00 2.272E-05 0.000E+00 0.000E+00 2.272E-05 4.266E+00 1.349E+00  0.0179 0.40675
  1.200E+01 5.177E+01 3.750E+00 2.537E-05 0.000E+00 0.000E+00 2.537E-05 3.750E+00 1.850E+00  0.0217 0.43998
  1.400E+01 5.616E+01 3.372E+00 2.781E-05 0.000E+00 0.000E+00 2.781E-05 3.372E+00 2.413E+00  0.0256 0.46937
  1.700E+01 6.230E+01 2.961E+00 3.119E-05 0.000E+00 0.000E+00 3.119E-05 2.961E+00 3.365E+00  0.0315 0.50792
  2.000E+01 6.802E+01 2.666E+00 3.432E-05 0.000E+00 0.000E+00 3.432E-05 2.666E+00 4.434E+00  0.0375 0.54129
  2.500E+01 7.686E+01 2.324E+00 3.916E-05 0.000E+00 0.000E+00 3.916E-05 2.325E+00 6.447E+00  0.0479 0.58827
  3.000E+01 8.509E+01 2.093E+00 4.370E-05 0.000E+00 0.000E+00 4.370E-05 2.093E+00 8.717E+00  0.0587 0.62720
  3.500E+01 9.285E+01 1.926E+00 4.804E-05 0.000E+00 0.000E+00 4.804E-05 1.926E+00 1.121E+01  0.0699 0.66011
  4.000E+01 1.003E+02 1.800E+00 5.227E-05 0.000E+00 0.000E+00 5.227E-05 1.800E+00 1.390E+01  0.0815 0.68834
  4.500E+01 1.074E+02 1.702E+00 5.642E-05 0.000E+00 0.000E+00 5.642E-05 1.703E+00 1.675E+01  0.0935 0.71286
  5.000E+01 1.143E+02 1.625E+00 6.053E-05 0.000E+00 0.000E+00 6.053E-05 1.625E+00 1.976E+01  0.1059 0.73434
  5.500E+01 1.210E+02 1.561E+00 6.462E-05 0.000E+00 0.000E+00 6.462E-05 1.561E+00 2.290E+01  0.1188 0.75332
  6.000E+01 1.276E+02 1.509E+00 6.872E-05 0.000E+00 0.000E+00 6.872E-05 1.509E+00 2.616E+01  0.1320 0.77019
  7.000E+01 1.403E+02 1.430E+00 7.694E-05 0.000E+00 0.000E+00 7.694E-05 1.430E+00 3.297E+01  0.1463 0.79887
  8.000E+01 1.527E+02 1.373E+00 8.527E-05 0.000E+00 0.000E+00 8.527E-05 1.373E+00 4.011E+01  0.1578 0.82227
  9.000E+01 1.647E+02 1.330E+00 9.375E-05 0.000E+00 0.000E+00 9.375E-05 1.330E+00 4.751E+01  0.1705 0.84166
  1.000E+02 1.764E+02 1.298E+00 1.024E-04 0.000E+00 0.000E+00 1.024E-04 1.298E+00 5.512E+01  0.1840 0.85794
  1.200E+02 1.994E+02 1.253E+00 1.202E-04 0.000E+00 0.000E+00 1.202E-04 1.254E+00 7.080E+01  0.2125 0.88361
  1.400E+02 2.218E+02 1.226E+00 1.387E-04 0.000E+00 0.000E+00 1.387E-04 1.226E+00 8.693E+01  0.2420 0.90278
  1.700E+02 2.546E+02 1.203E+00 1.679E-04 0.000E+00 0.000E+00 1.679E-04 1.203E+00 1.116E+02  0.2868 0.92363
  2.000E+02 2.868E+02 1.192E+00 1.986E-04 0.000E+00 0.000E+00 1.986E-04 1.192E+00 1.367E+02  0.3312 0.93835
  2.500E+02 3.396E+02 1.189E+00 2.533E-04 0.000E+00 0.000E+00 2.533E-04 1.189E+00 1.787E+02  0.4033 0.95485
  3.000E+02 3.917E+02 1.193E+00 3.118E-04 0.000E+00 0.000E+00 3.118E-04 1.194E+00 2.207E+02  0.4723 0.96548
  3.500E+02 4.432E+02 1.202E+00 3.738E-04 0.000E+00 0.000E+00 3.738E-04 1.202E+00 2.624E+02  0.5383 0.97274
  4.000E+02 4.945E+02 1.213E+00 4.391E-04 0.000E+00 0.000E+00 4.391E-04 1.213E+00 3.038E+02  0.6011 0.97793
  4.500E+02 5.455E+02 1.224E+00 5.074E-04 3.834E-05 0.000E+00 5.457E-04 1.224E+00 3.448E+02  0.6612 0.98176
  5.000E+02 5.964E+02 1.235E+00 5.785E-04 6.500E-05 0.000E+00 6.435E-04 1.236E+00 3.855E+02  0.7187 0.98467
  5.500E+02 6.471E+02 1.246E+00 6.523E-04 9.146E-05 0.000E+00 7.437E-04 1.247E+00 4.258E+02  0.7737 0.98693
  6.000E+02 6.977E+02 1.257E+00 7.284E-04 1.214E-04 0.000E+00 8.498E-04 1.258E+00 4.657E+02  0.8266 0.98873
  7.000E+02 7.987E+02 1.278E+00 8.876E-04 1.924E-04 0.000E+00 1.080E-03 1.279E+00 5.445E+02  0.9264 0.99136
  8.000E+02 8.995E+02 1.297E+00 1.055E-03 2.774E-04 0.000E+00 1.333E-03 1.298E+00 6.222E+02  1.0192 0.99317
  9.000E+02 1.000E+03 1.314E+00 1.230E-03 3.757E-04 0.000E+00 1.606E-03 1.316E+00 6.987E+02  1.1060 0.99447
  1.000E+03 1.101E+03 1.330E+00 1.412E-03 4.864E-04 0.000E+00 1.898E-03 1.332E+00 7.742E+02  1.1876 0.99542
  1.200E+03 1.301E+03 1.359E+00 1.794E-03 7.421E-04 2.246E-05 2.559E-03 1.361E+00 9.228E+02  1.3377 0.99672
  1.400E+03 1.502E+03 1.383E+00 2.199E-03 1.040E-03 6.092E-05 3.299E-03 1.387E+00 1.068E+03  1.4732 0.99753
  1.700E+03 1.803E+03 1.415E+00 2.841E-03 1.556E-03 1.291E-04 4.526E-03 1.419E+00 1.282E+03  1.6552 0.99829
  2.000E+03 2.103E+03 1.441E+00 3.520E-03 2.146E-03 2.083E-04 5.874E-03 1.447E+00 1.492E+03  1.8169 0.99874
  2.500E+03 2.604E+03 1.477E+00 4.722E-03 3.271E-03 3.595E-04 8.352E-03 1.486E+00 1.833E+03  2.0529 0.99918
  3.000E+03 3.104E+03 1.507E+00 5.997E-03 4.548E-03 5.159E-04 1.106E-02 1.518E+00 2.166E+03  2.2573 0.99942
  3.500E+03 3.604E+03 1.531E+00 7.334E-03 5.955E-03 6.800E-04 1.397E-02 1.545E+00 2.492E+03  2.4381 0.99957
  4.000E+03 4.104E+03 1.552E+00 8.726E-03 7.487E-03 8.540E-04 1.707E-02 1.569E+00 2.813E+03  2.6006 0.99967
  4.500E+03 4.604E+03 1.570E+00 1.016E-02 9.125E-03 1.034E-03 2.032E-02 1.591E+00 3.130E+03  2.7482 0.99974
  5.000E+03 5.105E+03 1.586E+00 1.165E-02 1.085E-02 1.206E-03 2.371E-02 1.610E+00 3.442E+03  2.8837 0.99979
  5.500E+03 5.605E+03 1.601E+00 1.317E-02 1.267E-02 1.390E-03 2.722E-02 1.628E+00 3.751E+03  3.0089 0.99982
  6.000E+03 6.105E+03 1.614E+00 1.472E-02 1.456E-02 1.561E-03 3.084E-02 1.645E+00 4.056E+03  3.1255 0.99985
  7.000E+03 7.105E+03 1.636E+00 1.792E-02 1.854E-02 1.923E-03 3.838E-02 1.675E+00 4.659E+03  3.3372 0.99989
  8.000E+03 8.105E+03 1.655E+00 2.124E-02 2.276E-02 2.281E-03 4.628E-02 1.702E+00 5.252E+03  3.5257 0.99992
  9.000E+03 9.105E+03 1.672E+00 2.465E-02 2.719E-02 2.615E-03 5.445E-02 1.726E+00 5.835E+03  3.6958 0.99993
  1.000E+04 1.011E+04 1.686E+00 2.815E-02 3.181E-02 2.959E-03 6.291E-02 1.749E+00 6.411E+03  3.8511 0.99995
  1.200E+04 1.211E+04 1.711E+00 3.537E-02 4.152E-02 3.653E-03 8.054E-02 1.791E+00 7.540E+03  4.1262 0.99996
  1.400E+04 1.411E+04 1.731E+00 4.284E-02 5.178E-02 4.346E-03 9.897E-02 1.830E+00 8.645E+03  4.3652 0.99997
  1.700E+04 1.711E+04 1.755E+00 5.446E-02 6.801E-02 5.366E-03 1.278E-01 1.883E+00 1.026E+04  4.6740 0.99998
  2.000E+04 2.011E+04 1.775E+00 6.648E-02 8.508E-02 6.364E-03 1.579E-01 1.933E+00 1.183E+04  4.9390 0.99999
  2.500E+04 2.511E+04 1.801E+00 8.723E-02 1.150E-01 7.993E-03 2.102E-01 2.012E+00 1.437E+04  5.3121 0.99999
  3.000E+04 3.011E+04 1.822E+00 1.087E-01 1.464E-01 9.586E-03 2.647E-01 2.087E+00 1.681E+04  5.6245 0.99999
  3.500E+04 3.511E+04 1.839E+00 1.308E-01 1.789E-01 1.119E-02 3.210E-01 2.160E+00 1.917E+04  5.8937 1.00000
  4.000E+04 4.011E+04 1.853E+00 1.534E-01 2.125E-01 1.277E-02 3.787E-01 2.232E+00 2.144E+04  6.1304 1.00000
  4.500E+04 4.511E+04 1.865E+00 1.765E-01 2.468E-01 1.433E-02 4.376E-01 2.303E+00 2.365E+04  6.3419 1.00000
  5.000E+04 5.011E+04 1.876E+00 1.999E-01 2.818E-01 1.588E-02 4.976E-01 2.374E+00 2.579E+04  6.5331 1.00000
  5.500E+04 5.511E+04 1.885E+00 2.237E-01 3.174E-01 1.744E-02 5.585E-01 2.444E+00 2.786E+04  6.7076 1.00000
  6.000E+04 6.011E+04 1.894E+00 2.478E-01 3.535E-01 1.899E-02 6.203E-01 2.514E+00 2.988E+04  6.8681 1.00000
  7.000E+04 7.011E+04 1.909E+00 2.967E-01 4.271E-01 2.205E-02 7.459E-01 2.655E+00 3.375E+04  7.1554 1.00000
  8.000E+04 8.011E+04 1.921E+00 3.466E-01 5.022E-01 2.511E-02 8.739E-01 2.795E+00 3.743E+04  7.4071 1.00000
  9.000E+04 9.011E+04 1.932E+00 3.972E-01 5.786E-01 2.817E-02 1.004E+00 2.936E+00 4.092E+04  7.6311 1.00000
  1.000E+05 1.001E+05 1.942E+00 4.485E-01 6.560E-01 3.116E-02 1.136E+00 3.078E+00 4.425E+04  7.8329 1.00000
  1.200E+05 1.201E+05 1.958E+00 5.528E-01 8.133E-01 3.726E-02 1.403E+00 3.362E+00 5.047E+04  8.1853 1.00000
  1.400E+05 1.401E+05 1.972E+00 6.591E-01 9.735E-01 4.334E-02 1.676E+00 3.648E+00 5.619E+04  8.4861 1.00000
  1.700E+05 1.701E+05 1.989E+00 8.213E-01 1.218E+00 5.245E-02 2.091E+00 4.080E+00 6.397E+04  8.8680 1.00000
  2.000E+05 2.001E+05 2.002E+00 9.862E-01 1.465E+00 6.160E-02 2.513E+00 4.516E+00 7.097E+04  9.1900 1.00000
  2.500E+05 2.501E+05 2.021E+00 1.266E+00 1.884E+00 7.688E-02 3.227E+00 5.248E+00 8.127E+04  9.6345 1.00000
  3.000E+05 3.001E+05 2.036E+00 1.550E+00 2.309E+00 9.226E-02 3.951E+00 5.988E+00 9.021E+04  9.9990 1.00000
  3.500E+05 3.501E+05 2.049E+00 1.838E+00 2.737E+00 1.078E-01 4.683E+00 6.733E+00 9.810E+04 10.3072 1.00000
  4.000E+05 4.001E+05 2.060E+00 2.129E+00 3.169E+00 1.234E-01 5.422E+00 7.482E+00 1.052E+05 10.5741 1.00000
  4.500E+05 4.501E+05 2.070E+00 2.423E+00 3.603E+00 1.391E-01 6.165E+00 8.235E+00 1.115E+05 10.8097 1.00000
  5.000E+05 5.001E+05 2.079E+00 2.718E+00 4.039E+00 1.549E-01 6.912E+00 8.991E+00 1.173E+05 11.0203 1.00000
  5.500E+05 5.501E+05 2.087E+00 3.015E+00 4.477E+00 1.706E-01 7.663E+00 9.750E+00 1.227E+05 11.2109 1.00000
  6.000E+05 6.001E+05 2.095E+00 3.314E+00 4.917E+00 1.863E-01 8.417E+00 1.051E+01 1.276E+05 11.3849 1.00000
  7.000E+05 7.001E+05 2.108E+00 3.915E+00 5.800E+00 2.181E-01 9.933E+00 1.204E+01 1.365E+05 11.6932 1.00000
  8.000E+05 8.001E+05 2.119E+00 4.521E+00 6.686E+00 2.502E-01 1.146E+01 1.358E+01 1.444E+05 11.9602 1.00000
  9.000E+05 9.001E+05 2.129E+00 5.130E+00 7.576E+00 2.826E-01 1.299E+01 1.512E+01 1.514E+05 12.1957 1.00000
  1.000E+06 1.000E+06 2.138E+00 5.742E+00 8.468E+00 3.153E-01 1.453E+01 1.666E+01 1.577E+05 12.4064 1.00000
  1.200E+06 1.200E+06 2.154E+00 6.974E+00 1.026E+01 3.815E-01 1.761E+01 1.977E+01 1.687E+05 12.7710 1.00000
  1.400E+06 1.400E+06 2.167E+00 8.213E+00 1.206E+01 4.486E-01 2.072E+01 2.289E+01 1.782E+05 13.0793 1.00000
  1.700E+06 1.700E+06 2.184E+00 1.008E+01 1.476E+01 5.507E-01 2.540E+01 2.758E+01 1.902E+05 13.4676 1.00000
  2.000E+06 2.000E+06 2.198E+00 1.196E+01 1.747E+01 6.545E-01 3.009E+01 3.229E+01 2.002E+05 13.7926 1.00000
  2.500E+06 2.500E+06 2.218E+00 1.511E+01 2.200E+01 8.306E-01 3.795E+01 4.017E+01 2.142E+05 14.2389 1.00000
  3.000E+06 3.000E+06 2.234E+00 1.828E+01 2.655E+01 1.010E+00 4.584E+01 4.807E+01 2.256E+05 14.6035 1.00000
  3.500E+06 3.500E+06 2.248E+00 2.146E+01 3.110E+01 1.192E+00 5.375E+01 5.599E+01 2.353E+05 14.9118 1.00000
  4.000E+06 4.000E+06 2.260E+00 2.464E+01 3.565E+01 1.377E+00 6.167E+01 6.393E+01 2.437E+05 15.1788 1.00000
  4.500E+06 4.500E+06 2.270E+00 2.783E+01 4.022E+01 1.565E+00 6.961E+01 7.188E+01 2.511E+05 15.4144 1.00000
  5.000E+06 5.000E+06 2.280E+00 3.103E+01 4.478E+01 1.754E+00 7.756E+01 7.984E+01 2.577E+05 15.6251 1.00000
  5.500E+06 5.500E+06 2.289E+00 3.423E+01 4.935E+01 1.945E+00 8.552E+01 8.781E+01 2.637E+05 15.8157 1.00000
  6.000E+06 6.000E+06 2.297E+00 3.744E+01 5.392E+01 2.138E+00 9.349E+01 9.579E+01 2.691E+05 15.9898 1.00000
  7.000E+06 7.000E+06 2.311E+00 4.386E+01 6.306E+01 2.529E+00 1.094E+02 1.118E+02 2.788E+05 16.2980 1.00000
  8.000E+06 8.000E+06 2.323E+00 5.029E+01 7.222E+01 2.925E+00 1.254E+02 1.278E+02 2.872E+05 16.5651 1.00000
  9.000E+06 9.000E+06 2.334E+00 5.673E+01 8.137E+01 3.327E+00 1.414E+02 1.438E+02 2.946E+05 16.8007 1.00000
  1.000E+07 1.000E+07 2.344E+00 6.317E+01 9.054E+01 3.734E+00 1.574E+02 1.598E+02 3.012E+05 17.0114 1.00000
  1.200E+07 1.200E+07 2.361E+00 7.608E+01 1.089E+02 4.559E+00 1.895E+02 1.919E+02 3.127E+05 17.3760 1.00000
  1.400E+07 1.400E+07 2.376E+00 8.900E+01 1.272E+02 5.399E+00 2.216E+02 2.240E+02 3.223E+05 17.6843 1.00000
  1.700E+07 1.700E+07 2.395E+00 1.084E+02 1.547E+02 6.683E+00 2.698E+02 2.722E+02 3.345E+05 18.0726 1.00000
  2.000E+07 2.000E+07 2.410E+00 1.278E+02 1.823E+02 7.992E+00 3.181E+02 3.205E+02 3.447E+05 18.3977 1.00000
  2.500E+07 2.500E+07 2.432E+00 1.602E+02 2.282E+02 1.022E+01 3.986E+02 4.011E+02 3.588E+05 18.8440 1.00000
  3.000E+07 3.000E+07 2.450E+00 1.927E+02 2.741E+02 1.250E+01 4.793E+02 4.817E+02 3.702E+05 19.2086 1.00000
  3.500E+07 3.500E+07 2.465E+00 2.251E+02 3.200E+02 1.481E+01 5.600E+02 5.624E+02 3.798E+05 19.5169 1.00000
  4.000E+07 4.000E+07 2.478E+00 2.576E+02 3.660E+02 1.717E+01 6.407E+02 6.432E+02 3.882E+05 19.7840 1.00000
  4.500E+07 4.500E+07 2.490E+00 2.900E+02 4.119E+02 1.956E+01 7.215E+02 7.240E+02 3.955E+05 20.0195 1.00000
  5.000E+07 5.000E+07 2.501E+00 3.225E+02 4.579E+02 2.198E+01 8.024E+02 8.049E+02 4.021E+05 20.2302 1.00000
  5.500E+07 5.500E+07 2.511E+00 3.550E+02 5.038E+02 2.442E+01 8.832E+02 8.858E+02 4.080E+05 20.4209 1.00000
  6.000E+07 6.000E+07 2.519E+00 3.875E+02 5.498E+02 2.689E+01 9.642E+02 9.667E+02 4.134E+05 20.5949 1.00000
  7.000E+07 7.000E+07 2.535E+00 4.525E+02 6.417E+02 3.190E+01 1.126E+03 1.129E+03 4.230E+05 20.9032 1.00000
  8.000E+07 8.000E+07 2.549E+00 5.175E+02 7.336E+02 3.699E+01 1.288E+03 1.291E+03 4.313E+05 21.1703 1.00000
  9.000E+07 9.000E+07 2.561E+00 5.825E+02 8.255E+02 4.215E+01 1.450E+03 1.453E+03 4.386E+05 21.4058 1.00000
  1.000E+08 1.000E+08 2.572E+00 6.475E+02 9.175E+02 4.737E+01 1.612E+03 1.615E+03 4.452E+05 21.6165 1.00000
  1.200E+08 1.200E+08 2.591E+00 7.776E+02 1.101E+03 5.800E+01 1.937E+03 1.940E+03 4.565E+05 21.9812 1.00000
  1.400E+08 1.400E+08 2.608E+00 9.077E+02 1.285E+03 6.883E+01 2.262E+03 2.264E+03 4.661E+05 22.2895 1.00000
  1.700E+08 1.700E+08 2.628E+00 1.103E+03 1.561E+03 8.540E+01 2.749E+03 2.752E+03 4.781E+05 22.6778 1.00000
  2.000E+08 2.000E+08 2.646E+00 1.298E+03 1.837E+03 1.023E+02 3.237E+03 3.240E+03 4.882E+05 23.0028 1.00000
  2.500E+08 2.500E+08 2.670E+00 1.623E+03 2.297E+03 1.311E+02 4.051E+03 4.054E+03 5.021E+05 23.4491 1.00000
  3.000E+08 3.000E+08 2.690E+00 1.949E+03 2.756E+03 1.606E+02 4.866E+03 4.868E+03 5.134E+05 23.8138 1.00000
  3.500E+08 3.500E+08 2.707E+00 2.274E+03 3.216E+03 1.907E+02 5.681E+03 5.684E+03 5.229E+05 24.1221 1.00000
  4.000E+08 4.000E+08 2.722E+00 2.599E+03 3.676E+03 2.213E+02 6.497E+03 6.499E+03 5.312E+05 24.3891 1.00000
  4.500E+08 4.500E+08 2.735E+00 2.925E+03 4.135E+03 2.523E+02 7.313E+03 7.315E+03 5.385E+05 24.6247 1.00000
  5.000E+08 5.000E+08 2.747E+00 3.250E+03 4.595E+03 2.838E+02 8.129E+03 8.132E+03 5.449E+05 24.8354 1.00000
  5.500E+08 5.500E+08 2.758E+00 3.576E+03 5.055E+03 3.156E+02 8.946E+03 8.949E+03 5.508E+05 25.0260 1.00000
  6.000E+08 6.000E+08 2.768E+00 3.901E+03 5.515E+03 3.477E+02 9.763E+03 9.766E+03 5.562E+05 25.2001 1.00000
  7.000E+08 7.000E+08 2.785E+00 4.552E+03 6.434E+03 4.129E+02 1.140E+04 1.140E+04 5.657E+05 25.5084 1.00000
  8.000E+08 8.000E+08 2.801E+00 5.203E+03 7.353E+03 4.793E+02 1.304E+04 1.304E+04 5.739E+05 25.7754 1.00000
  9.000E+08 9.000E+08 2.814E+00 5.853E+03 8.273E+03 5.466E+02 1.467E+04 1.468E+04 5.811E+05 26.0110 1.00000
  1.000E+09 1.000E+09 2.827E+00 6.504E+03 9.192E+03 6.148E+02 1.631E+04 1.631E+04 5.876E+05 26.2217 1.00000
