 Incident particle is a Muon with M = 105.65839 MeV
 Index = 0: Terphenyl
      Absorber with <Z/A> = 0.52146
 Sternheimer coef:  a     k=m_s   x_0    x_1    I[eV]   Cbar  delta0
                 0.1496  3.2685  0.1322  2.5429   71.7  3.2639 0.00

 *** Table generated with PUMAS v1.00 ***

      T         p     Ionization  brems     pair     photonuc  Radloss    dE/dx   CSDA Range  delta   beta
    [MeV]    [MeV/c]  -----------------------[MeV cm^2/g]------------------------  [g/cm^2]
  1.000E+00 1.457E+01 4.787E+01 6.422E-07 0.000E+00 0.000E+00 6.422E-07 4.787E+01 1.045E-02  0.0000 0.13661
  1.200E+00 1.597E+01 4.129E+01 7.352E-07 0.000E+00 0.000E+00 7.352E-07 4.129E+01 1.496E-02  0.0000 0.14944
  1.400E+00 1.726E+01 3.642E+01 8.242E-07 0.000E+00 0.000E+00 8.242E-07 3.642E+01 2.012E-02  0.0000 0.16119
  1.700E+00 1.903E+01 3.109E+01 9.511E-07 0.000E+00 0.000E+00 9.511E-07 3.109E+01 2.907E-02  0.0000 0.17725
  2.000E+00 2.066E+01 2.723E+01 1.072E-06 0.000E+00 0.000E+00 1.072E-06 2.723E+01 3.940E-02  0.0000 0.19186
  2.500E+00 2.312E+01 2.269E+01 1.261E-06 0.000E+00 0.000E+00 1.261E-06 2.269E+01 5.960E-02  0.0000 0.21376
  3.000E+00 2.536E+01 1.956E+01 1.438E-06 0.000E+00 0.000E+00 1.438E-06 1.956E+01 8.340E-02  0.0000 0.23336
  3.500E+00 2.742E+01 1.725E+01 1.605E-06 0.000E+00 0.000E+00 1.605E-06 1.725E+01 1.107E-01  0.0000 0.25120
  4.000E+00 2.935E+01 1.548E+01 1.764E-06 0.000E+00 0.000E+00 1.764E-06 1.548E+01 1.413E-01  0.0000 0.26763
  4.500E+00 3.116E+01 1.408E+01 1.916E-06 0.000E+00 0.000E+00 1.916E-06 1.408E+01 1.752E-01  0.0000 0.28290
  5.000E+00 3.289E+01 1.294E+01 2.061E-06 0.000E+00 0.000E+00 2.061E-06 1.294E+01 2.123E-01  0.0000 0.29720
  5.500E+00 3.453E+01 1.199E+01 2.202E-06 0.000E+00 0.000E+00 2.202E-06 1.199E+01 2.525E-01  0.0000 0.31066
  6.000E+00 3.611E+01 1.119E+01 2.337E-06 0.000E+00 0.000E+00 2.337E-06 1.119E+01 2.956E-01  0.0000 0.32339
  7.000E+00 3.909E+01 9.908E+00 2.595E-06 0.000E+00 0.000E+00 2.595E-06 9.908E+00 3.908E-01  0.0000 0.34700
  8.000E+00 4.189E+01 8.929E+00 2.838E-06 0.000E+00 0.000E+00 2.838E-06 8.929E+00 4.973E-01  0.0000 0.36854
  9.000E+00 4.453E+01 8.154E+00 3.069E-06 0.000E+00 0.000E+00 3.069E-06 8.154E+00 6.146E-01  0.0000 0.38836
  1.000E+01 4.704E+01 7.526E+00 3.290E-06 0.000E+00 0.000E+00 3.290E-06 7.526E+00 7.423E-01  0.0000 0.40675
  1.200E+01 5.177E+01 6.567E+00 3.705E-06 0.000E+00 0.000E+00 3.705E-06 6.567E+00 1.027E+00  0.0000 0.43998
  1.400E+01 5.616E+01 5.869E+00 4.093E-06 0.000E+00 0.000E+00 4.093E-06 5.869E+00 1.350E+00  0.0000 0.46937
  1.700E+01 6.230E+01 5.117E+00 4.634E-06 0.000E+00 0.000E+00 4.634E-06 5.117E+00 1.899E+00  0.0000 0.50792
  2.000E+01 6.802E+01 4.583E+00 5.139E-06 0.000E+00 0.000E+00 5.139E-06 4.583E+00 2.519E+00  0.0000 0.54129
  2.500E+01 7.686E+01 3.968E+00 5.922E-06 0.000E+00 0.000E+00 5.922E-06 3.968E+00 3.695E+00  0.0000 0.58827
  3.000E+01 8.509E+01 3.554E+00 6.657E-06 0.000E+00 0.000E+00 6.657E-06 3.554E+00 5.028E+00  0.0000 0.62720
  3.500E+01 9.285E+01 3.257E+00 7.360E-06 0.000E+00 0.000E+00 7.360E-06 3.257E+00 6.499E+00  0.0000 0.66011
  4.000E+01 1.003E+02 3.035E+00 8.041E-06 0.000E+00 0.000E+00 8.041E-06 3.035E+00 8.090E+00  0.0000 0.68834
  4.500E+01 1.074E+02 2.862E+00 8.707E-06 0.000E+00 0.000E+00 8.707E-06 2.862E+00 9.787E+00  0.0000 0.71286
  5.000E+01 1.143E+02 2.725E+00 9.365E-06 0.000E+00 0.000E+00 9.365E-06 2.725E+00 1.158E+01  0.0000 0.73434
  5.500E+01 1.210E+02 2.613E+00 1.002E-05 0.000E+00 0.000E+00 1.002E-05 2.613E+00 1.345E+01  0.0000 0.75332
  6.000E+01 1.276E+02 2.522E+00 1.067E-05 0.000E+00 0.000E+00 1.067E-05 2.522E+00 1.540E+01  0.0000 0.77019
  7.000E+01 1.403E+02 2.380E+00 1.197E-05 0.000E+00 0.000E+00 1.197E-05 2.380E+00 1.948E+01  0.0000 0.79887
  8.000E+01 1.527E+02 2.274E+00 1.327E-05 0.000E+00 0.000E+00 1.327E-05 2.274E+00 2.378E+01  0.0284 0.82227
  9.000E+01 1.647E+02 2.193E+00 1.460E-05 0.000E+00 0.000E+00 1.460E-05 2.193E+00 2.826E+01  0.0664 0.84166
  1.000E+02 1.764E+02 2.131E+00 1.594E-05 0.000E+00 0.000E+00 1.594E-05 2.131E+00 3.289E+01  0.1040 0.85794
  1.200E+02 1.994E+02 2.042E+00 1.869E-05 0.000E+00 0.000E+00 1.869E-05 2.042E+00 4.248E+01  0.1779 0.88361
  1.400E+02 2.218E+02 1.984E+00 2.153E-05 0.000E+00 0.000E+00 2.153E-05 1.984E+00 5.241E+01  0.2493 0.90278
  1.700E+02 2.546E+02 1.931E+00 2.598E-05 3.799E-14 0.000E+00 2.598E-05 1.931E+00 6.774E+01  0.3517 0.92363
  2.000E+02 2.868E+02 1.900E+00 3.064E-05 8.485E-12 0.000E+00 3.064E-05 1.900E+00 8.341E+01  0.4485 0.93835
  2.500E+02 3.396E+02 1.875E+00 3.886E-05 7.009E-08 0.000E+00 3.893E-05 1.875E+00 1.099E+02  0.5990 0.95485
  3.000E+02 3.917E+02 1.868E+00 4.761E-05 6.143E-07 0.000E+00 4.822E-05 1.868E+00 1.366E+02  0.7375 0.96548
  3.500E+02 4.432E+02 1.868E+00 5.683E-05 1.685E-06 0.000E+00 5.852E-05 1.868E+00 1.634E+02  0.8658 0.97274
  4.000E+02 4.945E+02 1.873E+00 6.649E-05 3.256E-06 0.000E+00 6.975E-05 1.873E+00 1.901E+02  0.9854 0.97793
  4.500E+02 5.455E+02 1.881E+00 7.655E-05 5.311E-06 0.000E+00 8.187E-05 1.881E+00 2.167E+02  1.0975 0.98176
  5.000E+02 5.964E+02 1.889E+00 8.699E-05 7.830E-06 0.000E+00 9.482E-05 1.889E+00 2.433E+02  1.2030 0.98467
  5.500E+02 6.471E+02 1.898E+00 9.778E-05 1.080E-05 0.000E+00 1.086E-04 1.898E+00 2.697E+02  1.3026 0.98693
  6.000E+02 6.977E+02 1.908E+00 1.089E-04 1.420E-05 0.000E+00 1.231E-04 1.908E+00 2.959E+02  1.3971 0.98873
  7.000E+02 7.987E+02 1.926E+00 1.320E-04 2.225E-05 0.000E+00 1.543E-04 1.926E+00 3.481E+02  1.5726 0.99136
  8.000E+02 8.995E+02 1.944E+00 1.562E-04 3.187E-05 0.000E+00 1.881E-04 1.944E+00 3.998E+02  1.7328 0.99317
  9.000E+02 1.000E+03 1.960E+00 1.815E-04 4.296E-05 0.000E+00 2.244E-04 1.961E+00 4.510E+02  1.8805 0.99447
  1.000E+03 1.101E+03 1.976E+00 2.076E-04 5.543E-05 0.000E+00 2.630E-04 1.976E+00 5.018E+02  2.0173 0.99542
  1.200E+03 1.301E+03 2.004E+00 2.623E-04 8.420E-05 2.256E-05 3.691E-04 2.004E+00 6.023E+02  2.2647 0.99672
  1.400E+03 1.502E+03 2.028E+00 3.199E-04 1.176E-04 6.184E-05 4.994E-04 2.028E+00 7.015E+02  2.4838 0.99753
  1.700E+03 1.803E+03 2.059E+00 4.111E-04 1.755E-04 1.328E-04 7.194E-04 2.060E+00 8.483E+02  2.7720 0.99829
  2.000E+03 2.103E+03 2.085E+00 5.071E-04 2.417E-04 2.167E-04 9.655E-04 2.086E+00 9.930E+02  3.0233 0.99874
  2.500E+03 2.604E+03 2.122E+00 6.765E-04 3.679E-04 3.794E-04 1.424E-03 2.123E+00 1.231E+03  3.3820 0.99918
  3.000E+03 3.104E+03 2.151E+00 8.557E-04 5.112E-04 5.510E-04 1.918E-03 2.153E+00 1.464E+03  3.6859 0.99942
  3.500E+03 3.604E+03 2.175E+00 1.043E-03 6.693E-04 7.334E-04 2.446E-03 2.178E+00 1.695E+03  3.9499 0.99957
  4.000E+03 4.104E+03 2.196E+00 1.238E-03 8.549E-04 9.288E-04 3.022E-03 2.199E+00 1.924E+03  4.1833 0.99967
  4.500E+03 4.604E+03 2.214E+00 1.440E-03 1.059E-03 1.132E-03 3.631E-03 2.218E+00 2.150E+03  4.3927 0.99974
  5.000E+03 5.105E+03 2.231E+00 1.647E-03 1.274E-03 1.329E-03 4.250E-03 2.235E+00 2.375E+03  4.5824 0.99979
  5.500E+03 5.605E+03 2.245E+00 1.860E-03 1.501E-03 1.540E-03 4.902E-03 2.250E+00 2.598E+03  4.7560 0.99982
  6.000E+03 6.105E+03 2.258E+00 2.077E-03 1.739E-03 1.738E-03 5.554E-03 2.263E+00 2.819E+03  4.9160 0.99985
  7.000E+03 7.105E+03 2.281E+00 2.526E-03 2.242E-03 2.157E-03 6.924E-03 2.288E+00 3.259E+03  5.2028 0.99989
  8.000E+03 8.105E+03 2.300E+00 2.990E-03 2.777E-03 2.574E-03 8.341E-03 2.308E+00 3.694E+03  5.4542 0.99992
  9.000E+03 9.105E+03 2.317E+00 3.468E-03 3.342E-03 2.967E-03 9.777E-03 2.326E+00 4.126E+03  5.6782 0.99993
  1.000E+04 1.011E+04 2.331E+00 3.958E-03 3.933E-03 3.374E-03 1.127E-02 2.343E+00 4.554E+03  5.8801 0.99995
  1.200E+04 1.211E+04 2.356E+00 4.972E-03 5.184E-03 4.199E-03 1.436E-02 2.371E+00 5.403E+03  6.2324 0.99996
  1.400E+04 1.411E+04 2.377E+00 6.023E-03 6.513E-03 5.029E-03 1.756E-02 2.395E+00 6.242E+03  6.5329 0.99997
  1.700E+04 1.711E+04 2.403E+00 7.659E-03 8.630E-03 6.261E-03 2.255E-02 2.425E+00 7.487E+03  6.9141 0.99998
  2.000E+04 2.011E+04 2.423E+00 9.356E-03 1.087E-02 7.473E-03 2.770E-02 2.451E+00 8.717E+03  7.2351 0.99999
  2.500E+04 2.511E+04 2.451E+00 1.229E-02 1.483E-02 9.468E-03 3.659E-02 2.488E+00 1.074E+04  7.6778 0.99999
  3.000E+04 3.011E+04 2.473E+00 1.535E-02 1.901E-02 1.143E-02 4.579E-02 2.519E+00 1.274E+04  8.0407 0.99999
  3.500E+04 3.511E+04 2.492E+00 1.849E-02 2.339E-02 1.342E-02 5.530E-02 2.547E+00 1.471E+04  8.3479 1.00000
  4.000E+04 4.011E+04 2.508E+00 2.172E-02 2.791E-02 1.539E-02 6.502E-02 2.573E+00 1.667E+04  8.6142 1.00000
  4.500E+04 4.511E+04 2.521E+00 2.502E-02 3.257E-02 1.734E-02 7.492E-02 2.596E+00 1.860E+04  8.8492 1.00000
  5.000E+04 5.011E+04 2.533E+00 2.837E-02 3.734E-02 1.928E-02 8.500E-02 2.618E+00 2.052E+04  9.0595 1.00000
  5.500E+04 5.511E+04 2.544E+00 3.178E-02 4.222E-02 2.125E-02 9.525E-02 2.640E+00 2.242E+04  9.2497 1.00000
  6.000E+04 6.011E+04 2.554E+00 3.525E-02 4.718E-02 2.319E-02 1.056E-01 2.660E+00 2.431E+04  9.4234 1.00000
  7.000E+04 7.011E+04 2.571E+00 4.230E-02 5.735E-02 2.706E-02 1.267E-01 2.698E+00 2.804E+04  9.7312 1.00000
  8.000E+04 8.011E+04 2.586E+00 4.950E-02 6.779E-02 3.094E-02 1.482E-01 2.734E+00 3.172E+04  9.9979 1.00000
  9.000E+04 9.011E+04 2.599E+00 5.684E-02 7.845E-02 3.483E-02 1.701E-01 2.769E+00 3.536E+04 10.2332 1.00000
  1.000E+05 1.001E+05 2.611E+00 6.429E-02 8.931E-02 3.865E-02 1.923E-01 2.803E+00 3.895E+04 10.4436 1.00000
  1.200E+05 1.201E+05 2.631E+00 7.948E-02 1.115E-01 4.643E-02 2.374E-01 2.868E+00 4.600E+04 10.8079 1.00000
  1.400E+05 1.401E+05 2.647E+00 9.501E-02 1.343E-01 5.422E-02 2.835E-01 2.931E+00 5.290E+04 11.1160 1.00000
  1.700E+05 1.701E+05 2.668E+00 1.188E-01 1.692E-01 6.592E-02 3.539E-01 3.022E+00 6.298E+04 11.5040 1.00000
  2.000E+05 2.001E+05 2.686E+00 1.431E-01 2.048E-01 7.770E-02 4.256E-01 3.111E+00 7.277E+04 11.8289 1.00000
  2.500E+05 2.501E+05 2.709E+00 1.844E-01 2.654E-01 9.742E-02 5.473E-01 3.257E+00 8.848E+04 12.2750 1.00000
  3.000E+05 3.001E+05 2.729E+00 2.266E-01 3.273E-01 1.173E-01 6.712E-01 3.400E+00 1.035E+05 12.6395 1.00000
  3.500E+05 3.501E+05 2.745E+00 2.695E-01 3.900E-01 1.374E-01 7.970E-01 3.542E+00 1.179E+05 12.9477 1.00000
  4.000E+05 4.001E+05 2.760E+00 3.130E-01 4.535E-01 1.577E-01 9.242E-01 3.684E+00 1.318E+05 13.2146 1.00000
  4.500E+05 4.501E+05 2.772E+00 3.569E-01 5.175E-01 1.780E-01 1.052E+00 3.825E+00 1.451E+05 13.4502 1.00000
  5.000E+05 5.001E+05 2.783E+00 4.013E-01 5.820E-01 1.986E-01 1.182E+00 3.965E+00 1.579E+05 13.6608 1.00000
  5.500E+05 5.501E+05 2.794E+00 4.460E-01 6.470E-01 2.190E-01 1.312E+00 4.106E+00 1.703E+05 13.8514 1.00000
  6.000E+05 6.001E+05 2.803E+00 4.911E-01 7.122E-01 2.395E-01 1.443E+00 4.246E+00 1.823E+05 14.0254 1.00000
  7.000E+05 7.001E+05 2.820E+00 5.819E-01 8.437E-01 2.809E-01 1.707E+00 4.526E+00 2.051E+05 14.3337 1.00000
  8.000E+05 8.001E+05 2.834E+00 6.738E-01 9.762E-01 3.228E-01 1.973E+00 4.807E+00 2.266E+05 14.6007 1.00000
  9.000E+05 9.001E+05 2.847E+00 7.663E-01 1.109E+00 3.651E-01 2.241E+00 5.088E+00 2.468E+05 14.8362 1.00000
  1.000E+06 1.000E+06 2.858E+00 8.595E-01 1.243E+00 4.077E-01 2.511E+00 5.369E+00 2.659E+05 15.0469 1.00000
  1.200E+06 1.200E+06 2.878E+00 1.048E+00 1.513E+00 4.941E-01 3.054E+00 5.933E+00 3.014E+05 15.4115 1.00000
  1.400E+06 1.400E+06 2.895E+00 1.237E+00 1.784E+00 5.817E-01 3.603E+00 6.498E+00 3.337E+05 15.7198 1.00000
  1.700E+06 1.700E+06 2.917E+00 1.525E+00 2.192E+00 7.153E-01 4.432E+00 7.349E+00 3.772E+05 16.1081 1.00000
  2.000E+06 2.000E+06 2.935E+00 1.814E+00 2.603E+00 8.510E-01 5.268E+00 8.203E+00 4.159E+05 16.4331 1.00000
  2.500E+06 2.500E+06 2.960E+00 2.301E+00 3.291E+00 1.081E+00 6.673E+00 9.633E+00 4.723E+05 16.8794 1.00000
  3.000E+06 3.000E+06 2.981E+00 2.792E+00 3.981E+00 1.316E+00 8.089E+00 1.107E+01 5.208E+05 17.2440 1.00000
  3.500E+06 3.500E+06 2.998E+00 3.285E+00 4.674E+00 1.555E+00 9.514E+00 1.251E+01 5.634E+05 17.5523 1.00000
  4.000E+06 4.000E+06 3.014E+00 3.781E+00 5.368E+00 1.797E+00 1.095E+01 1.396E+01 6.013E+05 17.8193 1.00000
  4.500E+06 4.500E+06 3.027E+00 4.279E+00 6.063E+00 2.042E+00 1.238E+01 1.541E+01 6.354E+05 18.0549 1.00000
  5.000E+06 5.000E+06 3.039E+00 4.778E+00 6.760E+00 2.290E+00 1.383E+01 1.687E+01 6.665E+05 18.2656 1.00000
  5.500E+06 5.500E+06 3.050E+00 5.279E+00 7.457E+00 2.540E+00 1.528E+01 1.833E+01 6.949E+05 18.4562 1.00000
  6.000E+06 6.000E+06 3.061E+00 5.780E+00 8.155E+00 2.793E+00 1.673E+01 1.979E+01 7.212E+05 18.6303 1.00000
  7.000E+06 7.000E+06 3.079E+00 6.786E+00 9.553E+00 3.305E+00 1.964E+01 2.272E+01 7.685E+05 18.9385 1.00000
  8.000E+06 8.000E+06 3.095E+00 7.795E+00 1.095E+01 3.824E+00 2.257E+01 2.567E+01 8.100E+05 19.2056 1.00000
  9.000E+06 9.000E+06 3.109E+00 8.806E+00 1.235E+01 4.351E+00 2.551E+01 2.862E+01 8.469E+05 19.4412 1.00000
  1.000E+07 1.000E+07 3.121E+00 9.820E+00 1.375E+01 4.883E+00 2.846E+01 3.158E+01 8.802E+05 19.6519 1.00000
  1.200E+07 1.200E+07 3.143E+00 1.185E+01 1.656E+01 5.965E+00 3.438E+01 3.752E+01 9.385E+05 20.0165 1.00000
  1.400E+07 1.400E+07 3.162E+00 1.389E+01 1.937E+01 7.066E+00 4.032E+01 4.348E+01 9.882E+05 20.3248 1.00000
  1.700E+07 1.700E+07 3.185E+00 1.695E+01 2.359E+01 8.748E+00 4.928E+01 5.247E+01 1.051E+06 20.7131 1.00000
  2.000E+07 2.000E+07 3.205E+00 2.002E+01 2.781E+01 1.046E+01 5.829E+01 6.149E+01 1.104E+06 21.0382 1.00000
  2.500E+07 2.500E+07 3.233E+00 2.514E+01 3.484E+01 1.338E+01 7.337E+01 7.660E+01 1.178E+06 21.4845 1.00000
  3.000E+07 3.000E+07 3.256E+00 3.027E+01 4.188E+01 1.637E+01 8.852E+01 9.178E+01 1.237E+06 21.8491 1.00000
  3.500E+07 3.500E+07 3.275E+00 3.541E+01 4.893E+01 1.941E+01 1.037E+02 1.070E+02 1.288E+06 22.1574 1.00000
  4.000E+07 4.000E+07 3.292E+00 4.055E+01 5.598E+01 2.249E+01 1.190E+02 1.223E+02 1.332E+06 22.4245 1.00000
  4.500E+07 4.500E+07 3.307E+00 4.570E+01 6.302E+01 2.562E+01 1.343E+02 1.377E+02 1.370E+06 22.6600 1.00000
  5.000E+07 5.000E+07 3.321E+00 5.084E+01 7.007E+01 2.879E+01 1.497E+02 1.530E+02 1.405E+06 22.8707 1.00000
  5.500E+07 5.500E+07 3.333E+00 5.600E+01 7.712E+01 3.200E+01 1.651E+02 1.685E+02 1.436E+06 23.0614 1.00000
  6.000E+07 6.000E+07 3.345E+00 6.115E+01 8.417E+01 3.524E+01 1.806E+02 1.839E+02 1.465E+06 23.2354 1.00000
  7.000E+07 7.000E+07 3.365E+00 7.146E+01 9.828E+01 4.180E+01 2.115E+02 2.149E+02 1.515E+06 23.5437 1.00000
  8.000E+07 8.000E+07 3.382E+00 8.178E+01 1.124E+02 4.847E+01 2.426E+02 2.460E+02 1.559E+06 23.8108 1.00000
  9.000E+07 9.000E+07 3.398E+00 9.210E+01 1.265E+02 5.524E+01 2.738E+02 2.772E+02 1.597E+06 24.0463 1.00000
  1.000E+08 1.000E+08 3.412E+00 1.024E+02 1.406E+02 6.209E+01 3.051E+02 3.085E+02 1.631E+06 24.2570 1.00000
  1.200E+08 1.200E+08 3.436E+00 1.231E+02 1.688E+02 7.602E+01 3.679E+02 3.714E+02 1.691E+06 24.6217 1.00000
  1.400E+08 1.400E+08 3.457E+00 1.437E+02 1.970E+02 9.021E+01 4.310E+02 4.345E+02 1.740E+06 24.9300 1.00000
  1.700E+08 1.700E+08 3.484E+00 1.748E+02 2.394E+02 1.119E+02 5.261E+02 5.295E+02 1.803E+06 25.3183 1.00000
  2.000E+08 2.000E+08 3.506E+00 2.058E+02 2.817E+02 1.341E+02 6.216E+02 6.251E+02 1.856E+06 25.6433 1.00000
  2.500E+08 2.500E+08 3.537E+00 2.575E+02 3.523E+02 1.719E+02 7.816E+02 7.852E+02 1.927E+06 26.0896 1.00000
  3.000E+08 3.000E+08 3.562E+00 3.092E+02 4.228E+02 2.106E+02 9.426E+02 9.462E+02 1.986E+06 26.4543 1.00000
  3.500E+08 3.500E+08 3.584E+00 3.609E+02 4.934E+02 2.500E+02 1.104E+03 1.108E+03 2.035E+06 26.7626 1.00000
  4.000E+08 4.000E+08 3.603E+00 4.127E+02 5.640E+02 2.901E+02 1.267E+03 1.270E+03 2.077E+06 27.0296 1.00000
  4.500E+08 4.500E+08 3.620E+00 4.644E+02 6.346E+02 3.308E+02 1.430E+03 1.433E+03 2.114E+06 27.2652 1.00000
  5.000E+08 5.000E+08 3.635E+00 5.161E+02 7.051E+02 3.720E+02 1.593E+03 1.597E+03 2.147E+06 27.4759 1.00000
  5.500E+08 5.500E+08 3.649E+00 5.679E+02 7.757E+02 4.137E+02 1.757E+03 1.761E+03 2.177E+06 27.6665 1.00000
  6.000E+08 6.000E+08 3.661E+00 6.196E+02 8.463E+02 4.558E+02 1.922E+03 1.925E+03 2.204E+06 27.8406 1.00000
  7.000E+08 7.000E+08 3.684E+00 7.231E+02 9.874E+02 5.413E+02 2.252E+03 2.256E+03 2.252E+06 28.1489 1.00000
  8.000E+08 8.000E+08 3.703E+00 8.266E+02 1.129E+03 6.283E+02 2.583E+03 2.587E+03 2.294E+06 28.4159 1.00000
  9.000E+08 9.000E+08 3.721E+00 9.302E+02 1.270E+03 7.165E+02 2.916E+03 2.920E+03 2.330E+06 28.6515 1.00000
  1.000E+09 1.000E+09 3.736E+00 1.034E+03 1.411E+03 8.060E+02 3.250E+03 3.254E+03 2.363E+06 28.8622 1.00000
