 Incident particle is a Muon with M = 105.65839 MeV
 Index = 0: Tetrachloroethylene
      Absorber with <Z/A> = 0.48241
 Sternheimer coef:  a     k=m_s   x_0    x_1    I[eV]   Cbar  delta0
                 0.1859  3.0156  0.1713  2.9083  159.2  4.6619 0.00

 *** Table generated with PUMAS v1.00 ***

      T         p     Ionization  brems     pair     photonuc  Radloss    dE/dx   CSDA Range  delta   beta
    [MeV]    [MeV/c]  -----------------------[MeV cm^2/g]------------------------  [g/cm^2]
  1.000E+00 1.457E+01 3.795E+01 1.468E-06 0.000E+00 0.000E+00 1.468E-06 3.795E+01 1.318E-02  0.0000 0.13661
  1.200E+00 1.597E+01 3.291E+01 1.686E-06 0.000E+00 0.000E+00 1.686E-06 3.291E+01 1.885E-02  0.0000 0.14944
  1.400E+00 1.726E+01 2.915E+01 1.895E-06 0.000E+00 0.000E+00 1.895E-06 2.915E+01 2.532E-02  0.0000 0.16119
  1.700E+00 1.903E+01 2.500E+01 2.191E-06 0.000E+00 0.000E+00 2.191E-06 2.500E+01 3.647E-02  0.0000 0.17725
  2.000E+00 2.066E+01 2.198E+01 2.472E-06 0.000E+00 0.000E+00 2.472E-06 2.198E+01 4.929E-02  0.0000 0.19186
  2.500E+00 2.312E+01 1.841E+01 2.910E-06 0.000E+00 0.000E+00 2.910E-06 1.841E+01 7.425E-02  0.0000 0.21376
  3.000E+00 2.536E+01 1.592E+01 3.318E-06 0.000E+00 0.000E+00 3.318E-06 1.592E+01 1.035E-01  0.0000 0.23336
  3.500E+00 2.742E+01 1.409E+01 3.701E-06 0.000E+00 0.000E+00 3.701E-06 1.409E+01 1.370E-01  0.0000 0.25120
  4.000E+00 2.935E+01 1.268E+01 4.065E-06 0.000E+00 0.000E+00 4.065E-06 1.268E+01 1.744E-01  0.0000 0.26763
  4.500E+00 3.116E+01 1.155E+01 4.411E-06 0.000E+00 0.000E+00 4.411E-06 1.155E+01 2.158E-01  0.0000 0.28290
  5.000E+00 3.289E+01 1.063E+01 4.742E-06 0.000E+00 0.000E+00 4.742E-06 1.063E+01 2.610E-01  0.0000 0.29720
  5.500E+00 3.453E+01 9.868E+00 5.059E-06 0.000E+00 0.000E+00 5.059E-06 9.868E+00 3.098E-01  0.0000 0.31066
  6.000E+00 3.611E+01 9.221E+00 5.365E-06 0.000E+00 0.000E+00 5.365E-06 9.221E+00 3.623E-01  0.0000 0.32339
  7.000E+00 3.909E+01 8.185E+00 5.945E-06 0.000E+00 0.000E+00 5.945E-06 8.185E+00 4.776E-01  0.0000 0.34700
  8.000E+00 4.189E+01 7.390E+00 6.490E-06 0.000E+00 0.000E+00 6.490E-06 7.390E+00 6.063E-01  0.0000 0.36854
  9.000E+00 4.453E+01 6.760E+00 7.006E-06 0.000E+00 0.000E+00 7.006E-06 6.760E+00 7.479E-01  0.0000 0.38836
  1.000E+01 4.704E+01 6.248E+00 7.497E-06 0.000E+00 0.000E+00 7.497E-06 6.248E+00 9.019E-01  0.0000 0.40675
  1.200E+01 5.177E+01 5.465E+00 8.418E-06 0.000E+00 0.000E+00 8.418E-06 5.465E+00 1.245E+00  0.0000 0.43998
  1.400E+01 5.616E+01 4.893E+00 9.273E-06 0.000E+00 0.000E+00 9.273E-06 4.893E+00 1.632E+00  0.0000 0.46937
  1.700E+01 6.230E+01 4.276E+00 1.046E-05 0.000E+00 0.000E+00 1.046E-05 4.276E+00 2.290E+00  0.0000 0.50792
  2.000E+01 6.802E+01 3.836E+00 1.157E-05 0.000E+00 0.000E+00 1.157E-05 3.836E+00 3.031E+00  0.0000 0.54129
  2.500E+01 7.686E+01 3.330E+00 1.328E-05 0.000E+00 0.000E+00 1.328E-05 3.330E+00 4.434E+00  0.0000 0.58827
  3.000E+01 8.509E+01 2.988E+00 1.489E-05 0.000E+00 0.000E+00 1.489E-05 2.988E+00 6.021E+00  0.0000 0.62720
  3.500E+01 9.285E+01 2.742E+00 1.642E-05 0.000E+00 0.000E+00 1.642E-05 2.742E+00 7.770E+00  0.0000 0.66011
  4.000E+01 1.003E+02 2.558E+00 1.791E-05 0.000E+00 0.000E+00 1.791E-05 2.558E+00 9.659E+00  0.0000 0.68834
  4.500E+01 1.074E+02 2.415E+00 1.937E-05 0.000E+00 0.000E+00 1.937E-05 2.415E+00 1.167E+01  0.0000 0.71286
  5.000E+01 1.143E+02 2.302E+00 2.081E-05 0.000E+00 0.000E+00 2.081E-05 2.302E+00 1.379E+01  0.0000 0.73434
  5.500E+01 1.210E+02 2.210E+00 2.225E-05 0.000E+00 0.000E+00 2.225E-05 2.210E+00 1.601E+01  0.0000 0.75332
  6.000E+01 1.276E+02 2.134E+00 2.367E-05 0.000E+00 0.000E+00 2.367E-05 2.134E+00 1.831E+01  0.0000 0.77019
  7.000E+01 1.403E+02 2.017E+00 2.653E-05 0.000E+00 0.000E+00 2.653E-05 2.017E+00 2.314E+01  0.0000 0.79887
  8.000E+01 1.527E+02 1.932E+00 2.942E-05 0.000E+00 0.000E+00 2.942E-05 1.932E+00 2.820E+01  0.0000 0.82227
  9.000E+01 1.647E+02 1.868E+00 3.235E-05 0.000E+00 0.000E+00 3.235E-05 1.869E+00 3.347E+01  0.0069 0.84166
  1.000E+02 1.764E+02 1.819E+00 3.532E-05 0.000E+00 0.000E+00 3.532E-05 1.819E+00 3.889E+01  0.0204 0.85794
  1.200E+02 1.994E+02 1.750E+00 4.142E-05 0.000E+00 0.000E+00 4.142E-05 1.750E+00 5.010E+01  0.0513 0.88361
  1.400E+02 2.218E+02 1.706E+00 4.775E-05 0.000E+00 0.000E+00 4.775E-05 1.706E+00 6.168E+01  0.0850 0.90278
  1.700E+02 2.546E+02 1.666E+00 5.768E-05 5.657E-15 0.000E+00 5.768E-05 1.666E+00 7.948E+01  0.1382 0.92363
  2.000E+02 2.868E+02 1.645E+00 6.811E-05 1.263E-12 0.000E+00 6.811E-05 1.645E+00 9.760E+01  0.1925 0.93835
  2.500E+02 3.396E+02 1.631E+00 8.654E-05 1.241E-07 0.000E+00 8.667E-05 1.631E+00 1.281E+02  0.2825 0.95485
  3.000E+02 3.917E+02 1.630E+00 1.062E-04 1.442E-06 0.000E+00 1.076E-04 1.630E+00 1.588E+02  0.3700 0.96548
  3.500E+02 4.432E+02 1.636E+00 1.270E-04 4.076E-06 0.000E+00 1.310E-04 1.636E+00 1.894E+02  0.4542 0.97274
  4.000E+02 4.945E+02 1.644E+00 1.488E-04 7.979E-06 0.000E+00 1.567E-04 1.645E+00 2.199E+02  0.5350 0.97793
  4.500E+02 5.455E+02 1.655E+00 1.715E-04 1.311E-05 0.000E+00 1.846E-04 1.655E+00 2.502E+02  0.6125 0.98176
  5.000E+02 5.964E+02 1.665E+00 1.951E-04 1.942E-05 0.000E+00 2.145E-04 1.666E+00 2.803E+02  0.6867 0.98467
  5.500E+02 6.471E+02 1.676E+00 2.195E-04 2.687E-05 0.000E+00 2.464E-04 1.677E+00 3.102E+02  0.7580 0.98693
  6.000E+02 6.977E+02 1.687E+00 2.447E-04 3.542E-05 0.000E+00 2.801E-04 1.687E+00 3.400E+02  0.8264 0.98873
  7.000E+02 7.987E+02 1.708E+00 2.972E-04 5.567E-05 0.000E+00 3.529E-04 1.708E+00 3.989E+02  0.9556 0.99136
  8.000E+02 8.995E+02 1.728E+00 3.522E-04 7.990E-05 0.000E+00 4.321E-04 1.728E+00 4.571E+02  1.0758 0.99317
  9.000E+02 1.000E+03 1.746E+00 4.096E-04 1.079E-04 0.000E+00 5.174E-04 1.746E+00 5.146E+02  1.1882 0.99447
  1.000E+03 1.101E+03 1.763E+00 4.690E-04 1.393E-04 0.000E+00 6.084E-04 1.763E+00 5.716E+02  1.2936 0.99542
  1.200E+03 1.301E+03 1.793E+00 5.937E-04 2.119E-04 2.252E-05 8.281E-04 1.794E+00 6.841E+02  1.4871 0.99672
  1.400E+03 1.502E+03 1.819E+00 7.251E-04 2.963E-04 6.148E-05 1.083E-03 1.820E+00 7.948E+02  1.6614 0.99753
  1.700E+03 1.803E+03 1.852E+00 9.330E-04 4.425E-04 1.313E-04 1.507E-03 1.853E+00 9.582E+02  1.8944 0.99829
  2.000E+03 2.103E+03 1.879E+00 1.152E-03 6.097E-04 2.133E-04 1.975E-03 1.881E+00 1.119E+03  2.1006 0.99874
  2.500E+03 2.604E+03 1.917E+00 1.539E-03 9.284E-04 3.714E-04 2.839E-03 1.920E+00 1.382E+03  2.3997 0.99918
  3.000E+03 3.104E+03 1.948E+00 1.948E-03 1.290E-03 5.369E-04 3.775E-03 1.952E+00 1.640E+03  2.6571 0.99942
  3.500E+03 3.604E+03 1.973E+00 2.376E-03 1.689E-03 7.118E-04 4.777E-03 1.978E+00 1.895E+03  2.8834 0.99957
  4.000E+03 4.104E+03 1.995E+00 2.821E-03 2.134E-03 8.985E-04 5.853E-03 2.001E+00 2.146E+03  3.0857 0.99967
  4.500E+03 4.604E+03 2.014E+00 3.280E-03 2.614E-03 1.092E-03 6.986E-03 2.021E+00 2.395E+03  3.2686 0.99974
  5.000E+03 5.105E+03 2.030E+00 3.752E-03 3.121E-03 1.278E-03 8.152E-03 2.038E+00 2.641E+03  3.4356 0.99979
  5.500E+03 5.605E+03 2.045E+00 4.236E-03 3.654E-03 1.479E-03 9.369E-03 2.054E+00 2.885E+03  3.5895 0.99982
  6.000E+03 6.105E+03 2.058E+00 4.731E-03 4.210E-03 1.666E-03 1.061E-02 2.069E+00 3.128E+03  3.7321 0.99985
  7.000E+03 7.105E+03 2.082E+00 5.750E-03 5.383E-03 2.061E-03 1.319E-02 2.095E+00 3.608E+03  3.9896 0.99989
  8.000E+03 8.105E+03 2.101E+00 6.803E-03 6.631E-03 2.454E-03 1.589E-02 2.117E+00 4.083E+03  4.2175 0.99992
  9.000E+03 9.105E+03 2.118E+00 7.886E-03 7.943E-03 2.823E-03 1.865E-02 2.137E+00 4.553E+03  4.4220 0.99993
  1.000E+04 1.011E+04 2.133E+00 8.995E-03 9.312E-03 3.203E-03 2.151E-02 2.154E+00 5.019E+03  4.6075 0.99995
  1.200E+04 1.211E+04 2.158E+00 1.129E-02 1.220E-02 3.975E-03 2.746E-02 2.185E+00 5.941E+03  4.9340 0.99996
  1.400E+04 1.411E+04 2.179E+00 1.366E-02 1.526E-02 4.748E-03 3.367E-02 2.212E+00 6.851E+03  5.2151 0.99997
  1.700E+04 1.711E+04 2.204E+00 1.734E-02 2.012E-02 5.892E-03 4.335E-02 2.247E+00 8.196E+03  5.5751 0.99998
  2.000E+04 2.011E+04 2.224E+00 2.115E-02 2.525E-02 7.015E-03 5.341E-02 2.277E+00 9.523E+03  5.8811 0.99999
  2.500E+04 2.511E+04 2.251E+00 2.773E-02 3.427E-02 8.859E-03 7.086E-02 2.322E+00 1.170E+04  6.3071 0.99999
  3.000E+04 3.011E+04 2.272E+00 3.455E-02 4.377E-02 1.067E-02 8.899E-02 2.361E+00 1.383E+04  6.6597 0.99999
  3.500E+04 3.511E+04 2.290E+00 4.156E-02 5.367E-02 1.250E-02 1.077E-01 2.398E+00 1.593E+04  6.9605 1.00000
  4.000E+04 4.011E+04 2.305E+00 4.874E-02 6.389E-02 1.431E-02 1.269E-01 2.432E+00 1.800E+04  7.2227 1.00000
  4.500E+04 4.511E+04 2.318E+00 5.607E-02 7.438E-02 1.609E-02 1.465E-01 2.464E+00 2.005E+04  7.4551 1.00000
  5.000E+04 5.011E+04 2.329E+00 6.351E-02 8.511E-02 1.788E-02 1.665E-01 2.495E+00 2.206E+04  7.6637 1.00000
  5.500E+04 5.511E+04 2.339E+00 7.107E-02 9.605E-02 1.967E-02 1.868E-01 2.526E+00 2.406E+04  7.8530 1.00000
  6.000E+04 6.011E+04 2.348E+00 7.873E-02 1.072E-01 2.145E-02 2.074E-01 2.556E+00 2.602E+04  8.0260 1.00000
  7.000E+04 7.011E+04 2.364E+00 9.431E-02 1.299E-01 2.498E-02 2.492E-01 2.613E+00 2.989E+04  8.3333 1.00000
  8.000E+04 8.011E+04 2.378E+00 1.102E-01 1.531E-01 2.852E-02 2.919E-01 2.670E+00 3.368E+04  8.5999 1.00000
  9.000E+04 9.011E+04 2.390E+00 1.263E-01 1.769E-01 3.207E-02 3.353E-01 2.725E+00 3.739E+04  8.8352 1.00000
  1.000E+05 1.001E+05 2.401E+00 1.427E-01 2.009E-01 3.554E-02 3.792E-01 2.780E+00 4.102E+04  9.0456 1.00000
  1.200E+05 1.201E+05 2.419E+00 1.761E-01 2.501E-01 4.262E-02 4.688E-01 2.888E+00 4.808E+04  9.4099 1.00000
  1.400E+05 1.401E+05 2.434E+00 2.101E-01 3.002E-01 4.970E-02 5.600E-01 2.994E+00 5.488E+04  9.7180 1.00000
  1.700E+05 1.701E+05 2.454E+00 2.620E-01 3.769E-01 6.032E-02 6.993E-01 3.153E+00 6.465E+04 10.1060 1.00000
  2.000E+05 2.001E+05 2.470E+00 3.150E-01 4.551E-01 7.101E-02 8.410E-01 3.311E+00 7.394E+04 10.4309 1.00000
  2.500E+05 2.501E+05 2.492E+00 4.049E-01 5.876E-01 8.888E-02 1.081E+00 3.573E+00 8.849E+04 10.8770 1.00000
  3.000E+05 3.001E+05 2.510E+00 4.965E-01 7.223E-01 1.069E-01 1.326E+00 3.835E+00 1.020E+05 11.2415 1.00000
  3.500E+05 3.501E+05 2.525E+00 5.894E-01 8.586E-01 1.251E-01 1.573E+00 4.098E+00 1.146E+05 11.5497 1.00000
  4.000E+05 4.001E+05 2.538E+00 6.833E-01 9.962E-01 1.434E-01 1.823E+00 4.361E+00 1.265E+05 11.8166 1.00000
  4.500E+05 4.501E+05 2.550E+00 7.782E-01 1.135E+00 1.618E-01 2.075E+00 4.625E+00 1.376E+05 12.0522 1.00000
  5.000E+05 5.001E+05 2.560E+00 8.738E-01 1.274E+00 1.804E-01 2.328E+00 4.889E+00 1.481E+05 12.2628 1.00000
  5.500E+05 5.501E+05 2.570E+00 9.701E-01 1.414E+00 1.988E-01 2.583E+00 5.153E+00 1.581E+05 12.4534 1.00000
  6.000E+05 6.001E+05 2.579E+00 1.067E+00 1.555E+00 2.173E-01 2.840E+00 5.418E+00 1.675E+05 12.6274 1.00000
  7.000E+05 7.001E+05 2.594E+00 1.262E+00 1.838E+00 2.547E-01 3.355E+00 5.949E+00 1.852E+05 12.9357 1.00000
  8.000E+05 8.001E+05 2.607E+00 1.459E+00 2.123E+00 2.925E-01 3.875E+00 6.482E+00 2.013E+05 13.2027 1.00000
  9.000E+05 9.001E+05 2.619E+00 1.657E+00 2.409E+00 3.307E-01 4.397E+00 7.016E+00 2.161E+05 13.4382 1.00000
  1.000E+06 1.000E+06 2.630E+00 1.857E+00 2.696E+00 3.692E-01 4.922E+00 7.552E+00 2.299E+05 13.6489 1.00000
  1.200E+06 1.200E+06 2.648E+00 2.259E+00 3.273E+00 4.471E-01 5.979E+00 8.627E+00 2.547E+05 14.0135 1.00000
  1.400E+06 1.400E+06 2.664E+00 2.664E+00 3.852E+00 5.262E-01 7.042E+00 9.706E+00 2.766E+05 14.3218 1.00000
  1.700E+06 1.700E+06 2.684E+00 3.275E+00 4.725E+00 6.466E-01 8.647E+00 1.133E+01 3.053E+05 14.7101 1.00000
  2.000E+06 2.000E+06 2.701E+00 3.891E+00 5.602E+00 7.690E-01 1.026E+01 1.296E+01 3.301E+05 15.0351 1.00000
  2.500E+06 2.500E+06 2.724E+00 4.925E+00 7.067E+00 9.767E-01 1.297E+01 1.569E+01 3.653E+05 15.4814 1.00000
  3.000E+06 3.000E+06 2.743E+00 5.964E+00 8.537E+00 1.188E+00 1.569E+01 1.843E+01 3.948E+05 15.8460 1.00000
  3.500E+06 3.500E+06 2.759E+00 7.009E+00 1.001E+01 1.404E+00 1.842E+01 2.118E+01 4.202E+05 16.1543 1.00000
  4.000E+06 4.000E+06 2.773E+00 8.057E+00 1.149E+01 1.622E+00 2.117E+01 2.394E+01 4.424E+05 16.4213 1.00000
  4.500E+06 4.500E+06 2.786E+00 9.108E+00 1.297E+01 1.843E+00 2.392E+01 2.670E+01 4.622E+05 16.6569 1.00000
  5.000E+06 5.000E+06 2.797E+00 1.016E+01 1.444E+01 2.066E+00 2.667E+01 2.947E+01 4.801E+05 16.8676 1.00000
  5.500E+06 5.500E+06 2.807E+00 1.122E+01 1.593E+01 2.292E+00 2.943E+01 3.224E+01 4.963E+05 17.0582 1.00000
  6.000E+06 6.000E+06 2.817E+00 1.227E+01 1.741E+01 2.520E+00 3.220E+01 3.502E+01 5.112E+05 17.2323 1.00000
  7.000E+06 7.000E+06 2.834E+00 1.439E+01 2.037E+01 2.981E+00 3.775E+01 4.058E+01 5.378E+05 17.5405 1.00000
  8.000E+06 8.000E+06 2.848E+00 1.652E+01 2.334E+01 3.449E+00 4.331E+01 4.616E+01 5.610E+05 17.8076 1.00000
  9.000E+06 9.000E+06 2.861E+00 1.865E+01 2.632E+01 3.924E+00 4.889E+01 5.175E+01 5.815E+05 18.0432 1.00000
  1.000E+07 1.000E+07 2.873E+00 2.078E+01 2.929E+01 4.403E+00 5.447E+01 5.734E+01 5.998E+05 18.2539 1.00000
  1.200E+07 1.200E+07 2.893E+00 2.504E+01 3.524E+01 5.378E+00 6.566E+01 6.856E+01 6.319E+05 18.6185 1.00000
  1.400E+07 1.400E+07 2.910E+00 2.932E+01 4.120E+01 6.370E+00 7.689E+01 7.980E+01 6.590E+05 18.9268 1.00000
  1.700E+07 1.700E+07 2.932E+00 3.574E+01 5.014E+01 7.886E+00 9.377E+01 9.670E+01 6.933E+05 19.3151 1.00000
  2.000E+07 2.000E+07 2.951E+00 4.218E+01 5.908E+01 9.432E+00 1.107E+02 1.136E+02 7.220E+05 19.6402 1.00000
  2.500E+07 2.500E+07 2.976E+00 5.291E+01 7.400E+01 1.206E+01 1.390E+02 1.419E+02 7.616E+05 20.0865 1.00000
  3.000E+07 3.000E+07 2.998E+00 6.366E+01 8.892E+01 1.475E+01 1.673E+02 1.703E+02 7.939E+05 20.4511 1.00000
  3.500E+07 3.500E+07 3.016E+00 7.442E+01 1.038E+02 1.749E+01 1.957E+02 1.988E+02 8.212E+05 20.7594 1.00000
  4.000E+07 4.000E+07 3.031E+00 8.518E+01 1.188E+02 2.027E+01 2.242E+02 2.273E+02 8.447E+05 21.0265 1.00000
  4.500E+07 4.500E+07 3.045E+00 9.595E+01 1.337E+02 2.309E+01 2.527E+02 2.558E+02 8.655E+05 21.2620 1.00000
  5.000E+07 5.000E+07 3.058E+00 1.067E+02 1.486E+02 2.595E+01 2.813E+02 2.844E+02 8.841E+05 21.4727 1.00000
  5.500E+07 5.500E+07 3.069E+00 1.175E+02 1.636E+02 2.884E+01 3.099E+02 3.130E+02 9.009E+05 21.6634 1.00000
  6.000E+07 6.000E+07 3.080E+00 1.283E+02 1.785E+02 3.175E+01 3.385E+02 3.416E+02 9.162E+05 21.8374 1.00000
  7.000E+07 7.000E+07 3.098E+00 1.498E+02 2.084E+02 3.767E+01 3.959E+02 3.990E+02 9.433E+05 22.1457 1.00000
  8.000E+07 8.000E+07 3.114E+00 1.714E+02 2.383E+02 4.368E+01 4.534E+02 4.565E+02 9.668E+05 22.4128 1.00000
  9.000E+07 9.000E+07 3.129E+00 1.930E+02 2.681E+02 4.977E+01 5.109E+02 5.140E+02 9.875E+05 22.6483 1.00000
  1.000E+08 1.000E+08 3.142E+00 2.146E+02 2.980E+02 5.595E+01 5.685E+02 5.717E+02 1.006E+06 22.8590 1.00000
  1.200E+08 1.200E+08 3.164E+00 2.578E+02 3.578E+02 6.850E+01 6.840E+02 6.872E+02 1.038E+06 23.2237 1.00000
  1.400E+08 1.400E+08 3.184E+00 3.009E+02 4.176E+02 8.129E+01 7.998E+02 8.030E+02 1.065E+06 23.5320 1.00000
  1.700E+08 1.700E+08 3.208E+00 3.657E+02 5.072E+02 1.009E+02 9.738E+02 9.770E+02 1.099E+06 23.9203 1.00000
  2.000E+08 2.000E+08 3.229E+00 4.305E+02 5.969E+02 1.208E+02 1.148E+03 1.151E+03 1.127E+06 24.2453 1.00000
  2.500E+08 2.500E+08 3.257E+00 5.386E+02 7.463E+02 1.549E+02 1.440E+03 1.443E+03 1.166E+06 24.6916 1.00000
  3.000E+08 3.000E+08 3.281E+00 6.466E+02 8.958E+02 1.897E+02 1.732E+03 1.735E+03 1.198E+06 25.0563 1.00000
  3.500E+08 3.500E+08 3.301E+00 7.546E+02 1.045E+03 2.252E+02 2.025E+03 2.028E+03 1.225E+06 25.3646 1.00000
  4.000E+08 4.000E+08 3.318E+00 8.627E+02 1.195E+03 2.614E+02 2.319E+03 2.322E+03 1.248E+06 25.6316 1.00000
  4.500E+08 4.500E+08 3.334E+00 9.708E+02 1.344E+03 2.980E+02 2.613E+03 2.616E+03 1.268E+06 25.8672 1.00000
  5.000E+08 5.000E+08 3.348E+00 1.079E+03 1.494E+03 3.351E+02 2.908E+03 2.911E+03 1.286E+06 26.0779 1.00000
  5.500E+08 5.500E+08 3.361E+00 1.187E+03 1.643E+03 3.727E+02 3.203E+03 3.206E+03 1.303E+06 26.2685 1.00000
  6.000E+08 6.000E+08 3.372E+00 1.295E+03 1.793E+03 4.107E+02 3.498E+03 3.502E+03 1.318E+06 26.4426 1.00000
  7.000E+08 7.000E+08 3.393E+00 1.511E+03 2.091E+03 4.877E+02 4.090E+03 4.094E+03 1.344E+06 26.7509 1.00000
  8.000E+08 8.000E+08 3.411E+00 1.727E+03 2.390E+03 5.661E+02 4.684E+03 4.687E+03 1.367E+06 27.0179 1.00000
  9.000E+08 9.000E+08 3.427E+00 1.943E+03 2.689E+03 6.456E+02 5.278E+03 5.282E+03 1.387E+06 27.2535 1.00000
  1.000E+09 1.000E+09 3.442E+00 2.160E+03 2.988E+03 7.262E+02 5.874E+03 5.877E+03 1.405E+06 27.4642 1.00000
