 Incident particle is a Muon with M = 105.65839 MeV
 Index = 0: Thulium
      Absorber with <Z/A> = 0.40844
 Sternheimer coef:  a     k=m_s   x_0    x_1    I[eV]   Cbar  delta0
                 0.2489  2.5469  0.0812  3.5085  674.0  5.9677 0.14

 *** Table generated with PUMAS v1.00 ***

      T         p     Ionization  brems     pair     photonuc  Radloss    dE/dx   CSDA Range  delta   beta
    [MeV]    [MeV/c]  -----------------------[MeV cm^2/g]------------------------  [g/cm^2]
  1.000E+00 1.457E+01 2.243E+01 4.907E-06 0.000E+00 0.000E+00 4.907E-06 2.243E+01 2.229E-02  0.0018 0.13661
  1.200E+00 1.597E+01 1.975E+01 5.636E-06 0.000E+00 0.000E+00 5.636E-06 1.975E+01 3.182E-02  0.0022 0.14944
  1.400E+00 1.726E+01 1.771E+01 6.326E-06 0.000E+00 0.000E+00 6.326E-06 1.771E+01 4.253E-02  0.0026 0.16119
  1.700E+00 1.903E+01 1.540E+01 7.302E-06 0.000E+00 0.000E+00 7.302E-06 1.540E+01 6.074E-02  0.0031 0.17725
  2.000E+00 2.066E+01 1.368E+01 8.219E-06 0.000E+00 0.000E+00 8.219E-06 1.368E+01 8.144E-02  0.0037 0.19186
  2.500E+00 2.312E+01 1.162E+01 9.640E-06 0.000E+00 0.000E+00 9.640E-06 1.162E+01 1.212E-01  0.0046 0.21376
  3.000E+00 2.536E+01 1.015E+01 1.095E-05 0.000E+00 0.000E+00 1.095E-05 1.015E+01 1.674E-01  0.0055 0.23336
  3.500E+00 2.742E+01 9.054E+00 1.218E-05 0.000E+00 0.000E+00 1.218E-05 9.054E+00 2.196E-01  0.0065 0.25120
  4.000E+00 2.935E+01 8.198E+00 1.333E-05 0.000E+00 0.000E+00 1.333E-05 8.198E+00 2.777E-01  0.0074 0.26763
  4.500E+00 3.116E+01 7.511E+00 1.442E-05 0.000E+00 0.000E+00 1.442E-05 7.511E+00 3.415E-01  0.0084 0.28290
  5.000E+00 3.289E+01 6.946E+00 1.546E-05 0.000E+00 0.000E+00 1.546E-05 6.946E+00 4.108E-01  0.0093 0.29720
  5.500E+00 3.453E+01 6.473E+00 1.645E-05 0.000E+00 0.000E+00 1.645E-05 6.473E+00 4.854E-01  0.0103 0.31066
  6.000E+00 3.611E+01 6.070E+00 1.740E-05 0.000E+00 0.000E+00 1.740E-05 6.070E+00 5.652E-01  0.0113 0.32339
  7.000E+00 3.909E+01 5.420E+00 1.919E-05 0.000E+00 0.000E+00 1.919E-05 5.420E+00 7.398E-01  0.0132 0.34700
  8.000E+00 4.189E+01 4.917E+00 2.086E-05 0.000E+00 0.000E+00 2.086E-05 4.917E+00 9.337E-01  0.0151 0.36854
  9.000E+00 4.453E+01 4.517E+00 2.243E-05 0.000E+00 0.000E+00 2.243E-05 4.517E+00 1.146E+00  0.0171 0.38836
  1.000E+01 4.704E+01 4.189E+00 2.392E-05 0.000E+00 0.000E+00 2.392E-05 4.189E+00 1.376E+00  0.0191 0.40675
  1.200E+01 5.177E+01 3.684E+00 2.670E-05 0.000E+00 0.000E+00 2.670E-05 3.684E+00 1.886E+00  0.0231 0.43998
  1.400E+01 5.616E+01 3.314E+00 2.926E-05 0.000E+00 0.000E+00 2.926E-05 3.314E+00 2.460E+00  0.0272 0.46937
  1.700E+01 6.230E+01 2.911E+00 3.281E-05 0.000E+00 0.000E+00 3.281E-05 2.911E+00 3.427E+00  0.0335 0.50792
  2.000E+01 6.802E+01 2.622E+00 3.610E-05 0.000E+00 0.000E+00 3.610E-05 2.622E+00 4.515E+00  0.0399 0.54129
  2.500E+01 7.686E+01 2.287E+00 4.118E-05 0.000E+00 0.000E+00 4.118E-05 2.287E+00 6.562E+00  0.0510 0.58827
  3.000E+01 8.509E+01 2.060E+00 4.595E-05 0.000E+00 0.000E+00 4.595E-05 2.060E+00 8.868E+00  0.0625 0.62720
  3.500E+01 9.285E+01 1.896E+00 5.051E-05 0.000E+00 0.000E+00 5.051E-05 1.896E+00 1.140E+01  0.0744 0.66011
  4.000E+01 1.003E+02 1.772E+00 5.494E-05 0.000E+00 0.000E+00 5.494E-05 1.772E+00 1.413E+01  0.0867 0.68834
  4.500E+01 1.074E+02 1.676E+00 5.930E-05 0.000E+00 0.000E+00 5.930E-05 1.676E+00 1.703E+01  0.0995 0.71286
  5.000E+01 1.143E+02 1.600E+00 6.362E-05 0.000E+00 0.000E+00 6.362E-05 1.600E+00 2.009E+01  0.1127 0.73434
  5.500E+01 1.210E+02 1.538E+00 6.792E-05 0.000E+00 0.000E+00 6.792E-05 1.538E+00 2.327E+01  0.1264 0.75332
  6.000E+01 1.276E+02 1.487E+00 7.222E-05 0.000E+00 0.000E+00 7.222E-05 1.487E+00 2.658E+01  0.1410 0.77019
  7.000E+01 1.403E+02 1.409E+00 8.087E-05 0.000E+00 0.000E+00 8.087E-05 1.409E+00 3.349E+01  0.1569 0.79887
  8.000E+01 1.527E+02 1.352E+00 8.962E-05 0.000E+00 0.000E+00 8.962E-05 1.352E+00 4.074E+01  0.1737 0.82227
  9.000E+01 1.647E+02 1.310E+00 9.852E-05 0.000E+00 0.000E+00 9.852E-05 1.310E+00 4.825E+01  0.1910 0.84166
  1.000E+02 1.764E+02 1.278E+00 1.076E-04 0.000E+00 0.000E+00 1.076E-04 1.278E+00 5.598E+01  0.2085 0.85794
  1.200E+02 1.994E+02 1.234E+00 1.263E-04 0.000E+00 0.000E+00 1.263E-04 1.234E+00 7.190E+01  0.2437 0.88361
  1.400E+02 2.218E+02 1.207E+00 1.458E-04 0.000E+00 0.000E+00 1.458E-04 1.207E+00 8.829E+01  0.2786 0.90278
  1.700E+02 2.546E+02 1.184E+00 1.765E-04 0.000E+00 0.000E+00 1.765E-04 1.185E+00 1.134E+02  0.3297 0.92363
  2.000E+02 2.868E+02 1.174E+00 2.088E-04 0.000E+00 0.000E+00 2.088E-04 1.174E+00 1.388E+02  0.3791 0.93835
  2.500E+02 3.396E+02 1.170E+00 2.663E-04 0.000E+00 0.000E+00 2.663E-04 1.171E+00 1.815E+02  0.4575 0.95485
  3.000E+02 3.917E+02 1.175E+00 3.278E-04 0.000E+00 0.000E+00 3.278E-04 1.176E+00 2.241E+02  0.5312 0.96548
  3.500E+02 4.432E+02 1.184E+00 3.931E-04 0.000E+00 0.000E+00 3.931E-04 1.184E+00 2.665E+02  0.6006 0.97274
  4.000E+02 4.945E+02 1.194E+00 4.618E-04 0.000E+00 0.000E+00 4.618E-04 1.195E+00 3.085E+02  0.6662 0.97793
  4.500E+02 5.455E+02 1.206E+00 5.337E-04 3.470E-05 0.000E+00 5.684E-04 1.206E+00 3.501E+02  0.7285 0.98176
  5.000E+02 5.964E+02 1.217E+00 6.086E-04 6.821E-05 0.000E+00 6.768E-04 1.217E+00 3.914E+02  0.7876 0.98467
  5.500E+02 6.471E+02 1.228E+00 6.862E-04 9.660E-05 0.000E+00 7.828E-04 1.229E+00 4.323E+02  0.8441 0.98693
  6.000E+02 6.977E+02 1.239E+00 7.664E-04 1.283E-04 0.000E+00 8.948E-04 1.240E+00 4.728E+02  0.8980 0.98873
  7.000E+02 7.987E+02 1.259E+00 9.340E-04 2.035E-04 0.000E+00 1.138E-03 1.260E+00 5.528E+02  0.9994 0.99136
  8.000E+02 8.995E+02 1.278E+00 1.110E-03 2.935E-04 0.000E+00 1.404E-03 1.280E+00 6.316E+02  1.0933 0.99317
  9.000E+02 1.000E+03 1.296E+00 1.295E-03 3.976E-04 0.000E+00 1.692E-03 1.297E+00 7.092E+02  1.1807 0.99447
  1.000E+03 1.101E+03 1.312E+00 1.486E-03 5.148E-04 0.000E+00 2.001E-03 1.314E+00 7.858E+02  1.2627 0.99542
  1.200E+03 1.301E+03 1.340E+00 1.889E-03 7.857E-04 2.245E-05 2.697E-03 1.343E+00 9.363E+02  1.4128 0.99672
  1.400E+03 1.502E+03 1.365E+00 2.315E-03 1.101E-03 6.090E-05 3.477E-03 1.369E+00 1.084E+03  1.5479 0.99753
  1.700E+03 1.803E+03 1.397E+00 2.992E-03 1.647E-03 1.290E-04 4.768E-03 1.401E+00 1.301E+03  1.7286 0.99829
  2.000E+03 2.103E+03 1.423E+00 3.708E-03 2.272E-03 2.081E-04 6.188E-03 1.429E+00 1.513E+03  1.8889 0.99874
  2.500E+03 2.604E+03 1.459E+00 4.974E-03 3.464E-03 3.590E-04 8.797E-03 1.468E+00 1.858E+03  2.1219 0.99918
  3.000E+03 3.104E+03 1.489E+00 6.319E-03 4.816E-03 5.152E-04 1.165E-02 1.501E+00 2.195E+03  2.3234 0.99942
  3.500E+03 3.604E+03 1.513E+00 7.729E-03 6.307E-03 6.789E-04 1.471E-02 1.528E+00 2.525E+03  2.5013 0.99957
  4.000E+03 4.104E+03 1.535E+00 9.196E-03 7.928E-03 8.525E-04 1.798E-02 1.553E+00 2.849E+03  2.6609 0.99967
  4.500E+03 4.604E+03 1.553E+00 1.071E-02 9.662E-03 1.032E-03 2.141E-02 1.574E+00 3.169E+03  2.8058 0.99974
  5.000E+03 5.105E+03 1.569E+00 1.228E-02 1.149E-02 1.203E-03 2.497E-02 1.594E+00 3.485E+03  2.9387 0.99979
  5.500E+03 5.605E+03 1.584E+00 1.388E-02 1.341E-02 1.387E-03 2.868E-02 1.612E+00 3.797E+03  3.0615 0.99982
  6.000E+03 6.105E+03 1.597E+00 1.552E-02 1.541E-02 1.558E-03 3.249E-02 1.629E+00 4.105E+03  3.1758 0.99985
  7.000E+03 7.105E+03 1.619E+00 1.890E-02 1.962E-02 1.918E-03 4.044E-02 1.660E+00 4.713E+03  3.3831 0.99989
  8.000E+03 8.105E+03 1.639E+00 2.239E-02 2.409E-02 2.275E-03 4.876E-02 1.687E+00 5.311E+03  3.5677 0.99992
  9.000E+03 9.105E+03 1.655E+00 2.599E-02 2.878E-02 2.608E-03 5.738E-02 1.713E+00 5.899E+03  3.7342 0.99993
  1.000E+04 1.011E+04 1.670E+00 2.968E-02 3.366E-02 2.950E-03 6.629E-02 1.736E+00 6.479E+03  3.8861 0.99995
  1.200E+04 1.211E+04 1.695E+00 3.730E-02 4.394E-02 3.642E-03 8.488E-02 1.780E+00 7.617E+03  4.1552 0.99996
  1.400E+04 1.411E+04 1.715E+00 4.518E-02 5.479E-02 4.332E-03 1.043E-01 1.820E+00 8.728E+03  4.3889 0.99997
  1.700E+04 1.711E+04 1.740E+00 5.744E-02 7.196E-02 5.349E-03 1.347E-01 1.875E+00 1.035E+04  4.6910 0.99998
  2.000E+04 2.011E+04 1.760E+00 7.012E-02 9.000E-02 6.341E-03 1.665E-01 1.927E+00 1.193E+04  4.9503 0.99999
  2.500E+04 2.511E+04 1.787E+00 9.202E-02 1.216E-01 7.964E-03 2.216E-01 2.009E+00 1.447E+04  5.3154 0.99999
  3.000E+04 3.011E+04 1.808E+00 1.147E-01 1.548E-01 9.549E-03 2.791E-01 2.087E+00 1.692E+04  5.6212 0.99999
  3.500E+04 3.511E+04 1.825E+00 1.380E-01 1.892E-01 1.115E-02 3.384E-01 2.164E+00 1.927E+04  5.8849 1.00000
  4.000E+04 4.011E+04 1.840E+00 1.619E-01 2.246E-01 1.272E-02 3.992E-01 2.239E+00 2.154E+04  6.1169 1.00000
  4.500E+04 4.511E+04 1.852E+00 1.862E-01 2.609E-01 1.427E-02 4.614E-01 2.314E+00 2.374E+04  6.3242 1.00000
  5.000E+04 5.011E+04 1.863E+00 2.109E-01 2.979E-01 1.581E-02 5.246E-01 2.388E+00 2.587E+04  6.5117 1.00000
  5.500E+04 5.511E+04 1.873E+00 2.360E-01 3.355E-01 1.737E-02 5.889E-01 2.462E+00 2.793E+04  6.6830 1.00000
  6.000E+04 6.011E+04 1.881E+00 2.614E-01 3.737E-01 1.891E-02 6.540E-01 2.535E+00 2.993E+04  6.8406 1.00000
  7.000E+04 7.011E+04 1.897E+00 3.130E-01 4.514E-01 2.195E-02 7.864E-01 2.683E+00 3.377E+04  7.1229 1.00000
  8.000E+04 8.011E+04 1.909E+00 3.656E-01 5.307E-01 2.499E-02 9.214E-01 2.831E+00 3.740E+04  7.3704 1.00000
  9.000E+04 9.011E+04 1.921E+00 4.190E-01 6.114E-01 2.804E-02 1.058E+00 2.979E+00 4.084E+04  7.5909 1.00000
  1.000E+05 1.001E+05 1.930E+00 4.732E-01 6.931E-01 3.102E-02 1.197E+00 3.128E+00 4.412E+04  7.7897 1.00000
  1.200E+05 1.201E+05 1.947E+00 5.832E-01 8.592E-01 3.707E-02 1.480E+00 3.426E+00 5.023E+04  8.1372 1.00000
  1.400E+05 1.401E+05 1.961E+00 6.953E-01 1.028E+00 4.312E-02 1.767E+00 3.727E+00 5.583E+04  8.4342 1.00000
  1.700E+05 1.701E+05 1.978E+00 8.664E-01 1.286E+00 5.219E-02 2.205E+00 4.182E+00 6.345E+04  8.8120 1.00000
  2.000E+05 2.001E+05 1.992E+00 1.040E+00 1.547E+00 6.129E-02 2.649E+00 4.641E+00 7.026E+04  9.1310 1.00000
  2.500E+05 2.501E+05 2.011E+00 1.336E+00 1.990E+00 7.648E-02 3.402E+00 5.412E+00 8.027E+04  9.5727 1.00000
  3.000E+05 3.001E+05 2.026E+00 1.635E+00 2.437E+00 9.176E-02 4.165E+00 6.190E+00 8.893E+04  9.9358 1.00000
  3.500E+05 3.501E+05 2.039E+00 1.939E+00 2.889E+00 1.072E-01 4.936E+00 6.975E+00 9.655E+04 10.2439 1.00000
  4.000E+05 4.001E+05 2.050E+00 2.246E+00 3.345E+00 1.227E-01 5.714E+00 7.764E+00 1.034E+05 10.5108 1.00000
  4.500E+05 4.501E+05 2.060E+00 2.555E+00 3.803E+00 1.383E-01 6.497E+00 8.556E+00 1.095E+05 10.7464 1.00000
  5.000E+05 5.001E+05 2.069E+00 2.867E+00 4.263E+00 1.540E-01 7.284E+00 9.353E+00 1.151E+05 10.9570 1.00000
  5.500E+05 5.501E+05 2.077E+00 3.180E+00 4.725E+00 1.696E-01 8.075E+00 1.015E+01 1.202E+05 11.1476 1.00000
  6.000E+05 6.001E+05 2.084E+00 3.495E+00 5.189E+00 1.853E-01 8.869E+00 1.095E+01 1.250E+05 11.3216 1.00000
  7.000E+05 7.001E+05 2.097E+00 4.129E+00 6.120E+00 2.169E-01 1.047E+01 1.256E+01 1.335E+05 11.6299 1.00000
  8.000E+05 8.001E+05 2.108E+00 4.768E+00 7.055E+00 2.488E-01 1.207E+01 1.418E+01 1.410E+05 11.8969 1.00000
  9.000E+05 9.001E+05 2.118E+00 5.410E+00 7.994E+00 2.810E-01 1.368E+01 1.580E+01 1.477E+05 12.1324 1.00000
  1.000E+06 1.000E+06 2.127E+00 6.056E+00 8.935E+00 3.135E-01 1.530E+01 1.743E+01 1.537E+05 12.3431 1.00000
  1.200E+06 1.200E+06 2.143E+00 7.354E+00 1.082E+01 3.793E-01 1.856E+01 2.070E+01 1.643E+05 12.7077 1.00000
  1.400E+06 1.400E+06 2.156E+00 8.661E+00 1.272E+01 4.459E-01 2.183E+01 2.398E+01 1.733E+05 13.0160 1.00000
  1.700E+06 1.700E+06 2.173E+00 1.063E+01 1.557E+01 5.475E-01 2.675E+01 2.892E+01 1.848E+05 13.4043 1.00000
  2.000E+06 2.000E+06 2.187E+00 1.261E+01 1.843E+01 6.507E-01 3.170E+01 3.388E+01 1.944E+05 13.7293 1.00000
  2.500E+06 2.500E+06 2.207E+00 1.593E+01 2.321E+01 8.257E-01 3.997E+01 4.218E+01 2.077E+05 14.1756 1.00000
  3.000E+06 3.000E+06 2.223E+00 1.927E+01 2.800E+01 1.004E+00 4.827E+01 5.050E+01 2.186E+05 14.5402 1.00000
  3.500E+06 3.500E+06 2.237E+00 2.262E+01 3.280E+01 1.185E+00 5.660E+01 5.884E+01 2.278E+05 14.8485 1.00000
  4.000E+06 4.000E+06 2.249E+00 2.597E+01 3.760E+01 1.369E+00 6.495E+01 6.720E+01 2.357E+05 15.1155 1.00000
  4.500E+06 4.500E+06 2.260E+00 2.934E+01 4.241E+01 1.555E+00 7.330E+01 7.556E+01 2.428E+05 15.3511 1.00000
  5.000E+06 5.000E+06 2.269E+00 3.271E+01 4.722E+01 1.743E+00 8.168E+01 8.394E+01 2.490E+05 15.5618 1.00000
  5.500E+06 5.500E+06 2.278E+00 3.608E+01 5.204E+01 1.933E+00 9.006E+01 9.233E+01 2.547E+05 15.7524 1.00000
  6.000E+06 6.000E+06 2.286E+00 3.946E+01 5.686E+01 2.125E+00 9.844E+01 1.007E+02 2.599E+05 15.9265 1.00000
  7.000E+06 7.000E+06 2.300E+00 4.623E+01 6.650E+01 2.514E+00 1.152E+02 1.175E+02 2.691E+05 16.2347 1.00000
  8.000E+06 8.000E+06 2.312E+00 5.300E+01 7.615E+01 2.908E+00 1.321E+02 1.344E+02 2.771E+05 16.5018 1.00000
  9.000E+06 9.000E+06 2.323E+00 5.979E+01 8.581E+01 3.307E+00 1.489E+02 1.512E+02 2.841E+05 16.7374 1.00000
  1.000E+07 1.000E+07 2.333E+00 6.658E+01 9.547E+01 3.711E+00 1.658E+02 1.681E+02 2.904E+05 16.9481 1.00000
  1.200E+07 1.200E+07 2.350E+00 8.018E+01 1.148E+02 4.531E+00 1.995E+02 2.019E+02 3.013E+05 17.3127 1.00000
  1.400E+07 1.400E+07 2.365E+00 9.380E+01 1.341E+02 5.366E+00 2.333E+02 2.357E+02 3.105E+05 17.6210 1.00000
  1.700E+07 1.700E+07 2.384E+00 1.142E+02 1.632E+02 6.643E+00 2.840E+02 2.864E+02 3.221E+05 18.0093 1.00000
  2.000E+07 2.000E+07 2.399E+00 1.347E+02 1.922E+02 7.943E+00 3.348E+02 3.372E+02 3.318E+05 18.3344 1.00000
  2.500E+07 2.500E+07 2.421E+00 1.689E+02 2.406E+02 1.016E+01 4.196E+02 4.220E+02 3.451E+05 18.7807 1.00000
  3.000E+07 3.000E+07 2.439E+00 2.030E+02 2.890E+02 1.242E+01 5.045E+02 5.069E+02 3.560E+05 19.1453 1.00000
  3.500E+07 3.500E+07 2.454E+00 2.372E+02 3.374E+02 1.472E+01 5.894E+02 5.918E+02 3.651E+05 19.4536 1.00000
  4.000E+07 4.000E+07 2.467E+00 2.714E+02 3.859E+02 1.707E+01 6.744E+02 6.768E+02 3.731E+05 19.7207 1.00000
  4.500E+07 4.500E+07 2.479E+00 3.056E+02 4.343E+02 1.944E+01 7.594E+02 7.619E+02 3.800E+05 19.9562 1.00000
  5.000E+07 5.000E+07 2.490E+00 3.399E+02 4.828E+02 2.184E+01 8.444E+02 8.469E+02 3.863E+05 20.1669 1.00000
  5.500E+07 5.500E+07 2.499E+00 3.741E+02 5.312E+02 2.427E+01 9.296E+02 9.321E+02 3.919E+05 20.3576 1.00000
  6.000E+07 6.000E+07 2.508E+00 4.083E+02 5.797E+02 2.673E+01 1.015E+03 1.017E+03 3.970E+05 20.5316 1.00000
  7.000E+07 7.000E+07 2.524E+00 4.768E+02 6.766E+02 3.171E+01 1.185E+03 1.188E+03 4.062E+05 20.8399 1.00000
  8.000E+07 8.000E+07 2.538E+00 5.453E+02 7.735E+02 3.676E+01 1.356E+03 1.358E+03 4.141E+05 21.1070 1.00000
  9.000E+07 9.000E+07 2.550E+00 6.138E+02 8.704E+02 4.189E+01 1.526E+03 1.529E+03 4.210E+05 21.3425 1.00000
  1.000E+08 1.000E+08 2.561E+00 6.823E+02 9.673E+02 4.709E+01 1.697E+03 1.699E+03 4.272E+05 21.5532 1.00000
  1.200E+08 1.200E+08 2.580E+00 8.194E+02 1.161E+03 5.765E+01 2.038E+03 2.041E+03 4.380E+05 21.9179 1.00000
  1.400E+08 1.400E+08 2.596E+00 9.564E+02 1.355E+03 6.841E+01 2.380E+03 2.382E+03 4.471E+05 22.2262 1.00000
  1.700E+08 1.700E+08 2.617E+00 1.162E+03 1.646E+03 8.488E+01 2.893E+03 2.895E+03 4.586E+05 22.6145 1.00000
  2.000E+08 2.000E+08 2.635E+00 1.368E+03 1.937E+03 1.017E+02 3.406E+03 3.409E+03 4.682E+05 22.9395 1.00000
  2.500E+08 2.500E+08 2.659E+00 1.710E+03 2.421E+03 1.303E+02 4.262E+03 4.265E+03 4.814E+05 23.3858 1.00000
  3.000E+08 3.000E+08 2.679E+00 2.053E+03 2.906E+03 1.597E+02 5.119E+03 5.122E+03 4.921E+05 23.7505 1.00000
  3.500E+08 3.500E+08 2.696E+00 2.396E+03 3.391E+03 1.895E+02 5.976E+03 5.979E+03 5.012E+05 24.0588 1.00000
  4.000E+08 4.000E+08 2.711E+00 2.739E+03 3.875E+03 2.199E+02 6.834E+03 6.837E+03 5.090E+05 24.3258 1.00000
  4.500E+08 4.500E+08 2.724E+00 3.082E+03 4.360E+03 2.508E+02 7.693E+03 7.695E+03 5.159E+05 24.5614 1.00000
  5.000E+08 5.000E+08 2.736E+00 3.425E+03 4.845E+03 2.820E+02 8.551E+03 8.554E+03 5.221E+05 24.7721 1.00000
  5.500E+08 5.500E+08 2.746E+00 3.767E+03 5.329E+03 3.136E+02 9.410E+03 9.413E+03 5.277E+05 24.9627 1.00000
  6.000E+08 6.000E+08 2.756E+00 4.110E+03 5.814E+03 3.456E+02 1.027E+04 1.027E+04 5.328E+05 25.1368 1.00000
  7.000E+08 7.000E+08 2.774E+00 4.796E+03 6.783E+03 4.104E+02 1.199E+04 1.199E+04 5.418E+05 25.4451 1.00000
  8.000E+08 8.000E+08 2.789E+00 5.482E+03 7.753E+03 4.764E+02 1.371E+04 1.371E+04 5.496E+05 25.7121 1.00000
  9.000E+08 9.000E+08 2.803E+00 6.168E+03 8.722E+03 5.433E+02 1.543E+04 1.544E+04 5.565E+05 25.9477 1.00000
  1.000E+09 1.000E+09 2.815E+00 6.853E+03 9.691E+03 6.111E+02 1.716E+04 1.716E+04 5.626E+05 26.1584 1.00000
