 Incident particle is a Muon with M = 105.65839 MeV
 Index = 0: TissueEquivalentGasMethaneBased
      Absorber with <Z/A> = 0.54985
 Sternheimer coef:  a     k=m_s   x_0    x_1    I[eV]   Cbar  delta0
                 0.0995  3.4708  1.6442  4.1399   61.2  9.9500 0.00

 *** Table generated with PUMAS v1.00 ***

      T         p     Ionization  brems     pair     photonuc  Radloss    dE/dx   CSDA Range  delta   beta
    [MeV]    [MeV/c]  -----------------------[MeV cm^2/g]------------------------  [g/cm^2]
  1.000E+00 1.457E+01 5.190E+01 7.041E-07 0.000E+00 0.000E+00 7.041E-07 5.190E+01 9.633E-03  0.0000 0.13661
  1.200E+00 1.597E+01 4.473E+01 8.063E-07 0.000E+00 0.000E+00 8.063E-07 4.473E+01 1.380E-02  0.0000 0.14944
  1.400E+00 1.726E+01 3.943E+01 9.039E-07 0.000E+00 0.000E+00 9.039E-07 3.943E+01 1.857E-02  0.0000 0.16119
  1.700E+00 1.903E+01 3.363E+01 1.043E-06 0.000E+00 0.000E+00 1.043E-06 3.363E+01 2.683E-02  0.0000 0.17725
  2.000E+00 2.066E+01 2.943E+01 1.175E-06 0.000E+00 0.000E+00 1.175E-06 2.943E+01 3.639E-02  0.0000 0.19186
  2.500E+00 2.312E+01 2.451E+01 1.382E-06 0.000E+00 0.000E+00 1.382E-06 2.451E+01 5.508E-02  0.0000 0.21376
  3.000E+00 2.536E+01 2.111E+01 1.577E-06 0.000E+00 0.000E+00 1.577E-06 2.111E+01 7.712E-02  0.0000 0.23336
  3.500E+00 2.742E+01 1.862E+01 1.760E-06 0.000E+00 0.000E+00 1.760E-06 1.862E+01 1.024E-01  0.0000 0.25120
  4.000E+00 2.935E+01 1.670E+01 1.934E-06 0.000E+00 0.000E+00 1.934E-06 1.670E+01 1.308E-01  0.0000 0.26763
  4.500E+00 3.116E+01 1.518E+01 2.100E-06 0.000E+00 0.000E+00 2.100E-06 1.518E+01 1.622E-01  0.0000 0.28290
  5.000E+00 3.289E+01 1.395E+01 2.259E-06 0.000E+00 0.000E+00 2.259E-06 1.395E+01 1.966E-01  0.0000 0.29720
  5.500E+00 3.453E+01 1.292E+01 2.413E-06 0.000E+00 0.000E+00 2.413E-06 1.292E+01 2.339E-01  0.0000 0.31066
  6.000E+00 3.611E+01 1.205E+01 2.561E-06 0.000E+00 0.000E+00 2.561E-06 1.205E+01 2.740E-01  0.0000 0.32339
  7.000E+00 3.909E+01 1.067E+01 2.843E-06 0.000E+00 0.000E+00 2.843E-06 1.067E+01 3.623E-01  0.0000 0.34700
  8.000E+00 4.189E+01 9.612E+00 3.109E-06 0.000E+00 0.000E+00 3.109E-06 9.612E+00 4.612E-01  0.0000 0.36854
  9.000E+00 4.453E+01 8.775E+00 3.361E-06 0.000E+00 0.000E+00 3.361E-06 8.775E+00 5.702E-01  0.0000 0.38836
  1.000E+01 4.704E+01 8.097E+00 3.603E-06 0.000E+00 0.000E+00 3.603E-06 8.097E+00 6.889E-01  0.0000 0.40675
  1.200E+01 5.177E+01 7.063E+00 4.056E-06 0.000E+00 0.000E+00 4.056E-06 7.063E+00 9.540E-01  0.0000 0.43998
  1.400E+01 5.616E+01 6.310E+00 4.479E-06 0.000E+00 0.000E+00 4.479E-06 6.310E+00 1.254E+00  0.0000 0.46937
  1.700E+01 6.230E+01 5.500E+00 5.069E-06 0.000E+00 0.000E+00 5.069E-06 5.500E+00 1.765E+00  0.0000 0.50792
  2.000E+01 6.802E+01 4.923E+00 5.620E-06 0.000E+00 0.000E+00 5.620E-06 4.923E+00 2.342E+00  0.0000 0.54129
  2.500E+01 7.686E+01 4.262E+00 6.475E-06 0.000E+00 0.000E+00 6.475E-06 4.262E+00 3.436E+00  0.0000 0.58827
  3.000E+01 8.509E+01 3.816E+00 7.276E-06 0.000E+00 0.000E+00 7.276E-06 3.816E+00 4.678E+00  0.0000 0.62720
  3.500E+01 9.285E+01 3.496E+00 8.042E-06 0.000E+00 0.000E+00 8.042E-06 3.496E+00 6.048E+00  0.0000 0.66011
  4.000E+01 1.003E+02 3.256E+00 8.785E-06 0.000E+00 0.000E+00 8.785E-06 3.256E+00 7.531E+00  0.0000 0.68834
  4.500E+01 1.074E+02 3.071E+00 9.512E-06 0.000E+00 0.000E+00 9.512E-06 3.071E+00 9.113E+00  0.0000 0.71286
  5.000E+01 1.143E+02 2.923E+00 1.023E-05 0.000E+00 0.000E+00 1.023E-05 2.923E+00 1.078E+01  0.0000 0.73434
  5.500E+01 1.210E+02 2.803E+00 1.094E-05 0.000E+00 0.000E+00 1.094E-05 2.803E+00 1.253E+01  0.0000 0.75332
  6.000E+01 1.276E+02 2.704E+00 1.165E-05 0.000E+00 0.000E+00 1.165E-05 2.704E+00 1.435E+01  0.0000 0.77019
  7.000E+01 1.403E+02 2.552E+00 1.307E-05 0.000E+00 0.000E+00 1.307E-05 2.552E+00 1.815E+01  0.0000 0.79887
  8.000E+01 1.527E+02 2.441E+00 1.450E-05 0.000E+00 0.000E+00 1.450E-05 2.441E+00 2.216E+01  0.0000 0.82227
  9.000E+01 1.647E+02 2.358E+00 1.594E-05 0.000E+00 0.000E+00 1.594E-05 2.358E+00 2.633E+01  0.0000 0.84166
  1.000E+02 1.764E+02 2.295E+00 1.740E-05 0.000E+00 0.000E+00 1.740E-05 2.295E+00 3.063E+01  0.0000 0.85794
  1.200E+02 1.994E+02 2.207E+00 2.041E-05 0.000E+00 0.000E+00 2.041E-05 2.207E+00 3.952E+01  0.0000 0.88361
  1.400E+02 2.218E+02 2.151E+00 2.351E-05 0.000E+00 0.000E+00 2.351E-05 2.151E+00 4.870E+01  0.0000 0.90278
  1.700E+02 2.546E+02 2.102E+00 2.838E-05 4.151E-14 0.000E+00 2.838E-05 2.102E+00 6.281E+01  0.0000 0.92363
  2.000E+02 2.868E+02 2.077E+00 3.347E-05 9.276E-12 0.000E+00 3.347E-05 2.077E+00 7.717E+01  0.0000 0.93835
  2.500E+02 3.396E+02 2.062E+00 4.246E-05 7.633E-08 0.000E+00 4.254E-05 2.062E+00 1.013E+02  0.0000 0.95485
  3.000E+02 3.917E+02 2.065E+00 5.203E-05 6.749E-07 0.000E+00 5.270E-05 2.065E+00 1.256E+02  0.0000 0.96548
  3.500E+02 4.432E+02 2.076E+00 6.212E-05 1.855E-06 0.000E+00 6.397E-05 2.076E+00 1.497E+02  0.0000 0.97274
  4.000E+02 4.945E+02 2.090E+00 7.268E-05 3.589E-06 0.000E+00 7.627E-05 2.090E+00 1.737E+02  0.0000 0.97793
  4.500E+02 5.455E+02 2.107E+00 8.369E-05 5.858E-06 0.000E+00 8.955E-05 2.107E+00 1.975E+02  0.0000 0.98176
  5.000E+02 5.964E+02 2.124E+00 9.512E-05 8.641E-06 0.000E+00 1.038E-04 2.125E+00 2.212E+02  0.0000 0.98467
  5.500E+02 6.471E+02 2.142E+00 1.069E-04 1.192E-05 0.000E+00 1.188E-04 2.142E+00 2.446E+02  0.0000 0.98693
  6.000E+02 6.977E+02 2.159E+00 1.191E-04 1.568E-05 0.000E+00 1.348E-04 2.160E+00 2.679E+02  0.0000 0.98873
  7.000E+02 7.987E+02 2.193E+00 1.444E-04 2.458E-05 0.000E+00 1.690E-04 2.193E+00 3.138E+02  0.0000 0.99136
  8.000E+02 8.995E+02 2.225E+00 1.709E-04 3.522E-05 0.000E+00 2.061E-04 2.225E+00 3.591E+02  0.0000 0.99317
  9.000E+02 1.000E+03 2.255E+00 1.985E-04 4.747E-05 0.000E+00 2.460E-04 2.255E+00 4.037E+02  0.0000 0.99447
  1.000E+03 1.101E+03 2.282E+00 2.272E-04 6.126E-05 0.000E+00 2.884E-04 2.283E+00 4.478E+02  0.0000 0.99542
  1.200E+03 1.301E+03 2.332E+00 2.871E-04 9.307E-05 2.256E-05 4.027E-04 2.333E+00 5.345E+02  0.0000 0.99672
  1.400E+03 1.502E+03 2.376E+00 3.502E-04 1.300E-04 6.185E-05 5.421E-04 2.377E+00 6.194E+02  0.0000 0.99753
  1.700E+03 1.803E+03 2.433E+00 4.500E-04 1.941E-04 1.328E-04 7.769E-04 2.434E+00 7.442E+02  0.0000 0.99829
  2.000E+03 2.103E+03 2.482E+00 5.553E-04 2.672E-04 2.168E-04 1.039E-03 2.483E+00 8.662E+02  0.0000 0.99874
  2.500E+03 2.604E+03 2.550E+00 7.408E-04 4.068E-04 3.797E-04 1.527E-03 2.551E+00 1.065E+03  0.0000 0.99918
  3.000E+03 3.104E+03 2.606E+00 9.372E-04 5.653E-04 5.515E-04 2.054E-03 2.608E+00 1.259E+03  0.0000 0.99942
  3.500E+03 3.604E+03 2.654E+00 1.143E-03 7.400E-04 7.341E-04 2.617E-03 2.657E+00 1.449E+03  0.0000 0.99957
  4.000E+03 4.104E+03 2.696E+00 1.357E-03 9.445E-04 9.298E-04 3.231E-03 2.699E+00 1.635E+03  0.0000 0.99967
  4.500E+03 4.604E+03 2.733E+00 1.577E-03 1.169E-03 1.134E-03 3.880E-03 2.737E+00 1.819E+03  0.0000 0.99974
  5.000E+03 5.105E+03 2.761E+00 1.805E-03 1.406E-03 1.330E-03 4.541E-03 2.766E+00 2.001E+03  0.0551 0.99979
  5.500E+03 5.605E+03 2.786E+00 2.038E-03 1.656E-03 1.542E-03 5.236E-03 2.791E+00 2.181E+03  0.1156 0.99982
  6.000E+03 6.105E+03 2.808E+00 2.276E-03 1.917E-03 1.740E-03 5.933E-03 2.814E+00 2.360E+03  0.1754 0.99985
  7.000E+03 7.105E+03 2.846E+00 2.767E-03 2.470E-03 2.160E-03 7.397E-03 2.854E+00 2.712E+03  0.2919 0.99989
  8.000E+03 8.105E+03 2.878E+00 3.276E-03 3.059E-03 2.578E-03 8.913E-03 2.887E+00 3.061E+03  0.4033 0.99992
  9.000E+03 9.105E+03 2.906E+00 3.800E-03 3.680E-03 2.972E-03 1.045E-02 2.916E+00 3.405E+03  0.5094 0.99993
  1.000E+04 1.011E+04 2.930E+00 4.337E-03 4.329E-03 3.380E-03 1.205E-02 2.942E+00 3.747E+03  0.6104 0.99995
  1.200E+04 1.211E+04 2.970E+00 5.447E-03 5.703E-03 4.208E-03 1.536E-02 2.986E+00 4.422E+03  0.7981 0.99996
  1.400E+04 1.411E+04 3.003E+00 6.599E-03 7.164E-03 5.039E-03 1.880E-02 3.022E+00 5.087E+03  0.9692 0.99997
  1.700E+04 1.711E+04 3.043E+00 8.391E-03 9.488E-03 6.274E-03 2.415E-02 3.067E+00 6.073E+03  1.1999 0.99998
  2.000E+04 2.011E+04 3.074E+00 1.025E-02 1.195E-02 7.490E-03 2.969E-02 3.104E+00 7.045E+03  1.4054 0.99999
  2.500E+04 2.511E+04 3.116E+00 1.347E-02 1.629E-02 9.491E-03 3.925E-02 3.155E+00 8.643E+03  1.7048 0.99999
  3.000E+04 3.011E+04 3.148E+00 1.681E-02 2.089E-02 1.146E-02 4.916E-02 3.197E+00 1.022E+04  1.9633 0.99999
  3.500E+04 3.511E+04 3.174E+00 2.025E-02 2.568E-02 1.345E-02 5.939E-02 3.233E+00 1.177E+04  2.1909 1.00000
  4.000E+04 4.011E+04 3.196E+00 2.379E-02 3.064E-02 1.543E-02 6.986E-02 3.266E+00 1.331E+04  2.3945 1.00000
  4.500E+04 4.511E+04 3.215E+00 2.739E-02 3.575E-02 1.738E-02 8.053E-02 3.295E+00 1.484E+04  2.5786 1.00000
  5.000E+04 5.011E+04 3.231E+00 3.107E-02 4.098E-02 1.934E-02 9.139E-02 3.322E+00 1.635E+04  2.7469 1.00000
  5.500E+04 5.511E+04 3.245E+00 3.480E-02 4.633E-02 2.131E-02 1.024E-01 3.348E+00 1.785E+04  2.9018 1.00000
  6.000E+04 6.011E+04 3.258E+00 3.859E-02 5.177E-02 2.326E-02 1.136E-01 3.372E+00 1.933E+04  3.0454 1.00000
  7.000E+04 7.011E+04 3.281E+00 4.631E-02 6.291E-02 2.714E-02 1.364E-01 3.417E+00 2.228E+04  3.3046 1.00000
  8.000E+04 8.011E+04 3.300E+00 5.419E-02 7.435E-02 3.104E-02 1.596E-01 3.459E+00 2.519E+04  3.5338 1.00000
  9.000E+04 9.011E+04 3.316E+00 6.221E-02 8.603E-02 3.494E-02 1.832E-01 3.499E+00 2.806E+04  3.7394 1.00000
  1.000E+05 1.001E+05 3.330E+00 7.036E-02 9.792E-02 3.877E-02 2.070E-01 3.537E+00 3.091E+04  3.9258 1.00000
  1.200E+05 1.201E+05 3.354E+00 8.697E-02 1.222E-01 4.658E-02 2.558E-01 3.610E+00 3.650E+04  4.2536 1.00000
  1.400E+05 1.401E+05 3.374E+00 1.040E-01 1.471E-01 5.440E-02 3.055E-01 3.679E+00 4.199E+04  4.5355 1.00000
  1.700E+05 1.701E+05 3.398E+00 1.300E-01 1.853E-01 6.614E-02 3.814E-01 3.779E+00 5.004E+04  4.8962 1.00000
  2.000E+05 2.001E+05 3.418E+00 1.565E-01 2.243E-01 7.797E-02 4.587E-01 3.877E+00 5.788E+04  5.2023 1.00000
  2.500E+05 2.501E+05 3.445E+00 2.017E-01 2.906E-01 9.776E-02 5.901E-01 4.035E+00 7.052E+04  5.6282 1.00000
  3.000E+05 3.001E+05 3.466E+00 2.478E-01 3.582E-01 1.177E-01 7.238E-01 4.190E+00 8.268E+04  5.9803 1.00000
  3.500E+05 3.501E+05 3.484E+00 2.947E-01 4.268E-01 1.379E-01 8.594E-01 4.344E+00 9.441E+04  6.2805 1.00000
  4.000E+05 4.001E+05 3.500E+00 3.422E-01 4.961E-01 1.583E-01 9.965E-01 4.496E+00 1.057E+05  6.5420 1.00000
  4.500E+05 4.501E+05 3.513E+00 3.901E-01 5.661E-01 1.787E-01 1.135E+00 4.648E+00 1.167E+05  6.7737 1.00000
  5.000E+05 5.001E+05 3.526E+00 4.386E-01 6.366E-01 1.993E-01 1.274E+00 4.800E+00 1.272E+05  6.9817 1.00000
  5.500E+05 5.501E+05 3.537E+00 4.874E-01 7.075E-01 2.198E-01 1.415E+00 4.951E+00 1.375E+05  7.1703 1.00000
  6.000E+05 6.001E+05 3.547E+00 5.366E-01 7.788E-01 2.404E-01 1.556E+00 5.102E+00 1.475E+05  7.3429 1.00000
  7.000E+05 7.001E+05 3.564E+00 6.358E-01 9.224E-01 2.820E-01 1.840E+00 5.404E+00 1.665E+05  7.6494 1.00000
  8.000E+05 8.001E+05 3.580E+00 7.360E-01 1.067E+00 3.240E-01 2.127E+00 5.707E+00 1.845E+05  7.9155 1.00000
  9.000E+05 9.001E+05 3.593E+00 8.371E-01 1.212E+00 3.664E-01 2.416E+00 6.009E+00 2.016E+05  8.1506 1.00000
  1.000E+06 1.000E+06 3.605E+00 9.388E-01 1.359E+00 4.093E-01 2.707E+00 6.312E+00 2.178E+05  8.3610 1.00000
  1.200E+06 1.200E+06 3.626E+00 1.144E+00 1.653E+00 4.960E-01 3.293E+00 6.919E+00 2.481E+05  8.7254 1.00000
  1.400E+06 1.400E+06 3.644E+00 1.351E+00 1.948E+00 5.840E-01 3.883E+00 7.528E+00 2.759E+05  9.0337 1.00000
  1.700E+06 1.700E+06 3.667E+00 1.664E+00 2.394E+00 7.180E-01 4.777E+00 8.444E+00 3.136E+05  9.4220 1.00000
  2.000E+06 2.000E+06 3.686E+00 1.980E+00 2.842E+00 8.543E-01 5.677E+00 9.363E+00 3.474E+05  9.7470 1.00000
  2.500E+06 2.500E+06 3.712E+00 2.511E+00 3.592E+00 1.086E+00 7.189E+00 1.090E+01 3.970E+05 10.1933 1.00000
  3.000E+06 3.000E+06 3.734E+00 3.046E+00 4.346E+00 1.321E+00 8.713E+00 1.245E+01 4.400E+05 10.5579 1.00000
  3.500E+06 3.500E+06 3.753E+00 3.584E+00 5.101E+00 1.561E+00 1.025E+01 1.400E+01 4.779E+05 10.8662 1.00000
  4.000E+06 4.000E+06 3.769E+00 4.125E+00 5.858E+00 1.804E+00 1.179E+01 1.556E+01 5.119E+05 11.1332 1.00000
  4.500E+06 4.500E+06 3.783E+00 4.667E+00 6.617E+00 2.050E+00 1.333E+01 1.712E+01 5.426E+05 11.3688 1.00000
  5.000E+06 5.000E+06 3.796E+00 5.212E+00 7.376E+00 2.299E+00 1.489E+01 1.868E+01 5.705E+05 11.5795 1.00000
  5.500E+06 5.500E+06 3.808E+00 5.757E+00 8.137E+00 2.550E+00 1.644E+01 2.025E+01 5.963E+05 11.7701 1.00000
  6.000E+06 6.000E+06 3.818E+00 6.304E+00 8.898E+00 2.804E+00 1.801E+01 2.182E+01 6.201E+05 11.9442 1.00000
  7.000E+06 7.000E+06 3.838E+00 7.400E+00 1.042E+01 3.318E+00 2.114E+01 2.498E+01 6.630E+05 12.2524 1.00000
  8.000E+06 8.000E+06 3.854E+00 8.499E+00 1.195E+01 3.840E+00 2.429E+01 2.814E+01 7.008E+05 12.5195 1.00000
  9.000E+06 9.000E+06 3.869E+00 9.601E+00 1.347E+01 4.368E+00 2.744E+01 3.131E+01 7.345E+05 12.7551 1.00000
  1.000E+07 1.000E+07 3.882E+00 1.071E+01 1.500E+01 4.903E+00 3.061E+01 3.449E+01 7.650E+05 12.9658 1.00000
  1.200E+07 1.200E+07 3.905E+00 1.292E+01 1.806E+01 5.989E+00 3.697E+01 4.088E+01 8.184E+05 13.3304 1.00000
  1.400E+07 1.400E+07 3.925E+00 1.514E+01 2.113E+01 7.094E+00 4.336E+01 4.728E+01 8.640E+05 13.6387 1.00000
  1.700E+07 1.700E+07 3.950E+00 1.847E+01 2.572E+01 8.783E+00 5.298E+01 5.693E+01 9.221E+05 14.0270 1.00000
  2.000E+07 2.000E+07 3.971E+00 2.181E+01 3.032E+01 1.051E+01 6.264E+01 6.661E+01 9.710E+05 14.3521 1.00000
  2.500E+07 2.500E+07 4.000E+00 2.739E+01 3.800E+01 1.344E+01 7.883E+01 8.283E+01 1.039E+06 14.7984 1.00000
  3.000E+07 3.000E+07 4.024E+00 3.298E+01 4.567E+01 1.643E+01 9.509E+01 9.911E+01 1.094E+06 15.1630 1.00000
  3.500E+07 3.500E+07 4.045E+00 3.858E+01 5.335E+01 1.948E+01 1.114E+02 1.155E+02 1.141E+06 15.4713 1.00000
  4.000E+07 4.000E+07 4.063E+00 4.418E+01 6.104E+01 2.258E+01 1.278E+02 1.319E+02 1.182E+06 15.7384 1.00000
  4.500E+07 4.500E+07 4.079E+00 4.978E+01 6.872E+01 2.573E+01 1.442E+02 1.483E+02 1.217E+06 15.9739 1.00000
  5.000E+07 5.000E+07 4.093E+00 5.539E+01 7.641E+01 2.891E+01 1.607E+02 1.648E+02 1.249E+06 16.1846 1.00000
  5.500E+07 5.500E+07 4.106E+00 6.100E+01 8.409E+01 3.213E+01 1.772E+02 1.813E+02 1.278E+06 16.3753 1.00000
  6.000E+07 6.000E+07 4.118E+00 6.661E+01 9.178E+01 3.538E+01 1.938E+02 1.979E+02 1.305E+06 16.5493 1.00000
  7.000E+07 7.000E+07 4.139E+00 7.784E+01 1.072E+02 4.197E+01 2.270E+02 2.311E+02 1.352E+06 16.8576 1.00000
  8.000E+07 8.000E+07 4.158E+00 8.907E+01 1.225E+02 4.867E+01 2.603E+02 2.644E+02 1.392E+06 17.1247 1.00000
  9.000E+07 9.000E+07 4.174E+00 1.003E+02 1.379E+02 5.546E+01 2.937E+02 2.979E+02 1.428E+06 17.3602 1.00000
  1.000E+08 1.000E+08 4.189E+00 1.116E+02 1.533E+02 6.234E+01 3.272E+02 3.314E+02 1.460E+06 17.5709 1.00000
  1.200E+08 1.200E+08 4.215E+00 1.340E+02 1.841E+02 7.632E+01 3.944E+02 3.986E+02 1.515E+06 17.9356 1.00000
  1.400E+08 1.400E+08 4.237E+00 1.565E+02 2.148E+02 9.058E+01 4.620E+02 4.662E+02 1.562E+06 18.2439 1.00000
  1.700E+08 1.700E+08 4.264E+00 1.903E+02 2.610E+02 1.124E+02 5.637E+02 5.679E+02 1.620E+06 18.6322 1.00000
  2.000E+08 2.000E+08 4.288E+00 2.241E+02 3.071E+02 1.346E+02 6.659E+02 6.702E+02 1.669E+06 18.9572 1.00000
  2.500E+08 2.500E+08 4.320E+00 2.804E+02 3.841E+02 1.726E+02 8.370E+02 8.414E+02 1.736E+06 19.4035 1.00000
  3.000E+08 3.000E+08 4.347E+00 3.367E+02 4.610E+02 2.114E+02 1.009E+03 1.013E+03 1.790E+06 19.7682 1.00000
  3.500E+08 3.500E+08 4.370E+00 3.930E+02 5.380E+02 2.510E+02 1.182E+03 1.186E+03 1.836E+06 20.0765 1.00000
  4.000E+08 4.000E+08 4.390E+00 4.493E+02 6.149E+02 2.912E+02 1.355E+03 1.360E+03 1.876E+06 20.3435 1.00000
  4.500E+08 4.500E+08 4.408E+00 5.057E+02 6.918E+02 3.321E+02 1.530E+03 1.534E+03 1.910E+06 20.5791 1.00000
  5.000E+08 5.000E+08 4.424E+00 5.620E+02 7.688E+02 3.735E+02 1.704E+03 1.709E+03 1.941E+06 20.7898 1.00000
  5.500E+08 5.500E+08 4.438E+00 6.184E+02 8.457E+02 4.153E+02 1.879E+03 1.884E+03 1.969E+06 20.9804 1.00000
  6.000E+08 6.000E+08 4.452E+00 6.747E+02 9.227E+02 4.576E+02 2.055E+03 2.059E+03 1.995E+06 21.1545 1.00000
  7.000E+08 7.000E+08 4.475E+00 7.874E+02 1.077E+03 5.435E+02 2.407E+03 2.412E+03 2.040E+06 21.4628 1.00000
  8.000E+08 8.000E+08 4.496E+00 9.001E+02 1.230E+03 6.308E+02 2.761E+03 2.766E+03 2.078E+06 21.7298 1.00000
  9.000E+08 9.000E+08 4.514E+00 1.013E+03 1.384E+03 7.194E+02 3.116E+03 3.121E+03 2.112E+06 21.9654 1.00000
  1.000E+09 1.000E+09 4.531E+00 1.125E+03 1.538E+03 8.092E+02 3.473E+03 3.477E+03 2.143E+06 22.1761 1.00000
