 Incident particle is a Muon with M = 105.65839 MeV
 Index = 0: TissueEquivalentGasPropaneBased
      Absorber with <Z/A> = 0.55019
 Sternheimer coef:  a     k=m_s   x_0    x_1    I[eV]   Cbar  delta0
                 0.0980  3.5159  1.5139  3.9916   59.5  9.3529 0.00

 *** Table generated with PUMAS v1.00 ***

      T         p     Ionization  brems     pair     photonuc  Radloss    dE/dx   CSDA Range  delta   beta
    [MeV]    [MeV/c]  -----------------------[MeV cm^2/g]------------------------  [g/cm^2]
  1.000E+00 1.457E+01 5.219E+01 6.821E-07 0.000E+00 0.000E+00 6.821E-07 5.219E+01 9.580E-03  0.0000 0.13661
  1.200E+00 1.597E+01 4.497E+01 7.809E-07 0.000E+00 0.000E+00 7.809E-07 4.497E+01 1.372E-02  0.0000 0.14944
  1.400E+00 1.726E+01 3.964E+01 8.753E-07 0.000E+00 0.000E+00 8.753E-07 3.964E+01 1.847E-02  0.0000 0.16119
  1.700E+00 1.903E+01 3.381E+01 1.010E-06 0.000E+00 0.000E+00 1.010E-06 3.381E+01 2.669E-02  0.0000 0.17725
  2.000E+00 2.066E+01 2.958E+01 1.138E-06 0.000E+00 0.000E+00 1.138E-06 2.958E+01 3.619E-02  0.0000 0.19186
  2.500E+00 2.312E+01 2.463E+01 1.338E-06 0.000E+00 0.000E+00 1.338E-06 2.463E+01 5.480E-02  0.0000 0.21376
  3.000E+00 2.536E+01 2.121E+01 1.526E-06 0.000E+00 0.000E+00 1.526E-06 2.121E+01 7.673E-02  0.0000 0.23336
  3.500E+00 2.742E+01 1.870E+01 1.703E-06 0.000E+00 0.000E+00 1.703E-06 1.870E+01 1.019E-01  0.0000 0.25120
  4.000E+00 2.935E+01 1.678E+01 1.872E-06 0.000E+00 0.000E+00 1.872E-06 1.678E+01 1.301E-01  0.0000 0.26763
  4.500E+00 3.116E+01 1.525E+01 2.033E-06 0.000E+00 0.000E+00 2.033E-06 1.525E+01 1.614E-01  0.0000 0.28290
  5.000E+00 3.289E+01 1.401E+01 2.187E-06 0.000E+00 0.000E+00 2.187E-06 1.401E+01 1.957E-01  0.0000 0.29720
  5.500E+00 3.453E+01 1.298E+01 2.336E-06 0.000E+00 0.000E+00 2.336E-06 1.298E+01 2.328E-01  0.0000 0.31066
  6.000E+00 3.611E+01 1.211E+01 2.479E-06 0.000E+00 0.000E+00 2.479E-06 1.211E+01 2.727E-01  0.0000 0.32339
  7.000E+00 3.909E+01 1.072E+01 2.752E-06 0.000E+00 0.000E+00 2.752E-06 1.072E+01 3.607E-01  0.0000 0.34700
  8.000E+00 4.189E+01 9.653E+00 3.010E-06 0.000E+00 0.000E+00 3.010E-06 9.653E+00 4.591E-01  0.0000 0.36854
  9.000E+00 4.453E+01 8.812E+00 3.255E-06 0.000E+00 0.000E+00 3.255E-06 8.812E+00 5.677E-01  0.0000 0.38836
  1.000E+01 4.704E+01 8.131E+00 3.488E-06 0.000E+00 0.000E+00 3.488E-06 8.131E+00 6.859E-01  0.0000 0.40675
  1.200E+01 5.177E+01 7.092E+00 3.928E-06 0.000E+00 0.000E+00 3.928E-06 7.092E+00 9.499E-01  0.0000 0.43998
  1.400E+01 5.616E+01 6.336E+00 4.337E-06 0.000E+00 0.000E+00 4.337E-06 6.336E+00 1.249E+00  0.0000 0.46937
  1.700E+01 6.230E+01 5.522E+00 4.910E-06 0.000E+00 0.000E+00 4.910E-06 5.522E+00 1.757E+00  0.0000 0.50792
  2.000E+01 6.802E+01 4.943E+00 5.443E-06 0.000E+00 0.000E+00 5.443E-06 4.943E+00 2.332E+00  0.0000 0.54129
  2.500E+01 7.686E+01 4.278E+00 6.272E-06 0.000E+00 0.000E+00 6.272E-06 4.278E+00 3.422E+00  0.0000 0.58827
  3.000E+01 8.509E+01 3.830E+00 7.050E-06 0.000E+00 0.000E+00 7.050E-06 3.830E+00 4.659E+00  0.0000 0.62720
  3.500E+01 9.285E+01 3.509E+00 7.792E-06 0.000E+00 0.000E+00 7.792E-06 3.509E+00 6.025E+00  0.0000 0.66011
  4.000E+01 1.003E+02 3.268E+00 8.513E-06 0.000E+00 0.000E+00 8.513E-06 3.268E+00 7.502E+00  0.0000 0.68834
  4.500E+01 1.074E+02 3.082E+00 9.218E-06 0.000E+00 0.000E+00 9.218E-06 3.082E+00 9.078E+00  0.0000 0.71286
  5.000E+01 1.143E+02 2.933E+00 9.913E-06 0.000E+00 0.000E+00 9.913E-06 2.933E+00 1.074E+01  0.0000 0.73434
  5.500E+01 1.210E+02 2.813E+00 1.060E-05 0.000E+00 0.000E+00 1.060E-05 2.813E+00 1.248E+01  0.0000 0.75332
  6.000E+01 1.276E+02 2.714E+00 1.129E-05 0.000E+00 0.000E+00 1.129E-05 2.714E+00 1.429E+01  0.0000 0.77019
  7.000E+01 1.403E+02 2.561E+00 1.267E-05 0.000E+00 0.000E+00 1.267E-05 2.561E+00 1.809E+01  0.0000 0.79887
  8.000E+01 1.527E+02 2.450E+00 1.405E-05 0.000E+00 0.000E+00 1.405E-05 2.450E+00 2.208E+01  0.0000 0.82227
  9.000E+01 1.647E+02 2.367E+00 1.545E-05 0.000E+00 0.000E+00 1.545E-05 2.367E+00 2.623E+01  0.0000 0.84166
  1.000E+02 1.764E+02 2.303E+00 1.687E-05 0.000E+00 0.000E+00 1.687E-05 2.303E+00 3.052E+01  0.0000 0.85794
  1.200E+02 1.994E+02 2.214E+00 1.978E-05 0.000E+00 0.000E+00 1.978E-05 2.214E+00 3.938E+01  0.0000 0.88361
  1.400E+02 2.218E+02 2.158E+00 2.279E-05 0.000E+00 0.000E+00 2.279E-05 2.158E+00 4.853E+01  0.0000 0.90278
  1.700E+02 2.546E+02 2.109E+00 2.750E-05 4.019E-14 0.000E+00 2.750E-05 2.109E+00 6.259E+01  0.0000 0.92363
  2.000E+02 2.868E+02 2.083E+00 3.244E-05 8.979E-12 0.000E+00 3.244E-05 2.083E+00 7.690E+01  0.0000 0.93835
  2.500E+02 3.396E+02 2.069E+00 4.115E-05 7.394E-08 0.000E+00 4.122E-05 2.069E+00 1.010E+02  0.0000 0.95485
  3.000E+02 3.917E+02 2.071E+00 5.041E-05 6.521E-07 0.000E+00 5.107E-05 2.071E+00 1.251E+02  0.0000 0.96548
  3.500E+02 4.432E+02 2.082E+00 6.019E-05 1.791E-06 0.000E+00 6.198E-05 2.082E+00 1.492E+02  0.0000 0.97274
  4.000E+02 4.945E+02 2.097E+00 7.042E-05 3.465E-06 0.000E+00 7.389E-05 2.097E+00 1.732E+02  0.0000 0.97793
  4.500E+02 5.455E+02 2.113E+00 8.109E-05 5.653E-06 0.000E+00 8.674E-05 2.113E+00 1.969E+02  0.0000 0.98176
  5.000E+02 5.964E+02 2.131E+00 9.215E-05 8.339E-06 0.000E+00 1.005E-04 2.131E+00 2.205E+02  0.0000 0.98467
  5.500E+02 6.471E+02 2.148E+00 1.036E-04 1.150E-05 0.000E+00 1.151E-04 2.148E+00 2.438E+02  0.0000 0.98693
  6.000E+02 6.977E+02 2.166E+00 1.154E-04 1.513E-05 0.000E+00 1.305E-04 2.166E+00 2.670E+02  0.0000 0.98873
  7.000E+02 7.987E+02 2.199E+00 1.399E-04 2.371E-05 0.000E+00 1.636E-04 2.200E+00 3.128E+02  0.0000 0.99136
  8.000E+02 8.995E+02 2.231E+00 1.656E-04 3.397E-05 0.000E+00 1.995E-04 2.231E+00 3.580E+02  0.0000 0.99317
  9.000E+02 1.000E+03 2.261E+00 1.923E-04 4.579E-05 0.000E+00 2.381E-04 2.261E+00 4.025E+02  0.0000 0.99447
  1.000E+03 1.101E+03 2.288E+00 2.200E-04 5.909E-05 0.000E+00 2.791E-04 2.289E+00 4.465E+02  0.0000 0.99542
  1.200E+03 1.301E+03 2.338E+00 2.781E-04 8.976E-05 2.257E-05 3.904E-04 2.339E+00 5.329E+02  0.0000 0.99672
  1.400E+03 1.502E+03 2.382E+00 3.392E-04 1.254E-04 6.186E-05 5.264E-04 2.383E+00 6.176E+02  0.0000 0.99753
  1.700E+03 1.803E+03 2.439E+00 4.359E-04 1.872E-04 1.329E-04 7.559E-04 2.440E+00 7.421E+02  0.0000 0.99829
  2.000E+03 2.103E+03 2.488E+00 5.378E-04 2.577E-04 2.169E-04 1.012E-03 2.489E+00 8.638E+02  0.0000 0.99874
  2.500E+03 2.604E+03 2.556E+00 7.175E-04 3.923E-04 3.799E-04 1.490E-03 2.558E+00 1.062E+03  0.0000 0.99918
  3.000E+03 3.104E+03 2.613E+00 9.077E-04 5.452E-04 5.520E-04 2.005E-03 2.615E+00 1.255E+03  0.0000 0.99942
  3.500E+03 3.604E+03 2.659E+00 1.107E-03 7.137E-04 7.349E-04 2.555E-03 2.661E+00 1.445E+03  0.0233 0.99957
  4.000E+03 4.104E+03 2.694E+00 1.314E-03 9.115E-04 9.308E-04 3.156E-03 2.697E+00 1.632E+03  0.1015 0.99967
  4.500E+03 4.604E+03 2.724E+00 1.528E-03 1.128E-03 1.135E-03 3.791E-03 2.728E+00 1.816E+03  0.1795 0.99974
  5.000E+03 5.105E+03 2.751E+00 1.748E-03 1.358E-03 1.332E-03 4.438E-03 2.755E+00 1.998E+03  0.2561 0.99979
  5.500E+03 5.605E+03 2.774E+00 1.974E-03 1.600E-03 1.544E-03 5.118E-03 2.779E+00 2.179E+03  0.3309 0.99982
  6.000E+03 6.105E+03 2.795E+00 2.205E-03 1.853E-03 1.743E-03 5.800E-03 2.801E+00 2.358E+03  0.4036 0.99985
  7.000E+03 7.105E+03 2.832E+00 2.681E-03 2.388E-03 2.163E-03 7.233E-03 2.839E+00 2.713E+03  0.5426 0.99989
  8.000E+03 8.105E+03 2.862E+00 3.174E-03 2.959E-03 2.582E-03 8.715E-03 2.871E+00 3.063E+03  0.6731 0.99992
  9.000E+03 9.105E+03 2.888E+00 3.681E-03 3.561E-03 2.977E-03 1.022E-02 2.899E+00 3.410E+03  0.7956 0.99993
  1.000E+04 1.011E+04 2.911E+00 4.202E-03 4.190E-03 3.385E-03 1.178E-02 2.923E+00 3.753E+03  0.9111 0.99995
  1.200E+04 1.211E+04 2.949E+00 5.278E-03 5.521E-03 4.215E-03 1.501E-02 2.964E+00 4.433E+03  1.1231 0.99996
  1.400E+04 1.411E+04 2.981E+00 6.394E-03 6.937E-03 5.049E-03 1.838E-02 2.999E+00 5.104E+03  1.3140 0.99997
  1.700E+04 1.711E+04 3.018E+00 8.132E-03 9.190E-03 6.287E-03 2.361E-02 3.042E+00 6.097E+03  1.5686 0.99998
  2.000E+04 2.011E+04 3.048E+00 9.934E-03 1.157E-02 7.505E-03 2.901E-02 3.077E+00 7.077E+03  1.7934 0.99999
  2.500E+04 2.511E+04 3.087E+00 1.305E-02 1.579E-02 9.511E-03 3.835E-02 3.126E+00 8.690E+03  2.1178 0.99999
  3.000E+04 3.011E+04 3.118E+00 1.630E-02 2.024E-02 1.149E-02 4.802E-02 3.166E+00 1.028E+04  2.3956 0.99999
  3.500E+04 3.511E+04 3.143E+00 1.964E-02 2.489E-02 1.349E-02 5.801E-02 3.201E+00 1.185E+04  2.6388 1.00000
  4.000E+04 4.011E+04 3.164E+00 2.306E-02 2.970E-02 1.547E-02 6.824E-02 3.232E+00 1.340E+04  2.8551 1.00000
  4.500E+04 4.511E+04 3.182E+00 2.657E-02 3.466E-02 1.743E-02 7.865E-02 3.260E+00 1.494E+04  3.0500 1.00000
  5.000E+04 5.011E+04 3.197E+00 3.013E-02 3.974E-02 1.939E-02 8.925E-02 3.286E+00 1.647E+04  3.2275 1.00000
  5.500E+04 5.511E+04 3.211E+00 3.375E-02 4.492E-02 2.136E-02 1.000E-01 3.311E+00 1.799E+04  3.3905 1.00000
  6.000E+04 6.011E+04 3.223E+00 3.743E-02 5.020E-02 2.332E-02 1.110E-01 3.334E+00 1.949E+04  3.5412 1.00000
  7.000E+04 7.011E+04 3.245E+00 4.492E-02 6.102E-02 2.721E-02 1.331E-01 3.378E+00 2.247E+04  3.8123 1.00000
  8.000E+04 8.011E+04 3.263E+00 5.257E-02 7.211E-02 3.112E-02 1.558E-01 3.418E+00 2.542E+04  4.0511 1.00000
  9.000E+04 9.011E+04 3.278E+00 6.036E-02 8.345E-02 3.503E-02 1.788E-01 3.457E+00 2.832E+04  4.2647 1.00000
  1.000E+05 1.001E+05 3.292E+00 6.827E-02 9.499E-02 3.888E-02 2.021E-01 3.494E+00 3.120E+04  4.4579 1.00000
  1.200E+05 1.201E+05 3.315E+00 8.440E-02 1.186E-01 4.671E-02 2.497E-01 3.565E+00 3.687E+04  4.7966 1.00000
  1.400E+05 1.401E+05 3.334E+00 1.009E-01 1.428E-01 5.455E-02 2.982E-01 3.632E+00 4.243E+04  5.0868 1.00000
  1.700E+05 1.701E+05 3.357E+00 1.261E-01 1.798E-01 6.633E-02 3.723E-01 3.730E+00 5.058E+04  5.4568 1.00000
  2.000E+05 2.001E+05 3.377E+00 1.519E-01 2.177E-01 7.820E-02 4.478E-01 3.825E+00 5.852E+04  5.7699 1.00000
  2.500E+05 2.501E+05 3.403E+00 1.958E-01 2.821E-01 9.805E-02 5.760E-01 3.979E+00 7.134E+04  6.2039 1.00000
  3.000E+05 3.001E+05 3.424E+00 2.406E-01 3.478E-01 1.181E-01 7.065E-01 4.131E+00 8.368E+04  6.5616 1.00000
  3.500E+05 3.501E+05 3.442E+00 2.862E-01 4.144E-01 1.383E-01 8.389E-01 4.281E+00 9.557E+04  6.8656 1.00000
  4.000E+05 4.001E+05 3.457E+00 3.323E-01 4.818E-01 1.587E-01 9.728E-01 4.430E+00 1.071E+05  7.1300 1.00000
  4.500E+05 4.501E+05 3.471E+00 3.789E-01 5.498E-01 1.793E-01 1.108E+00 4.578E+00 1.182E+05  7.3639 1.00000
  5.000E+05 5.001E+05 3.483E+00 4.260E-01 6.183E-01 1.999E-01 1.244E+00 4.727E+00 1.289E+05  7.5735 1.00000
  5.500E+05 5.501E+05 3.493E+00 4.734E-01 6.872E-01 2.205E-01 1.381E+00 4.875E+00 1.393E+05  7.7635 1.00000
  6.000E+05 6.001E+05 3.503E+00 5.212E-01 7.565E-01 2.411E-01 1.519E+00 5.022E+00 1.494E+05  7.9370 1.00000
  7.000E+05 7.001E+05 3.521E+00 6.177E-01 8.961E-01 2.829E-01 1.797E+00 5.318E+00 1.688E+05  8.2448 1.00000
  8.000E+05 8.001E+05 3.536E+00 7.151E-01 1.037E+00 3.250E-01 2.077E+00 5.613E+00 1.871E+05  8.5117 1.00000
  9.000E+05 9.001E+05 3.550E+00 8.133E-01 1.178E+00 3.676E-01 2.359E+00 5.909E+00 2.045E+05  8.7472 1.00000
  1.000E+06 1.000E+06 3.562E+00 9.122E-01 1.320E+00 4.106E-01 2.643E+00 6.205E+00 2.210E+05  8.9579 1.00000
  1.200E+06 1.200E+06 3.583E+00 1.112E+00 1.606E+00 4.976E-01 3.215E+00 6.798E+00 2.518E+05  9.3225 1.00000
  1.400E+06 1.400E+06 3.601E+00 1.313E+00 1.893E+00 5.859E-01 3.792E+00 7.393E+00 2.801E+05  9.6308 1.00000
  1.700E+06 1.700E+06 3.623E+00 1.618E+00 2.327E+00 7.204E-01 4.665E+00 8.288E+00 3.184E+05 10.0191 1.00000
  2.000E+06 2.000E+06 3.643E+00 1.925E+00 2.763E+00 8.571E-01 5.545E+00 9.187E+00 3.529E+05 10.3441 1.00000
  2.500E+06 2.500E+06 3.669E+00 2.441E+00 3.492E+00 1.089E+00 7.022E+00 1.069E+01 4.035E+05 10.7904 1.00000
  3.000E+06 3.000E+06 3.691E+00 2.961E+00 4.225E+00 1.326E+00 8.512E+00 1.220E+01 4.473E+05 11.1550 1.00000
  3.500E+06 3.500E+06 3.709E+00 3.485E+00 4.959E+00 1.566E+00 1.001E+01 1.372E+01 4.860E+05 11.4633 1.00000
  4.000E+06 4.000E+06 3.726E+00 4.010E+00 5.696E+00 1.810E+00 1.152E+01 1.524E+01 5.207E+05 11.7303 1.00000
  4.500E+06 4.500E+06 3.740E+00 4.538E+00 6.433E+00 2.057E+00 1.303E+01 1.677E+01 5.520E+05 11.9659 1.00000
  5.000E+06 5.000E+06 3.753E+00 5.067E+00 7.172E+00 2.307E+00 1.455E+01 1.830E+01 5.806E+05 12.1766 1.00000
  5.500E+06 5.500E+06 3.764E+00 5.598E+00 7.912E+00 2.559E+00 1.607E+01 1.983E+01 6.068E+05 12.3672 1.00000
  6.000E+06 6.000E+06 3.775E+00 6.130E+00 8.652E+00 2.813E+00 1.759E+01 2.137E+01 6.311E+05 12.5413 1.00000
  7.000E+06 7.000E+06 3.794E+00 7.196E+00 1.013E+01 3.329E+00 2.066E+01 2.445E+01 6.750E+05 12.8495 1.00000
  8.000E+06 8.000E+06 3.811E+00 8.266E+00 1.162E+01 3.852E+00 2.374E+01 2.755E+01 7.136E+05 13.1166 1.00000
  9.000E+06 9.000E+06 3.826E+00 9.338E+00 1.310E+01 4.383E+00 2.682E+01 3.065E+01 7.480E+05 13.3522 1.00000
  1.000E+07 1.000E+07 3.839E+00 1.041E+01 1.459E+01 4.919E+00 2.992E+01 3.376E+01 7.792E+05 13.5629 1.00000
  1.200E+07 1.200E+07 3.862E+00 1.257E+01 1.757E+01 6.009E+00 3.614E+01 4.000E+01 8.338E+05 13.9275 1.00000
  1.400E+07 1.400E+07 3.882E+00 1.472E+01 2.055E+01 7.118E+00 4.239E+01 4.627E+01 8.804E+05 14.2358 1.00000
  1.700E+07 1.700E+07 3.907E+00 1.797E+01 2.502E+01 8.813E+00 5.180E+01 5.571E+01 9.397E+05 14.6241 1.00000
  2.000E+07 2.000E+07 3.928E+00 2.122E+01 2.949E+01 1.054E+01 6.125E+01 6.518E+01 9.897E+05 14.9492 1.00000
  2.500E+07 2.500E+07 3.957E+00 2.665E+01 3.696E+01 1.348E+01 7.709E+01 8.104E+01 1.059E+06 15.3955 1.00000
  3.000E+07 3.000E+07 3.981E+00 3.209E+01 4.442E+01 1.649E+01 9.300E+01 9.698E+01 1.116E+06 15.7601 1.00000
  3.500E+07 3.500E+07 4.002E+00 3.753E+01 5.189E+01 1.955E+01 1.090E+02 1.130E+02 1.163E+06 16.0684 1.00000
  4.000E+07 4.000E+07 4.020E+00 4.298E+01 5.937E+01 2.266E+01 1.250E+02 1.290E+02 1.205E+06 16.3355 1.00000
  4.500E+07 4.500E+07 4.036E+00 4.843E+01 6.684E+01 2.581E+01 1.411E+02 1.451E+02 1.242E+06 16.5710 1.00000
  5.000E+07 5.000E+07 4.050E+00 5.389E+01 7.432E+01 2.901E+01 1.572E+02 1.613E+02 1.274E+06 16.7817 1.00000
  5.500E+07 5.500E+07 4.063E+00 5.935E+01 8.179E+01 3.224E+01 1.734E+02 1.774E+02 1.304E+06 16.9724 1.00000
  6.000E+07 6.000E+07 4.075E+00 6.481E+01 8.927E+01 3.550E+01 1.896E+02 1.937E+02 1.331E+06 17.1464 1.00000
  7.000E+07 7.000E+07 4.096E+00 7.574E+01 1.042E+02 4.211E+01 2.221E+02 2.262E+02 1.379E+06 17.4547 1.00000
  8.000E+07 8.000E+07 4.115E+00 8.667E+01 1.192E+02 4.883E+01 2.547E+02 2.588E+02 1.420E+06 17.7218 1.00000
  9.000E+07 9.000E+07 4.131E+00 9.761E+01 1.341E+02 5.565E+01 2.874E+02 2.915E+02 1.457E+06 17.9573 1.00000
  1.000E+08 1.000E+08 4.146E+00 1.085E+02 1.491E+02 6.255E+01 3.202E+02 3.243E+02 1.489E+06 18.1680 1.00000
  1.200E+08 1.200E+08 4.172E+00 1.304E+02 1.790E+02 7.658E+01 3.860E+02 3.902E+02 1.546E+06 18.5327 1.00000
  1.400E+08 1.400E+08 4.193E+00 1.523E+02 2.090E+02 9.088E+01 4.522E+02 4.564E+02 1.593E+06 18.8410 1.00000
  1.700E+08 1.700E+08 4.221E+00 1.852E+02 2.539E+02 1.128E+02 5.518E+02 5.560E+02 1.653E+06 19.2293 1.00000
  2.000E+08 2.000E+08 4.245E+00 2.181E+02 2.988E+02 1.351E+02 6.519E+02 6.562E+02 1.703E+06 19.5543 1.00000
  2.500E+08 2.500E+08 4.277E+00 2.728E+02 3.736E+02 1.732E+02 8.196E+02 8.239E+02 1.771E+06 20.0006 1.00000
  3.000E+08 3.000E+08 4.304E+00 3.276E+02 4.484E+02 2.121E+02 9.882E+02 9.925E+02 1.827E+06 20.3653 1.00000
  3.500E+08 3.500E+08 4.327E+00 3.825E+02 5.233E+02 2.518E+02 1.158E+03 1.162E+03 1.874E+06 20.6736 1.00000
  4.000E+08 4.000E+08 4.347E+00 4.373E+02 5.981E+02 2.922E+02 1.328E+03 1.332E+03 1.914E+06 20.9406 1.00000
  4.500E+08 4.500E+08 4.365E+00 4.921E+02 6.730E+02 3.332E+02 1.498E+03 1.503E+03 1.949E+06 21.1762 1.00000
  5.000E+08 5.000E+08 4.381E+00 5.469E+02 7.478E+02 3.747E+02 1.669E+03 1.674E+03 1.981E+06 21.3869 1.00000
  5.500E+08 5.500E+08 4.396E+00 6.017E+02 8.226E+02 4.167E+02 1.841E+03 1.846E+03 2.009E+06 21.5775 1.00000
  6.000E+08 6.000E+08 4.409E+00 6.566E+02 8.975E+02 4.592E+02 2.013E+03 2.018E+03 2.035E+06 21.7516 1.00000
  7.000E+08 7.000E+08 4.433E+00 7.662E+02 1.047E+03 5.453E+02 2.359E+03 2.363E+03 2.081E+06 22.0599 1.00000
  8.000E+08 8.000E+08 4.453E+00 8.759E+02 1.197E+03 6.329E+02 2.706E+03 2.710E+03 2.121E+06 22.3269 1.00000
  9.000E+08 9.000E+08 4.472E+00 9.856E+02 1.347E+03 7.219E+02 3.054E+03 3.058E+03 2.156E+06 22.5625 1.00000
  1.000E+09 1.000E+09 4.488E+00 1.095E+03 1.496E+03 8.120E+02 3.403E+03 3.408E+03 2.187E+06 22.7732 1.00000
