 Incident particle is a Muon with M = 105.65839 MeV
 Index = 0: TitaniumDioxide
      Absorber with <Z/A> = 0.47580
 Sternheimer coef:  a     k=m_s   x_0    x_1    I[eV]   Cbar  delta0
                 0.0857  3.3267  0.0119  3.1647  179.5  3.9522 0.00

 *** Table generated with PUMAS v1.00 ***

      T         p     Ionization  brems     pair     photonuc  Radloss    dE/dx   CSDA Range  delta   beta
    [MeV]    [MeV/c]  -----------------------[MeV cm^2/g]------------------------  [g/cm^2]
  1.000E+00 1.457E+01 3.649E+01 1.504E-06 0.000E+00 0.000E+00 1.504E-06 3.649E+01 1.370E-02  0.0000 0.13661
  1.200E+00 1.597E+01 3.167E+01 1.728E-06 0.000E+00 0.000E+00 1.728E-06 3.167E+01 1.960E-02  0.0000 0.14944
  1.400E+00 1.726E+01 2.807E+01 1.942E-06 0.000E+00 0.000E+00 1.942E-06 2.807E+01 2.632E-02  0.0000 0.16119
  1.700E+00 1.903E+01 2.410E+01 2.245E-06 0.000E+00 0.000E+00 2.245E-06 2.410E+01 3.789E-02  0.0000 0.17725
  2.000E+00 2.066E+01 2.120E+01 2.532E-06 0.000E+00 0.000E+00 2.532E-06 2.120E+01 5.119E-02  0.0000 0.19186
  2.500E+00 2.312E+01 1.777E+01 2.980E-06 0.000E+00 0.000E+00 2.980E-06 1.777E+01 7.705E-02  0.0000 0.21376
  3.000E+00 2.536E+01 1.538E+01 3.396E-06 0.000E+00 0.000E+00 3.396E-06 1.538E+01 1.074E-01  0.0000 0.23336
  3.500E+00 2.742E+01 1.362E+01 3.788E-06 0.000E+00 0.000E+00 3.788E-06 1.362E+01 1.420E-01  0.0000 0.25120
  4.000E+00 2.935E+01 1.226E+01 4.159E-06 0.000E+00 0.000E+00 4.159E-06 1.226E+01 1.807E-01  0.0000 0.26763
  4.500E+00 3.116E+01 1.117E+01 4.512E-06 0.000E+00 0.000E+00 4.512E-06 1.117E+01 2.235E-01  0.0000 0.28290
  5.000E+00 3.289E+01 1.029E+01 4.850E-06 0.000E+00 0.000E+00 4.850E-06 1.029E+01 2.702E-01  0.0000 0.29720
  5.500E+00 3.453E+01 9.551E+00 5.173E-06 0.000E+00 0.000E+00 5.173E-06 9.551E+00 3.207E-01  0.0000 0.31066
  6.000E+00 3.611E+01 8.927E+00 5.485E-06 0.000E+00 0.000E+00 5.485E-06 8.927E+00 3.748E-01  0.0000 0.32339
  7.000E+00 3.909E+01 7.927E+00 6.076E-06 0.000E+00 0.000E+00 6.076E-06 7.927E+00 4.939E-01  0.0000 0.34700
  8.000E+00 4.189E+01 7.160E+00 6.631E-06 0.000E+00 0.000E+00 6.631E-06 7.160E+00 6.268E-01  0.0000 0.36854
  9.000E+00 4.453E+01 6.551E+00 7.156E-06 0.000E+00 0.000E+00 7.156E-06 6.551E+00 7.730E-01  0.0000 0.38836
  1.000E+01 4.704E+01 6.056E+00 7.655E-06 0.000E+00 0.000E+00 7.655E-06 6.056E+00 9.319E-01  0.0000 0.40675
  1.200E+01 5.177E+01 5.299E+00 8.591E-06 0.000E+00 0.000E+00 8.591E-06 5.299E+00 1.286E+00  0.0000 0.43998
  1.400E+01 5.616E+01 4.747E+00 9.460E-06 0.000E+00 0.000E+00 9.460E-06 4.747E+00 1.685E+00  0.0000 0.46937
  1.700E+01 6.230E+01 4.150E+00 1.067E-05 0.000E+00 0.000E+00 1.067E-05 4.150E+00 2.363E+00  0.0000 0.50792
  2.000E+01 6.802E+01 3.724E+00 1.179E-05 0.000E+00 0.000E+00 1.179E-05 3.724E+00 3.127E+00  0.0000 0.54129
  2.500E+01 7.686E+01 3.233E+00 1.353E-05 0.000E+00 0.000E+00 1.353E-05 3.233E+00 4.571E+00  0.0000 0.58827
  3.000E+01 8.509E+01 2.902E+00 1.516E-05 0.000E+00 0.000E+00 1.516E-05 2.902E+00 6.206E+00  0.0000 0.62720
  3.500E+01 9.285E+01 2.665E+00 1.672E-05 0.000E+00 0.000E+00 1.672E-05 2.665E+00 8.006E+00  0.0000 0.66011
  4.000E+01 1.003E+02 2.486E+00 1.824E-05 0.000E+00 0.000E+00 1.824E-05 2.486E+00 9.949E+00  0.0000 0.68834
  4.500E+01 1.074E+02 2.348E+00 1.972E-05 0.000E+00 0.000E+00 1.972E-05 2.348E+00 1.202E+01  0.0000 0.71286
  5.000E+01 1.143E+02 2.235E+00 2.118E-05 0.000E+00 0.000E+00 2.118E-05 2.235E+00 1.420E+01  0.0224 0.73434
  5.500E+01 1.210E+02 2.144E+00 2.264E-05 0.000E+00 0.000E+00 2.264E-05 2.144E+00 1.649E+01  0.0370 0.75332
  6.000E+01 1.276E+02 2.068E+00 2.409E-05 0.000E+00 0.000E+00 2.409E-05 2.068E+00 1.886E+01  0.0520 0.77019
  7.000E+01 1.403E+02 1.952E+00 2.700E-05 0.000E+00 0.000E+00 2.700E-05 1.952E+00 2.384E+01  0.0831 0.79887
  8.000E+01 1.527E+02 1.868E+00 2.994E-05 0.000E+00 0.000E+00 2.994E-05 1.868E+00 2.908E+01  0.1148 0.82227
  9.000E+01 1.647E+02 1.804E+00 3.291E-05 0.000E+00 0.000E+00 3.291E-05 1.804E+00 3.453E+01  0.1465 0.84166
  1.000E+02 1.764E+02 1.755E+00 3.594E-05 0.000E+00 0.000E+00 3.594E-05 1.755E+00 4.015E+01  0.1780 0.85794
  1.200E+02 1.994E+02 1.686E+00 4.215E-05 0.000E+00 0.000E+00 4.215E-05 1.686E+00 5.178E+01  0.2400 0.88361
  1.400E+02 2.218E+02 1.641E+00 4.860E-05 0.000E+00 0.000E+00 4.860E-05 1.641E+00 6.381E+01  0.3002 0.90278
  1.700E+02 2.546E+02 1.601E+00 5.871E-05 2.025E-14 0.000E+00 5.871E-05 1.601E+00 8.231E+01  0.3867 0.92363
  2.000E+02 2.868E+02 1.580E+00 6.933E-05 4.528E-12 0.000E+00 6.933E-05 1.580E+00 1.012E+02  0.4688 0.93835
  2.500E+02 3.396E+02 1.564E+00 8.813E-05 3.718E-08 0.000E+00 8.816E-05 1.564E+00 1.330E+02  0.5968 0.95485
  3.000E+02 3.917E+02 1.562E+00 1.082E-04 1.442E-06 0.000E+00 1.096E-04 1.562E+00 1.650E+02  0.7150 0.96548
  3.500E+02 4.432E+02 1.566E+00 1.294E-04 4.177E-06 0.000E+00 1.335E-04 1.566E+00 1.969E+02  0.8248 0.97274
  4.000E+02 4.945E+02 1.574E+00 1.516E-04 8.204E-06 0.000E+00 1.598E-04 1.574E+00 2.288E+02  0.9275 0.97793
  4.500E+02 5.455E+02 1.582E+00 1.748E-04 1.350E-05 0.000E+00 1.883E-04 1.583E+00 2.605E+02  1.0239 0.98176
  5.000E+02 5.964E+02 1.592E+00 1.989E-04 2.001E-05 0.000E+00 2.189E-04 1.592E+00 2.920E+02  1.1149 0.98467
  5.500E+02 6.471E+02 1.602E+00 2.238E-04 2.771E-05 0.000E+00 2.515E-04 1.602E+00 3.233E+02  1.2010 0.98693
  6.000E+02 6.977E+02 1.612E+00 2.495E-04 3.654E-05 0.000E+00 2.861E-04 1.612E+00 3.544E+02  1.2828 0.98873
  7.000E+02 7.987E+02 1.631E+00 3.031E-04 5.746E-05 0.000E+00 3.606E-04 1.632E+00 4.160E+02  1.4351 0.99136
  8.000E+02 8.995E+02 1.649E+00 3.593E-04 8.250E-05 0.000E+00 4.418E-04 1.650E+00 4.770E+02  1.5746 0.99317
  9.000E+02 1.000E+03 1.666E+00 4.179E-04 1.114E-04 0.000E+00 5.293E-04 1.667E+00 5.373E+02  1.7034 0.99447
  1.000E+03 1.101E+03 1.682E+00 4.787E-04 1.439E-04 0.000E+00 6.226E-04 1.682E+00 5.970E+02  1.8232 0.99542
  1.200E+03 1.301E+03 1.710E+00 6.061E-04 2.189E-04 2.252E-05 8.475E-04 1.711E+00 7.149E+02  2.0404 0.99672
  1.400E+03 1.502E+03 1.734E+00 7.404E-04 3.061E-04 6.147E-05 1.108E-03 1.735E+00 8.310E+02  2.2335 0.99753
  1.700E+03 1.803E+03 1.765E+00 9.531E-04 4.573E-04 1.313E-04 1.542E-03 1.767E+00 1.002E+03  2.4886 0.99829
  2.000E+03 2.103E+03 1.791E+00 1.177E-03 6.301E-04 2.133E-04 2.021E-03 1.793E+00 1.171E+03  2.7120 0.99874
  2.500E+03 2.604E+03 1.827E+00 1.573E-03 9.595E-04 3.713E-04 2.904E-03 1.830E+00 1.447E+03  3.0326 0.99918
  3.000E+03 3.104E+03 1.856E+00 1.992E-03 1.334E-03 5.367E-04 3.862E-03 1.860E+00 1.718E+03  3.3057 0.99942
  3.500E+03 3.604E+03 1.880E+00 2.430E-03 1.746E-03 7.116E-04 4.888E-03 1.885E+00 1.985E+03  3.5440 0.99957
  4.000E+03 4.104E+03 1.901E+00 2.885E-03 2.205E-03 8.981E-04 5.988E-03 1.907E+00 2.249E+03  3.7557 0.99967
  4.500E+03 4.604E+03 1.919E+00 3.355E-03 2.700E-03 1.092E-03 7.147E-03 1.926E+00 2.510E+03  3.9461 0.99974
  5.000E+03 5.105E+03 1.935E+00 3.839E-03 3.223E-03 1.278E-03 8.340E-03 1.943E+00 2.768E+03  4.1194 0.99979
  5.500E+03 5.605E+03 1.949E+00 4.335E-03 3.773E-03 1.478E-03 9.586E-03 1.959E+00 3.024E+03  4.2784 0.99982
  6.000E+03 6.105E+03 1.962E+00 4.842E-03 4.346E-03 1.665E-03 1.085E-02 1.973E+00 3.279E+03  4.4253 0.99985
  7.000E+03 7.105E+03 1.984E+00 5.885E-03 5.556E-03 2.060E-03 1.350E-02 1.998E+00 3.782E+03  4.6897 0.99989
  8.000E+03 8.105E+03 2.003E+00 6.964E-03 6.842E-03 2.452E-03 1.626E-02 2.020E+00 4.280E+03  4.9226 0.99992
  9.000E+03 9.105E+03 2.020E+00 8.074E-03 8.194E-03 2.821E-03 1.909E-02 2.039E+00 4.773E+03  5.1309 0.99993
  1.000E+04 1.011E+04 2.034E+00 9.211E-03 9.606E-03 3.201E-03 2.202E-02 2.056E+00 5.261E+03  5.3193 0.99995
  1.200E+04 1.211E+04 2.059E+00 1.156E-02 1.258E-02 3.972E-03 2.811E-02 2.087E+00 6.227E+03  5.6498 0.99996
  1.400E+04 1.411E+04 2.079E+00 1.399E-02 1.574E-02 4.744E-03 3.447E-02 2.113E+00 7.179E+03  5.9334 0.99997
  1.700E+04 1.711E+04 2.103E+00 1.776E-02 2.074E-02 5.888E-03 4.439E-02 2.148E+00 8.588E+03  6.2953 0.99998
  2.000E+04 2.011E+04 2.123E+00 2.167E-02 2.602E-02 7.010E-03 5.470E-02 2.178E+00 9.975E+03  6.6020 0.99999
  2.500E+04 2.511E+04 2.150E+00 2.841E-02 3.531E-02 8.852E-03 7.258E-02 2.223E+00 1.225E+04  7.0280 0.99999
  3.000E+04 3.011E+04 2.171E+00 3.541E-02 4.510E-02 1.066E-02 9.116E-02 2.262E+00 1.448E+04  7.3797 0.99999
  3.500E+04 3.511E+04 2.188E+00 4.260E-02 5.528E-02 1.249E-02 1.104E-01 2.299E+00 1.667E+04  7.6793 1.00000
  4.000E+04 4.011E+04 2.203E+00 4.996E-02 6.579E-02 1.429E-02 1.300E-01 2.333E+00 1.883E+04  7.9403 1.00000
  4.500E+04 4.511E+04 2.216E+00 5.746E-02 7.659E-02 1.608E-02 1.501E-01 2.366E+00 2.096E+04  8.1716 1.00000
  5.000E+04 5.011E+04 2.227E+00 6.509E-02 8.762E-02 1.786E-02 1.706E-01 2.398E+00 2.306E+04  8.3791 1.00000
  5.500E+04 5.511E+04 2.237E+00 7.284E-02 9.887E-02 1.966E-02 1.914E-01 2.429E+00 2.513E+04  8.5673 1.00000
  6.000E+04 6.011E+04 2.246E+00 8.069E-02 1.103E-01 2.143E-02 2.124E-01 2.459E+00 2.717E+04  8.7395 1.00000
  7.000E+04 7.011E+04 2.262E+00 9.666E-02 1.337E-01 2.496E-02 2.553E-01 2.518E+00 3.119E+04  9.0453 1.00000
  8.000E+04 8.011E+04 2.276E+00 1.129E-01 1.576E-01 2.850E-02 2.990E-01 2.575E+00 3.512E+04  9.3109 1.00000
  9.000E+04 9.011E+04 2.288E+00 1.295E-01 1.819E-01 3.204E-02 3.435E-01 2.631E+00 3.896E+04  9.5455 1.00000
  1.000E+05 1.001E+05 2.298E+00 1.463E-01 2.067E-01 3.551E-02 3.885E-01 2.687E+00 4.273E+04  9.7557 1.00000
  1.200E+05 1.201E+05 2.316E+00 1.805E-01 2.571E-01 4.258E-02 4.802E-01 2.797E+00 5.002E+04 10.1197 1.00000
  1.400E+05 1.401E+05 2.332E+00 2.153E-01 3.086E-01 4.965E-02 5.736E-01 2.905E+00 5.704E+04 10.4277 1.00000
  1.700E+05 1.701E+05 2.351E+00 2.686E-01 3.874E-01 6.027E-02 7.163E-01 3.067E+00 6.709E+04 10.8157 1.00000
  2.000E+05 2.001E+05 2.367E+00 3.228E-01 4.676E-01 7.094E-02 8.614E-01 3.228E+00 7.663E+04 11.1406 1.00000
  2.500E+05 2.501E+05 2.388E+00 4.150E-01 6.036E-01 8.879E-02 1.107E+00 3.496E+00 9.153E+04 11.5867 1.00000
  3.000E+05 3.001E+05 2.406E+00 5.088E-01 7.418E-01 1.068E-01 1.357E+00 3.763E+00 1.053E+05 11.9512 1.00000
  3.500E+05 3.501E+05 2.421E+00 6.039E-01 8.817E-01 1.250E-01 1.611E+00 4.032E+00 1.182E+05 12.2594 1.00000
  4.000E+05 4.001E+05 2.434E+00 7.002E-01 1.023E+00 1.433E-01 1.866E+00 4.300E+00 1.302E+05 12.5263 1.00000
  4.500E+05 4.501E+05 2.446E+00 7.973E-01 1.165E+00 1.617E-01 2.124E+00 4.570E+00 1.415E+05 12.7619 1.00000
  5.000E+05 5.001E+05 2.456E+00 8.953E-01 1.308E+00 1.802E-01 2.384E+00 4.839E+00 1.521E+05 12.9725 1.00000
  5.500E+05 5.501E+05 2.465E+00 9.939E-01 1.452E+00 1.986E-01 2.644E+00 5.110E+00 1.622E+05 13.1631 1.00000
  6.000E+05 6.001E+05 2.474E+00 1.093E+00 1.596E+00 2.171E-01 2.906E+00 5.380E+00 1.717E+05 13.3371 1.00000
  7.000E+05 7.001E+05 2.489E+00 1.293E+00 1.886E+00 2.545E-01 3.434E+00 5.923E+00 1.894E+05 13.6454 1.00000
  8.000E+05 8.001E+05 2.502E+00 1.495E+00 2.178E+00 2.922E-01 3.965E+00 6.467E+00 2.056E+05 13.9124 1.00000
  9.000E+05 9.001E+05 2.514E+00 1.698E+00 2.472E+00 3.304E-01 4.500E+00 7.014E+00 2.205E+05 14.1479 1.00000
  1.000E+06 1.000E+06 2.524E+00 1.902E+00 2.766E+00 3.688E-01 5.037E+00 7.561E+00 2.342E+05 14.3586 1.00000
  1.200E+06 1.200E+06 2.543E+00 2.313E+00 3.357E+00 4.467E-01 6.117E+00 8.660E+00 2.590E+05 14.7232 1.00000
  1.400E+06 1.400E+06 2.558E+00 2.728E+00 3.952E+00 5.256E-01 7.205E+00 9.763E+00 2.808E+05 15.0315 1.00000
  1.700E+06 1.700E+06 2.578E+00 3.354E+00 4.846E+00 6.460E-01 8.846E+00 1.142E+01 3.093E+05 15.4198 1.00000
  2.000E+06 2.000E+06 2.594E+00 3.984E+00 5.745E+00 7.682E-01 1.050E+01 1.309E+01 3.339E+05 15.7448 1.00000
  2.500E+06 2.500E+06 2.617E+00 5.042E+00 7.247E+00 9.757E-01 1.326E+01 1.588E+01 3.687E+05 16.1911 1.00000
  3.000E+06 3.000E+06 2.636E+00 6.106E+00 8.754E+00 1.187E+00 1.605E+01 1.868E+01 3.978E+05 16.5557 1.00000
  3.500E+06 3.500E+06 2.652E+00 7.175E+00 1.026E+01 1.402E+00 1.884E+01 2.149E+01 4.228E+05 16.8640 1.00000
  4.000E+06 4.000E+06 2.666E+00 8.247E+00 1.178E+01 1.620E+00 2.164E+01 2.431E+01 4.447E+05 17.1310 1.00000
  4.500E+06 4.500E+06 2.678E+00 9.323E+00 1.329E+01 1.841E+00 2.446E+01 2.713E+01 4.642E+05 17.3666 1.00000
  5.000E+06 5.000E+06 2.689E+00 1.040E+01 1.481E+01 2.064E+00 2.727E+01 2.996E+01 4.818E+05 17.5773 1.00000
  5.500E+06 5.500E+06 2.700E+00 1.148E+01 1.633E+01 2.289E+00 3.010E+01 3.280E+01 4.978E+05 17.7679 1.00000
  6.000E+06 6.000E+06 2.709E+00 1.256E+01 1.784E+01 2.517E+00 3.292E+01 3.563E+01 5.124E+05 17.9420 1.00000
  7.000E+06 7.000E+06 2.725E+00 1.473E+01 2.089E+01 2.978E+00 3.859E+01 4.132E+01 5.385E+05 18.2502 1.00000
  8.000E+06 8.000E+06 2.740E+00 1.690E+01 2.393E+01 3.445E+00 4.428E+01 4.702E+01 5.613E+05 18.5173 1.00000
  9.000E+06 9.000E+06 2.753E+00 1.908E+01 2.697E+01 3.919E+00 4.997E+01 5.273E+01 5.814E+05 18.7529 1.00000
  1.000E+07 1.000E+07 2.764E+00 2.126E+01 3.002E+01 4.399E+00 5.568E+01 5.844E+01 5.994E+05 18.9636 1.00000
  1.200E+07 1.200E+07 2.784E+00 2.563E+01 3.612E+01 5.372E+00 6.712E+01 6.990E+01 6.308E+05 19.3282 1.00000
  1.400E+07 1.400E+07 2.801E+00 3.000E+01 4.222E+01 6.363E+00 7.859E+01 8.139E+01 6.574E+05 19.6365 1.00000
  1.700E+07 1.700E+07 2.823E+00 3.657E+01 5.138E+01 7.878E+00 9.583E+01 9.866E+01 6.911E+05 20.0248 1.00000
  2.000E+07 2.000E+07 2.841E+00 4.315E+01 6.055E+01 9.421E+00 1.131E+02 1.160E+02 7.192E+05 20.3499 1.00000
  2.500E+07 2.500E+07 2.866E+00 5.413E+01 7.583E+01 1.205E+01 1.420E+02 1.449E+02 7.580E+05 20.7962 1.00000
  3.000E+07 3.000E+07 2.887E+00 6.513E+01 9.112E+01 1.473E+01 1.710E+02 1.739E+02 7.897E+05 21.1608 1.00000
  3.500E+07 3.500E+07 2.905E+00 7.613E+01 1.064E+02 1.747E+01 2.000E+02 2.029E+02 8.164E+05 21.4691 1.00000
  4.000E+07 4.000E+07 2.920E+00 8.714E+01 1.217E+02 2.025E+01 2.291E+02 2.320E+02 8.395E+05 21.7362 1.00000
  4.500E+07 4.500E+07 2.934E+00 9.815E+01 1.370E+02 2.307E+01 2.582E+02 2.612E+02 8.598E+05 21.9717 1.00000
  5.000E+07 5.000E+07 2.946E+00 1.092E+02 1.523E+02 2.592E+01 2.874E+02 2.904E+02 8.780E+05 22.1824 1.00000
  5.500E+07 5.500E+07 2.958E+00 1.202E+02 1.676E+02 2.880E+01 3.166E+02 3.196E+02 8.944E+05 22.3731 1.00000
  6.000E+07 6.000E+07 2.968E+00 1.312E+02 1.829E+02 3.172E+01 3.459E+02 3.488E+02 9.094E+05 22.5471 1.00000
  7.000E+07 7.000E+07 2.986E+00 1.533E+02 2.135E+02 3.763E+01 4.044E+02 4.074E+02 9.360E+05 22.8554 1.00000
  8.000E+07 8.000E+07 3.002E+00 1.753E+02 2.442E+02 4.363E+01 4.631E+02 4.661E+02 9.590E+05 23.1225 1.00000
  9.000E+07 9.000E+07 3.017E+00 1.974E+02 2.748E+02 4.972E+01 5.219E+02 5.249E+02 9.793E+05 23.3580 1.00000
  1.000E+08 1.000E+08 3.029E+00 2.195E+02 3.054E+02 5.588E+01 5.808E+02 5.838E+02 9.974E+05 23.5687 1.00000
  1.200E+08 1.200E+08 3.052E+00 2.636E+02 3.666E+02 6.842E+01 6.987E+02 7.018E+02 1.029E+06 23.9334 1.00000
  1.400E+08 1.400E+08 3.071E+00 3.078E+02 4.279E+02 8.120E+01 8.169E+02 8.200E+02 1.055E+06 24.2417 1.00000
  1.700E+08 1.700E+08 3.095E+00 3.741E+02 5.198E+02 1.007E+02 9.946E+02 9.977E+02 1.089E+06 24.6300 1.00000
  2.000E+08 2.000E+08 3.115E+00 4.404E+02 6.116E+02 1.207E+02 1.173E+03 1.176E+03 1.116E+06 24.9550 1.00000
  2.500E+08 2.500E+08 3.143E+00 5.508E+02 7.648E+02 1.547E+02 1.470E+03 1.473E+03 1.155E+06 25.4013 1.00000
  3.000E+08 3.000E+08 3.166E+00 6.613E+02 9.179E+02 1.895E+02 1.769E+03 1.772E+03 1.186E+06 25.7660 1.00000
  3.500E+08 3.500E+08 3.186E+00 7.719E+02 1.071E+03 2.250E+02 2.068E+03 2.071E+03 1.212E+06 26.0743 1.00000
  4.000E+08 4.000E+08 3.204E+00 8.824E+02 1.224E+03 2.611E+02 2.368E+03 2.371E+03 1.234E+06 26.3413 1.00000
  4.500E+08 4.500E+08 3.219E+00 9.929E+02 1.377E+03 2.977E+02 2.668E+03 2.671E+03 1.254E+06 26.5769 1.00000
  5.000E+08 5.000E+08 3.233E+00 1.103E+03 1.530E+03 3.348E+02 2.969E+03 2.972E+03 1.272E+06 26.7876 1.00000
  5.500E+08 5.500E+08 3.245E+00 1.214E+03 1.684E+03 3.723E+02 3.270E+03 3.273E+03 1.288E+06 26.9782 1.00000
  6.000E+08 6.000E+08 3.257E+00 1.324E+03 1.837E+03 4.102E+02 3.571E+03 3.575E+03 1.303E+06 27.1523 1.00000
  7.000E+08 7.000E+08 3.277E+00 1.546E+03 2.143E+03 4.872E+02 4.176E+03 4.179E+03 1.329E+06 27.4606 1.00000
  8.000E+08 8.000E+08 3.295E+00 1.767E+03 2.449E+03 5.655E+02 4.781E+03 4.785E+03 1.351E+06 27.7276 1.00000
  9.000E+08 9.000E+08 3.311E+00 1.988E+03 2.756E+03 6.449E+02 5.388E+03 5.391E+03 1.371E+06 27.9632 1.00000
  1.000E+09 1.000E+09 3.325E+00 2.209E+03 3.062E+03 7.254E+02 5.996E+03 5.999E+03 1.388E+06 28.1739 1.00000
