 Incident particle is a Muon with M = 105.65839 MeV
 Index = 0: Trichloroethylene
      Absorber with <Z/A> = 0.48710
 Sternheimer coef:  a     k=m_s   x_0    x_1    I[eV]   Cbar  delta0
                 0.1827  3.0137  0.1803  2.9140  148.1  4.6148 0.00

 *** Table generated with PUMAS v1.00 ***

      T         p     Ionization  brems     pair     photonuc  Radloss    dE/dx   CSDA Range  delta   beta
    [MeV]    [MeV/c]  -----------------------[MeV cm^2/g]------------------------  [g/cm^2]
  1.000E+00 1.457E+01 3.890E+01 1.422E-06 0.000E+00 0.000E+00 1.422E-06 3.890E+01 1.285E-02  0.0000 0.13661
  1.200E+00 1.597E+01 3.371E+01 1.634E-06 0.000E+00 0.000E+00 1.634E-06 3.371E+01 1.839E-02  0.0000 0.14944
  1.400E+00 1.726E+01 2.985E+01 1.835E-06 0.000E+00 0.000E+00 1.835E-06 2.985E+01 2.471E-02  0.0000 0.16119
  1.700E+00 1.903E+01 2.559E+01 2.122E-06 0.000E+00 0.000E+00 2.122E-06 2.559E+01 3.560E-02  0.0000 0.17725
  2.000E+00 2.066E+01 2.248E+01 2.394E-06 0.000E+00 0.000E+00 2.394E-06 2.248E+01 4.813E-02  0.0000 0.19186
  2.500E+00 2.312E+01 1.882E+01 2.818E-06 0.000E+00 0.000E+00 2.818E-06 1.882E+01 7.253E-02  0.0000 0.21376
  3.000E+00 2.536E+01 1.628E+01 3.213E-06 0.000E+00 0.000E+00 3.213E-06 1.628E+01 1.012E-01  0.0000 0.23336
  3.500E+00 2.742E+01 1.440E+01 3.585E-06 0.000E+00 0.000E+00 3.585E-06 1.440E+01 1.339E-01  0.0000 0.25120
  4.000E+00 2.935E+01 1.295E+01 3.937E-06 0.000E+00 0.000E+00 3.937E-06 1.295E+01 1.706E-01  0.0000 0.26763
  4.500E+00 3.116E+01 1.180E+01 4.272E-06 0.000E+00 0.000E+00 4.272E-06 1.180E+01 2.111E-01  0.0000 0.28290
  5.000E+00 3.289E+01 1.086E+01 4.592E-06 0.000E+00 0.000E+00 4.592E-06 1.086E+01 2.553E-01  0.0000 0.29720
  5.500E+00 3.453E+01 1.008E+01 4.900E-06 0.000E+00 0.000E+00 4.900E-06 1.008E+01 3.031E-01  0.0000 0.31066
  6.000E+00 3.611E+01 9.414E+00 5.196E-06 0.000E+00 0.000E+00 5.196E-06 9.414E+00 3.545E-01  0.0000 0.32339
  7.000E+00 3.909E+01 8.354E+00 5.758E-06 0.000E+00 0.000E+00 5.758E-06 8.354E+00 4.674E-01  0.0000 0.34700
  8.000E+00 4.189E+01 7.542E+00 6.287E-06 0.000E+00 0.000E+00 6.287E-06 7.542E+00 5.936E-01  0.0000 0.36854
  9.000E+00 4.453E+01 6.897E+00 6.787E-06 0.000E+00 0.000E+00 6.787E-06 6.897E+00 7.324E-01  0.0000 0.38836
  1.000E+01 4.704E+01 6.374E+00 7.263E-06 0.000E+00 0.000E+00 7.263E-06 6.374E+00 8.833E-01  0.0000 0.40675
  1.200E+01 5.177E+01 5.574E+00 8.155E-06 0.000E+00 0.000E+00 8.155E-06 5.574E+00 1.220E+00  0.0000 0.43998
  1.400E+01 5.616E+01 4.990E+00 8.984E-06 0.000E+00 0.000E+00 8.984E-06 4.990E+00 1.599E+00  0.0000 0.46937
  1.700E+01 6.230E+01 4.360E+00 1.014E-05 0.000E+00 0.000E+00 1.014E-05 4.360E+00 2.244E+00  0.0000 0.50792
  2.000E+01 6.802E+01 3.910E+00 1.121E-05 0.000E+00 0.000E+00 1.121E-05 3.910E+00 2.972E+00  0.0000 0.54129
  2.500E+01 7.686E+01 3.393E+00 1.287E-05 0.000E+00 0.000E+00 1.287E-05 3.393E+00 4.348E+00  0.0000 0.58827
  3.000E+01 8.509E+01 3.044E+00 1.443E-05 0.000E+00 0.000E+00 1.443E-05 3.044E+00 5.906E+00  0.0000 0.62720
  3.500E+01 9.285E+01 2.794E+00 1.592E-05 0.000E+00 0.000E+00 1.592E-05 2.794E+00 7.622E+00  0.0000 0.66011
  4.000E+01 1.003E+02 2.606E+00 1.736E-05 0.000E+00 0.000E+00 1.736E-05 2.606E+00 9.476E+00  0.0000 0.68834
  4.500E+01 1.074E+02 2.460E+00 1.878E-05 0.000E+00 0.000E+00 1.878E-05 2.460E+00 1.145E+01  0.0000 0.71286
  5.000E+01 1.143E+02 2.344E+00 2.018E-05 0.000E+00 0.000E+00 2.018E-05 2.344E+00 1.353E+01  0.0000 0.73434
  5.500E+01 1.210E+02 2.250E+00 2.156E-05 0.000E+00 0.000E+00 2.156E-05 2.250E+00 1.571E+01  0.0000 0.75332
  6.000E+01 1.276E+02 2.173E+00 2.295E-05 0.000E+00 0.000E+00 2.295E-05 2.173E+00 1.797E+01  0.0000 0.77019
  7.000E+01 1.403E+02 2.053E+00 2.572E-05 0.000E+00 0.000E+00 2.572E-05 2.053E+00 2.271E+01  0.0000 0.79887
  8.000E+01 1.527E+02 1.967E+00 2.852E-05 0.000E+00 0.000E+00 2.852E-05 1.967E+00 2.769E+01  0.0000 0.82227
  9.000E+01 1.647E+02 1.902E+00 3.135E-05 0.000E+00 0.000E+00 3.135E-05 1.902E+00 3.286E+01  0.0053 0.84166
  1.000E+02 1.764E+02 1.851E+00 3.424E-05 0.000E+00 0.000E+00 3.424E-05 1.851E+00 3.819E+01  0.0208 0.85794
  1.200E+02 1.994E+02 1.780E+00 4.015E-05 0.000E+00 0.000E+00 4.015E-05 1.780E+00 4.920E+01  0.0550 0.88361
  1.400E+02 2.218E+02 1.735E+00 4.629E-05 0.000E+00 0.000E+00 4.629E-05 1.735E+00 6.059E+01  0.0914 0.90278
  1.700E+02 2.546E+02 1.694E+00 5.591E-05 7.257E-15 0.000E+00 5.591E-05 1.694E+00 7.809E+01  0.1480 0.92363
  2.000E+02 2.868E+02 1.672E+00 6.601E-05 1.621E-12 0.000E+00 6.601E-05 1.672E+00 9.591E+01  0.2051 0.93835
  2.500E+02 3.396E+02 1.657E+00 8.388E-05 1.210E-07 0.000E+00 8.400E-05 1.657E+00 1.259E+02  0.2988 0.95485
  3.000E+02 3.917E+02 1.656E+00 1.029E-04 1.396E-06 0.000E+00 1.043E-04 1.656E+00 1.561E+02  0.3892 0.96548
  3.500E+02 4.432E+02 1.661E+00 1.231E-04 3.942E-06 0.000E+00 1.270E-04 1.662E+00 1.863E+02  0.4758 0.97274
  4.000E+02 4.945E+02 1.670E+00 1.442E-04 7.716E-06 0.000E+00 1.519E-04 1.670E+00 2.163E+02  0.5586 0.97793
  4.500E+02 5.455E+02 1.680E+00 1.662E-04 1.267E-05 0.000E+00 1.789E-04 1.680E+00 2.461E+02  0.6377 0.98176
  5.000E+02 5.964E+02 1.691E+00 1.891E-04 1.877E-05 0.000E+00 2.078E-04 1.691E+00 2.758E+02  0.7134 0.98467
  5.500E+02 6.471E+02 1.702E+00 2.127E-04 2.597E-05 0.000E+00 2.387E-04 1.702E+00 3.053E+02  0.7860 0.98693
  6.000E+02 6.977E+02 1.712E+00 2.371E-04 3.424E-05 0.000E+00 2.714E-04 1.713E+00 3.346E+02  0.8555 0.98873
  7.000E+02 7.987E+02 1.733E+00 2.880E-04 5.381E-05 0.000E+00 3.418E-04 1.734E+00 3.926E+02  0.9867 0.99136
  8.000E+02 8.995E+02 1.753E+00 3.413E-04 7.722E-05 0.000E+00 4.185E-04 1.753E+00 4.500E+02  1.1085 0.99317
  9.000E+02 1.000E+03 1.771E+00 3.969E-04 1.042E-04 0.000E+00 5.011E-04 1.772E+00 5.067E+02  1.2221 0.99447
  1.000E+03 1.101E+03 1.788E+00 4.545E-04 1.346E-04 0.000E+00 5.891E-04 1.789E+00 5.629E+02  1.3287 0.99542
  1.200E+03 1.301E+03 1.818E+00 5.752E-04 2.048E-04 2.252E-05 8.025E-04 1.819E+00 6.737E+02  1.5241 0.99672
  1.400E+03 1.502E+03 1.844E+00 7.025E-04 2.863E-04 6.150E-05 1.050E-03 1.845E+00 7.829E+02  1.6997 0.99753
  1.700E+03 1.803E+03 1.877E+00 9.039E-04 4.276E-04 1.314E-04 1.463E-03 1.879E+00 9.440E+02  1.9343 0.99829
  2.000E+03 2.103E+03 1.905E+00 1.116E-03 5.892E-04 2.135E-04 1.919E-03 1.907E+00 1.103E+03  2.1418 0.99874
  2.500E+03 2.604E+03 1.943E+00 1.491E-03 8.972E-04 3.720E-04 2.760E-03 1.946E+00 1.362E+03  2.4423 0.99918
  3.000E+03 3.104E+03 1.974E+00 1.887E-03 1.247E-03 5.378E-04 3.672E-03 1.978E+00 1.617E+03  2.7008 0.99942
  3.500E+03 3.604E+03 2.000E+00 2.302E-03 1.633E-03 7.133E-04 4.648E-03 2.004E+00 1.868E+03  2.9279 0.99957
  4.000E+03 4.104E+03 2.022E+00 2.733E-03 2.063E-03 9.005E-04 5.696E-03 2.027E+00 2.116E+03  3.1307 0.99967
  4.500E+03 4.604E+03 2.041E+00 3.177E-03 2.527E-03 1.095E-03 6.800E-03 2.047E+00 2.361E+03  3.3140 0.99974
  5.000E+03 5.105E+03 2.057E+00 3.635E-03 3.019E-03 1.282E-03 7.935E-03 2.065E+00 2.605E+03  3.4815 0.99979
  5.500E+03 5.605E+03 2.072E+00 4.104E-03 3.534E-03 1.483E-03 9.121E-03 2.081E+00 2.846E+03  3.6356 0.99982
  6.000E+03 6.105E+03 2.086E+00 4.583E-03 4.072E-03 1.671E-03 1.033E-02 2.096E+00 3.085E+03  3.7785 0.99985
  7.000E+03 7.105E+03 2.109E+00 5.570E-03 5.209E-03 2.068E-03 1.285E-02 2.122E+00 3.559E+03  4.0363 0.99989
  8.000E+03 8.105E+03 2.129E+00 6.591E-03 6.417E-03 2.462E-03 1.547E-02 2.144E+00 4.028E+03  4.2645 0.99992
  9.000E+03 9.105E+03 2.146E+00 7.640E-03 7.688E-03 2.832E-03 1.816E-02 2.164E+00 4.492E+03  4.4691 0.99993
  1.000E+04 1.011E+04 2.161E+00 8.716E-03 9.014E-03 3.215E-03 2.094E-02 2.182E+00 4.953E+03  4.6548 0.99995
  1.200E+04 1.211E+04 2.186E+00 1.093E-02 1.181E-02 3.990E-03 2.674E-02 2.213E+00 5.863E+03  4.9815 0.99996
  1.400E+04 1.411E+04 2.207E+00 1.323E-02 1.478E-02 4.767E-03 3.278E-02 2.240E+00 6.761E+03  5.2627 0.99997
  1.700E+04 1.711E+04 2.232E+00 1.680E-02 1.949E-02 5.917E-03 4.220E-02 2.275E+00 8.090E+03  5.6227 0.99998
  2.000E+04 2.011E+04 2.253E+00 2.049E-02 2.445E-02 7.046E-03 5.199E-02 2.305E+00 9.401E+03  5.9287 0.99999
  2.500E+04 2.511E+04 2.280E+00 2.687E-02 3.319E-02 8.900E-03 6.897E-02 2.349E+00 1.155E+04  6.3547 0.99999
  3.000E+04 3.011E+04 2.302E+00 3.349E-02 4.241E-02 1.072E-02 8.661E-02 2.388E+00 1.366E+04  6.7072 0.99999
  3.500E+04 3.511E+04 2.319E+00 4.029E-02 5.200E-02 1.256E-02 1.048E-01 2.424E+00 1.574E+04  7.0079 1.00000
  4.000E+04 4.011E+04 2.334E+00 4.725E-02 6.190E-02 1.438E-02 1.235E-01 2.458E+00 1.779E+04  7.2701 1.00000
  4.500E+04 4.511E+04 2.347E+00 5.434E-02 7.207E-02 1.618E-02 1.426E-01 2.490E+00 1.981E+04  7.5024 1.00000
  5.000E+04 5.011E+04 2.359E+00 6.157E-02 8.247E-02 1.797E-02 1.620E-01 2.521E+00 2.180E+04  7.7110 1.00000
  5.500E+04 5.511E+04 2.369E+00 6.890E-02 9.307E-02 1.978E-02 1.817E-01 2.551E+00 2.378E+04  7.9001 1.00000
  6.000E+04 6.011E+04 2.378E+00 7.632E-02 1.039E-01 2.157E-02 2.017E-01 2.580E+00 2.572E+04  8.0732 1.00000
  7.000E+04 7.011E+04 2.394E+00 9.143E-02 1.259E-01 2.512E-02 2.424E-01 2.637E+00 2.956E+04  8.3804 1.00000
  8.000E+04 8.011E+04 2.408E+00 1.068E-01 1.484E-01 2.869E-02 2.840E-01 2.692E+00 3.331E+04  8.6470 1.00000
  9.000E+04 9.011E+04 2.420E+00 1.225E-01 1.714E-01 3.225E-02 3.262E-01 2.747E+00 3.699E+04  8.8823 1.00000
  1.000E+05 1.001E+05 2.431E+00 1.384E-01 1.948E-01 3.575E-02 3.689E-01 2.800E+00 4.060E+04  9.0927 1.00000
  1.200E+05 1.201E+05 2.450E+00 1.707E-01 2.424E-01 4.288E-02 4.560E-01 2.906E+00 4.761E+04  9.4570 1.00000
  1.400E+05 1.401E+05 2.465E+00 2.037E-01 2.911E-01 5.001E-02 5.448E-01 3.010E+00 5.437E+04  9.7651 1.00000
  1.700E+05 1.701E+05 2.485E+00 2.541E-01 3.655E-01 6.071E-02 6.803E-01 3.165E+00 6.409E+04 10.1531 1.00000
  2.000E+05 2.001E+05 2.501E+00 3.055E-01 4.413E-01 7.147E-02 8.182E-01 3.319E+00 7.335E+04 10.4780 1.00000
  2.500E+05 2.501E+05 2.523E+00 3.927E-01 5.698E-01 8.946E-02 1.052E+00 3.575E+00 8.788E+04 10.9241 1.00000
  3.000E+05 3.001E+05 2.542E+00 4.816E-01 7.005E-01 1.076E-01 1.290E+00 3.831E+00 1.014E+05 11.2886 1.00000
  3.500E+05 3.501E+05 2.557E+00 5.717E-01 8.327E-01 1.259E-01 1.530E+00 4.087E+00 1.140E+05 11.5968 1.00000
  4.000E+05 4.001E+05 2.570E+00 6.629E-01 9.662E-01 1.444E-01 1.774E+00 4.344E+00 1.259E+05 11.8637 1.00000
  4.500E+05 4.501E+05 2.582E+00 7.549E-01 1.101E+00 1.629E-01 2.019E+00 4.601E+00 1.371E+05 12.0993 1.00000
  5.000E+05 5.001E+05 2.593E+00 8.477E-01 1.236E+00 1.816E-01 2.265E+00 4.858E+00 1.477E+05 12.3099 1.00000
  5.500E+05 5.501E+05 2.602E+00 9.412E-01 1.372E+00 2.002E-01 2.513E+00 5.116E+00 1.577E+05 12.5005 1.00000
  6.000E+05 6.001E+05 2.611E+00 1.035E+00 1.509E+00 2.189E-01 2.763E+00 5.374E+00 1.673E+05 12.6745 1.00000
  7.000E+05 7.001E+05 2.626E+00 1.225E+00 1.783E+00 2.565E-01 3.265E+00 5.891E+00 1.850E+05 12.9828 1.00000
  8.000E+05 8.001E+05 2.640E+00 1.416E+00 2.060E+00 2.946E-01 3.770E+00 6.410E+00 2.013E+05 13.2498 1.00000
  9.000E+05 9.001E+05 2.652E+00 1.608E+00 2.337E+00 3.330E-01 4.279E+00 6.931E+00 2.163E+05 13.4853 1.00000
  1.000E+06 1.000E+06 2.663E+00 1.802E+00 2.616E+00 3.718E-01 4.790E+00 7.452E+00 2.303E+05 13.6960 1.00000
  1.200E+06 1.200E+06 2.681E+00 2.192E+00 3.176E+00 4.503E-01 5.818E+00 8.499E+00 2.555E+05 14.0606 1.00000
  1.400E+06 1.400E+06 2.697E+00 2.585E+00 3.738E+00 5.300E-01 6.853E+00 9.550E+00 2.777E+05 14.3689 1.00000
  1.700E+06 1.700E+06 2.717E+00 3.179E+00 4.586E+00 6.513E-01 8.416E+00 1.113E+01 3.069E+05 14.7572 1.00000
  2.000E+06 2.000E+06 2.734E+00 3.777E+00 5.436E+00 7.746E-01 9.988E+00 1.272E+01 3.321E+05 15.0822 1.00000
  2.500E+06 2.500E+06 2.758E+00 4.780E+00 6.859E+00 9.838E-01 1.262E+01 1.538E+01 3.680E+05 15.5285 1.00000
  3.000E+06 3.000E+06 2.777E+00 5.789E+00 8.286E+00 1.197E+00 1.527E+01 1.805E+01 3.981E+05 15.8931 1.00000
  3.500E+06 3.500E+06 2.793E+00 6.804E+00 9.717E+00 1.414E+00 1.793E+01 2.073E+01 4.241E+05 16.2014 1.00000
  4.000E+06 4.000E+06 2.808E+00 7.821E+00 1.115E+01 1.634E+00 2.061E+01 2.341E+01 4.468E+05 16.4684 1.00000
  4.500E+06 4.500E+06 2.820E+00 8.842E+00 1.258E+01 1.856E+00 2.328E+01 2.610E+01 4.670E+05 16.7040 1.00000
  5.000E+06 5.000E+06 2.832E+00 9.865E+00 1.402E+01 2.081E+00 2.597E+01 2.880E+01 4.853E+05 16.9147 1.00000
  5.500E+06 5.500E+06 2.842E+00 1.089E+01 1.546E+01 2.309E+00 2.866E+01 3.150E+01 5.019E+05 17.1053 1.00000
  6.000E+06 6.000E+06 2.851E+00 1.192E+01 1.690E+01 2.538E+00 3.135E+01 3.421E+01 5.172E+05 17.2794 1.00000
  7.000E+06 7.000E+06 2.868E+00 1.397E+01 1.978E+01 3.003E+00 3.676E+01 3.963E+01 5.444E+05 17.5876 1.00000
  8.000E+06 8.000E+06 2.883E+00 1.604E+01 2.266E+01 3.475E+00 4.217E+01 4.506E+01 5.681E+05 17.8547 1.00000
  9.000E+06 9.000E+06 2.896E+00 1.810E+01 2.555E+01 3.953E+00 4.760E+01 5.050E+01 5.891E+05 18.0903 1.00000
  1.000E+07 1.000E+07 2.908E+00 2.017E+01 2.843E+01 4.436E+00 5.304E+01 5.595E+01 6.080E+05 18.3010 1.00000
  1.200E+07 1.200E+07 2.928E+00 2.432E+01 3.421E+01 5.418E+00 6.395E+01 6.688E+01 6.408E+05 18.6656 1.00000
  1.400E+07 1.400E+07 2.946E+00 2.847E+01 4.000E+01 6.418E+00 7.488E+01 7.783E+01 6.686E+05 18.9739 1.00000
  1.700E+07 1.700E+07 2.968E+00 3.471E+01 4.868E+01 7.945E+00 9.133E+01 9.430E+01 7.038E+05 19.3622 1.00000
  2.000E+07 2.000E+07 2.987E+00 4.096E+01 5.736E+01 9.502E+00 1.078E+02 1.108E+02 7.332E+05 19.6873 1.00000
  2.500E+07 2.500E+07 3.013E+00 5.138E+01 7.184E+01 1.215E+01 1.354E+02 1.384E+02 7.738E+05 20.1336 1.00000
  3.000E+07 3.000E+07 3.034E+00 6.182E+01 8.633E+01 1.486E+01 1.630E+02 1.660E+02 8.070E+05 20.4982 1.00000
  3.500E+07 3.500E+07 3.052E+00 7.227E+01 1.008E+02 1.762E+01 1.907E+02 1.938E+02 8.349E+05 20.8065 1.00000
  4.000E+07 4.000E+07 3.068E+00 8.272E+01 1.153E+02 2.042E+01 2.185E+02 2.215E+02 8.591E+05 21.0736 1.00000
  4.500E+07 4.500E+07 3.082E+00 9.318E+01 1.298E+02 2.327E+01 2.463E+02 2.493E+02 8.804E+05 21.3091 1.00000
  5.000E+07 5.000E+07 3.095E+00 1.036E+02 1.443E+02 2.614E+01 2.741E+02 2.772E+02 8.995E+05 21.5198 1.00000
  5.500E+07 5.500E+07 3.106E+00 1.141E+02 1.588E+02 2.905E+01 3.020E+02 3.051E+02 9.167E+05 21.7105 1.00000
  6.000E+07 6.000E+07 3.117E+00 1.246E+02 1.733E+02 3.199E+01 3.299E+02 3.330E+02 9.324E+05 21.8845 1.00000
  7.000E+07 7.000E+07 3.136E+00 1.455E+02 2.023E+02 3.795E+01 3.858E+02 3.889E+02 9.602E+05 22.1928 1.00000
  8.000E+07 8.000E+07 3.152E+00 1.665E+02 2.313E+02 4.400E+01 4.418E+02 4.450E+02 9.843E+05 22.4599 1.00000
  9.000E+07 9.000E+07 3.167E+00 1.874E+02 2.603E+02 5.015E+01 4.979E+02 5.011E+02 1.006E+06 22.6954 1.00000
  1.000E+08 1.000E+08 3.180E+00 2.084E+02 2.894E+02 5.636E+01 5.541E+02 5.573E+02 1.024E+06 22.9061 1.00000
  1.200E+08 1.200E+08 3.202E+00 2.503E+02 3.474E+02 6.901E+01 6.667E+02 6.699E+02 1.057E+06 23.2708 1.00000
  1.400E+08 1.400E+08 3.222E+00 2.923E+02 4.054E+02 8.189E+01 7.796E+02 7.828E+02 1.085E+06 23.5791 1.00000
  1.700E+08 1.700E+08 3.247E+00 3.552E+02 4.925E+02 1.016E+02 9.493E+02 9.526E+02 1.120E+06 23.9674 1.00000
  2.000E+08 2.000E+08 3.267E+00 4.182E+02 5.796E+02 1.217E+02 1.119E+03 1.123E+03 1.149E+06 24.2924 1.00000
  2.500E+08 2.500E+08 3.296E+00 5.231E+02 7.247E+02 1.560E+02 1.404E+03 1.407E+03 1.189E+06 24.7387 1.00000
  3.000E+08 3.000E+08 3.320E+00 6.280E+02 8.698E+02 1.911E+02 1.689E+03 1.692E+03 1.222E+06 25.1034 1.00000
  3.500E+08 3.500E+08 3.340E+00 7.330E+02 1.015E+03 2.269E+02 1.975E+03 1.978E+03 1.249E+06 25.4117 1.00000
  4.000E+08 4.000E+08 3.358E+00 8.379E+02 1.160E+03 2.633E+02 2.261E+03 2.265E+03 1.273E+06 25.6787 1.00000
  4.500E+08 4.500E+08 3.374E+00 9.429E+02 1.305E+03 3.002E+02 2.548E+03 2.552E+03 1.294E+06 25.9143 1.00000
  5.000E+08 5.000E+08 3.388E+00 1.048E+03 1.450E+03 3.377E+02 2.836E+03 2.839E+03 1.312E+06 26.1250 1.00000
  5.500E+08 5.500E+08 3.401E+00 1.153E+03 1.595E+03 3.755E+02 3.124E+03 3.127E+03 1.329E+06 26.3156 1.00000
  6.000E+08 6.000E+08 3.413E+00 1.258E+03 1.740E+03 4.138E+02 3.412E+03 3.415E+03 1.344E+06 26.4897 1.00000
  7.000E+08 7.000E+08 3.434E+00 1.468E+03 2.031E+03 4.914E+02 3.990E+03 3.993E+03 1.371E+06 26.7980 1.00000
  8.000E+08 8.000E+08 3.452E+00 1.678E+03 2.321E+03 5.703E+02 4.569E+03 4.572E+03 1.395E+06 27.0650 1.00000
  9.000E+08 9.000E+08 3.468E+00 1.888E+03 2.611E+03 6.504E+02 5.149E+03 5.153E+03 1.416E+06 27.3006 1.00000
  1.000E+09 1.000E+09 3.483E+00 2.098E+03 2.901E+03 7.316E+02 5.731E+03 5.734E+03 1.434E+06 27.5113 1.00000
