 Incident particle is a Muon with M = 105.65839 MeV
 Index = 0: TriethylPhosphate
      Absorber with <Z/A> = 0.53794
 Sternheimer coef:  a     k=m_s   x_0    x_1    I[eV]   Cbar  delta0
                 0.0692  3.6302  0.2054  2.9428   81.2  3.6242 0.00

 *** Table generated with PUMAS v1.00 ***

      T         p     Ionization  brems     pair     photonuc  Radloss    dE/dx   CSDA Range  delta   beta
    [MeV]    [MeV/c]  -----------------------[MeV cm^2/g]------------------------  [g/cm^2]
  1.000E+00 1.457E+01 4.828E+01 8.307E-07 0.000E+00 0.000E+00 8.307E-07 4.828E+01 1.036E-02  0.0000 0.13661
  1.200E+00 1.597E+01 4.167E+01 9.523E-07 0.000E+00 0.000E+00 9.523E-07 4.167E+01 1.483E-02  0.0000 0.14944
  1.400E+00 1.726E+01 3.678E+01 1.068E-06 0.000E+00 0.000E+00 1.068E-06 3.678E+01 1.995E-02  0.0000 0.16119
  1.700E+00 1.903E+01 3.142E+01 1.234E-06 0.000E+00 0.000E+00 1.234E-06 3.142E+01 2.880E-02  0.0000 0.17725
  2.000E+00 2.066E+01 2.753E+01 1.391E-06 0.000E+00 0.000E+00 1.391E-06 2.753E+01 3.902E-02  0.0000 0.19186
  2.500E+00 2.312E+01 2.296E+01 1.636E-06 0.000E+00 0.000E+00 1.636E-06 2.296E+01 5.899E-02  0.0000 0.21376
  3.000E+00 2.536E+01 1.980E+01 1.866E-06 0.000E+00 0.000E+00 1.866E-06 1.980E+01 8.251E-02  0.0000 0.23336
  3.500E+00 2.742E+01 1.747E+01 2.083E-06 0.000E+00 0.000E+00 2.083E-06 1.747E+01 1.094E-01  0.0000 0.25120
  4.000E+00 2.935E+01 1.569E+01 2.288E-06 0.000E+00 0.000E+00 2.288E-06 1.569E+01 1.397E-01  0.0000 0.26763
  4.500E+00 3.116E+01 1.427E+01 2.484E-06 0.000E+00 0.000E+00 2.484E-06 1.427E+01 1.731E-01  0.0000 0.28290
  5.000E+00 3.289E+01 1.312E+01 2.672E-06 0.000E+00 0.000E+00 2.672E-06 1.312E+01 2.097E-01  0.0000 0.29720
  5.500E+00 3.453E+01 1.216E+01 2.853E-06 0.000E+00 0.000E+00 2.853E-06 1.216E+01 2.494E-01  0.0000 0.31066
  6.000E+00 3.611E+01 1.135E+01 3.028E-06 0.000E+00 0.000E+00 3.028E-06 1.135E+01 2.920E-01  0.0000 0.32339
  7.000E+00 3.909E+01 1.005E+01 3.359E-06 0.000E+00 0.000E+00 3.359E-06 1.005E+01 3.858E-01  0.0000 0.34700
  8.000E+00 4.189E+01 9.060E+00 3.672E-06 0.000E+00 0.000E+00 3.672E-06 9.060E+00 4.907E-01  0.0000 0.36854
  9.000E+00 4.453E+01 8.276E+00 3.969E-06 0.000E+00 0.000E+00 3.969E-06 8.276E+00 6.063E-01  0.0000 0.38836
  1.000E+01 4.704E+01 7.639E+00 4.252E-06 0.000E+00 0.000E+00 4.252E-06 7.639E+00 7.322E-01  0.0000 0.40675
  1.200E+01 5.177E+01 6.668E+00 4.783E-06 0.000E+00 0.000E+00 4.783E-06 6.668E+00 1.013E+00  0.0000 0.43998
  1.400E+01 5.616E+01 5.961E+00 5.278E-06 0.000E+00 0.000E+00 5.278E-06 5.961E+00 1.331E+00  0.0000 0.46937
  1.700E+01 6.230E+01 5.199E+00 5.969E-06 0.000E+00 0.000E+00 5.969E-06 5.199E+00 1.871E+00  0.0000 0.50792
  2.000E+01 6.802E+01 4.657E+00 6.613E-06 0.000E+00 0.000E+00 6.613E-06 4.657E+00 2.481E+00  0.0000 0.54129
  2.500E+01 7.686E+01 4.034E+00 7.612E-06 0.000E+00 0.000E+00 7.612E-06 4.034E+00 3.638E+00  0.0000 0.58827
  3.000E+01 8.509E+01 3.615E+00 8.548E-06 0.000E+00 0.000E+00 8.548E-06 3.615E+00 4.949E+00  0.0000 0.62720
  3.500E+01 9.285E+01 3.313E+00 9.442E-06 0.000E+00 0.000E+00 9.442E-06 3.313E+00 6.395E+00  0.0000 0.66011
  4.000E+01 1.003E+02 3.087E+00 1.031E-05 0.000E+00 0.000E+00 1.031E-05 3.087E+00 7.960E+00  0.0000 0.68834
  4.500E+01 1.074E+02 2.912E+00 1.116E-05 0.000E+00 0.000E+00 1.116E-05 2.912E+00 9.628E+00  0.0000 0.71286
  5.000E+01 1.143E+02 2.773E+00 1.200E-05 0.000E+00 0.000E+00 1.200E-05 2.773E+00 1.139E+01  0.0000 0.73434
  5.500E+01 1.210E+02 2.660E+00 1.283E-05 0.000E+00 0.000E+00 1.283E-05 2.660E+00 1.323E+01  0.0000 0.75332
  6.000E+01 1.276E+02 2.567E+00 1.366E-05 0.000E+00 0.000E+00 1.366E-05 2.567E+00 1.514E+01  0.0000 0.77019
  7.000E+01 1.403E+02 2.423E+00 1.532E-05 0.000E+00 0.000E+00 1.532E-05 2.423E+00 1.915E+01  0.0000 0.79887
  8.000E+01 1.527E+02 2.319E+00 1.699E-05 0.000E+00 0.000E+00 1.699E-05 2.319E+00 2.337E+01  0.0000 0.82227
  9.000E+01 1.647E+02 2.241E+00 1.868E-05 0.000E+00 0.000E+00 1.868E-05 2.241E+00 2.776E+01  0.0000 0.84166
  1.000E+02 1.764E+02 2.180E+00 2.040E-05 0.000E+00 0.000E+00 2.040E-05 2.180E+00 3.228E+01  0.0180 0.85794
  1.200E+02 1.994E+02 2.090E+00 2.392E-05 0.000E+00 0.000E+00 2.392E-05 2.090E+00 4.166E+01  0.0818 0.88361
  1.400E+02 2.218E+02 2.032E+00 2.756E-05 0.000E+00 0.000E+00 2.756E-05 2.032E+00 5.136E+01  0.1448 0.90278
  1.700E+02 2.546E+02 1.979E+00 3.327E-05 3.448E-14 0.000E+00 3.327E-05 1.979E+00 6.632E+01  0.2367 0.92363
  2.000E+02 2.868E+02 1.948E+00 3.926E-05 7.704E-12 0.000E+00 3.926E-05 1.948E+00 8.160E+01  0.3249 0.93835
  2.500E+02 3.396E+02 1.924E+00 4.983E-05 8.804E-08 0.000E+00 4.991E-05 1.924E+00 1.074E+02  0.4634 0.95485
  3.000E+02 3.917E+02 1.917E+00 6.107E-05 8.036E-07 0.000E+00 6.188E-05 1.918E+00 1.335E+02  0.5922 0.96548
  3.500E+02 4.432E+02 1.919E+00 7.294E-05 2.224E-06 0.000E+00 7.517E-05 1.919E+00 1.595E+02  0.7123 0.97274
  4.000E+02 4.945E+02 1.925E+00 8.538E-05 4.317E-06 0.000E+00 8.970E-05 1.925E+00 1.855E+02  0.8249 0.97793
  4.500E+02 5.455E+02 1.933E+00 9.835E-05 7.058E-06 0.000E+00 1.054E-04 1.933E+00 2.115E+02  0.9307 0.98176
  5.000E+02 5.964E+02 1.942E+00 1.118E-04 1.042E-05 0.000E+00 1.222E-04 1.943E+00 2.373E+02  1.0307 0.98467
  5.500E+02 6.471E+02 1.952E+00 1.257E-04 1.439E-05 0.000E+00 1.401E-04 1.952E+00 2.629E+02  1.1253 0.98693
  6.000E+02 6.977E+02 1.962E+00 1.400E-04 1.895E-05 0.000E+00 1.590E-04 1.962E+00 2.885E+02  1.2152 0.98873
  7.000E+02 7.987E+02 1.982E+00 1.699E-04 2.972E-05 0.000E+00 1.996E-04 1.982E+00 3.392E+02  1.3825 0.99136
  8.000E+02 8.995E+02 2.001E+00 2.012E-04 4.260E-05 0.000E+00 2.438E-04 2.001E+00 3.894E+02  1.5358 0.99317
  9.000E+02 1.000E+03 2.018E+00 2.337E-04 5.745E-05 0.000E+00 2.912E-04 2.019E+00 4.391E+02  1.6772 0.99447
  1.000E+03 1.101E+03 2.035E+00 2.675E-04 7.415E-05 0.000E+00 3.416E-04 2.035E+00 4.885E+02  1.8085 0.99542
  1.200E+03 1.301E+03 2.064E+00 3.382E-04 1.127E-04 2.256E-05 4.734E-04 2.065E+00 5.860E+02  2.0463 0.99672
  1.400E+03 1.502E+03 2.090E+00 4.126E-04 1.575E-04 6.178E-05 6.319E-04 2.091E+00 6.823E+02  2.2573 0.99753
  1.700E+03 1.803E+03 2.123E+00 5.305E-04 2.351E-04 1.326E-04 8.981E-04 2.124E+00 8.246E+02  2.5354 0.99829
  2.000E+03 2.103E+03 2.151E+00 6.547E-04 3.238E-04 2.162E-04 1.195E-03 2.152E+00 9.650E+02  2.7781 0.99874
  2.500E+03 2.604E+03 2.189E+00 8.737E-04 4.929E-04 3.782E-04 1.745E-03 2.191E+00 1.195E+03  3.1252 0.99918
  3.000E+03 3.104E+03 2.220E+00 1.105E-03 6.850E-04 5.489E-04 2.339E-03 2.223E+00 1.422E+03  3.4197 0.99942
  3.500E+03 3.604E+03 2.246E+00 1.348E-03 8.967E-04 7.302E-04 2.975E-03 2.249E+00 1.645E+03  3.6759 0.99957
  4.000E+03 4.104E+03 2.268E+00 1.600E-03 1.141E-03 9.243E-04 3.665E-03 2.272E+00 1.867E+03  3.9026 0.99967
  4.500E+03 4.604E+03 2.288E+00 1.860E-03 1.407E-03 1.126E-03 4.394E-03 2.292E+00 2.086E+03  4.1061 0.99974
  5.000E+03 5.105E+03 2.305E+00 2.128E-03 1.689E-03 1.321E-03 5.138E-03 2.310E+00 2.303E+03  4.2907 0.99979
  5.500E+03 5.605E+03 2.320E+00 2.403E-03 1.986E-03 1.531E-03 5.920E-03 2.326E+00 2.519E+03  4.4597 0.99982
  6.000E+03 6.105E+03 2.334E+00 2.684E-03 2.295E-03 1.727E-03 6.706E-03 2.340E+00 2.733E+03  4.6156 0.99985
  7.000E+03 7.105E+03 2.358E+00 3.263E-03 2.950E-03 2.143E-03 8.356E-03 2.366E+00 3.158E+03  4.8952 0.99989
  8.000E+03 8.105E+03 2.378E+00 3.862E-03 3.648E-03 2.556E-03 1.007E-02 2.388E+00 3.579E+03  5.1407 0.99992
  9.000E+03 9.105E+03 2.396E+00 4.478E-03 4.383E-03 2.946E-03 1.181E-02 2.407E+00 3.996E+03  5.3596 0.99993
  1.000E+04 1.011E+04 2.411E+00 5.111E-03 5.151E-03 3.348E-03 1.361E-02 2.425E+00 4.410E+03  5.5571 0.99995
  1.200E+04 1.211E+04 2.438E+00 6.416E-03 6.775E-03 4.166E-03 1.736E-02 2.455E+00 5.229E+03  5.9023 0.99996
  1.400E+04 1.411E+04 2.459E+00 7.770E-03 8.500E-03 4.987E-03 2.126E-02 2.481E+00 6.040E+03  6.1973 0.99997
  1.700E+04 1.711E+04 2.486E+00 9.876E-03 1.124E-02 6.206E-03 2.732E-02 2.514E+00 7.241E+03  6.5721 0.99998
  2.000E+04 2.011E+04 2.508E+00 1.206E-02 1.414E-02 7.405E-03 3.361E-02 2.542E+00 8.428E+03  6.8885 0.99999
  2.500E+04 2.511E+04 2.537E+00 1.583E-02 1.926E-02 9.378E-03 4.447E-02 2.582E+00 1.038E+04  7.3259 0.99999
  3.000E+04 3.011E+04 2.560E+00 1.975E-02 2.466E-02 1.132E-02 5.573E-02 2.616E+00 1.230E+04  7.6854 0.99999
  3.500E+04 3.511E+04 2.580E+00 2.379E-02 3.030E-02 1.328E-02 6.737E-02 2.647E+00 1.420E+04  7.9906 1.00000
  4.000E+04 4.011E+04 2.596E+00 2.792E-02 3.613E-02 1.523E-02 7.928E-02 2.675E+00 1.608E+04  8.2557 1.00000
  4.500E+04 4.511E+04 2.610E+00 3.215E-02 4.213E-02 1.715E-02 9.143E-02 2.701E+00 1.794E+04  8.4899 1.00000
  5.000E+04 5.011E+04 2.623E+00 3.645E-02 4.827E-02 1.908E-02 1.038E-01 2.726E+00 1.979E+04  8.6997 1.00000
  5.500E+04 5.511E+04 2.634E+00 4.081E-02 5.454E-02 2.102E-02 1.164E-01 2.750E+00 2.161E+04  8.8897 1.00000
  6.000E+04 6.011E+04 2.644E+00 4.524E-02 6.092E-02 2.294E-02 1.291E-01 2.773E+00 2.342E+04  9.0633 1.00000
  7.000E+04 7.011E+04 2.662E+00 5.426E-02 7.397E-02 2.676E-02 1.550E-01 2.817E+00 2.700E+04  9.3709 1.00000
  8.000E+04 8.011E+04 2.677E+00 6.347E-02 8.736E-02 3.059E-02 1.814E-01 2.859E+00 3.052E+04  9.6376 1.00000
  9.000E+04 9.011E+04 2.691E+00 7.284E-02 1.010E-01 3.443E-02 2.083E-01 2.899E+00 3.400E+04  9.8729 1.00000
  1.000E+05 1.001E+05 2.702E+00 8.235E-02 1.149E-01 3.820E-02 2.355E-01 2.938E+00 3.742E+04 10.0833 1.00000
  1.200E+05 1.201E+05 2.723E+00 1.017E-01 1.433E-01 4.587E-02 2.910E-01 3.014E+00 4.415E+04 10.4476 1.00000
  1.400E+05 1.401E+05 2.740E+00 1.215E-01 1.724E-01 5.356E-02 3.475E-01 3.088E+00 5.070E+04 10.7557 1.00000
  1.700E+05 1.701E+05 2.762E+00 1.518E-01 2.170E-01 6.511E-02 4.339E-01 3.196E+00 6.026E+04 11.1437 1.00000
  2.000E+05 2.001E+05 2.780E+00 1.828E-01 2.624E-01 7.673E-02 5.219E-01 3.302E+00 6.949E+04 11.4686 1.00000
  2.500E+05 2.501E+05 2.804E+00 2.354E-01 3.397E-01 9.618E-02 6.712E-01 3.475E+00 8.426E+04 11.9147 1.00000
  3.000E+05 3.001E+05 2.824E+00 2.890E-01 4.184E-01 1.158E-01 8.232E-01 3.647E+00 9.831E+04 12.2792 1.00000
  3.500E+05 3.501E+05 2.841E+00 3.435E-01 4.982E-01 1.356E-01 9.773E-01 3.819E+00 1.117E+05 12.5874 1.00000
  4.000E+05 4.001E+05 2.856E+00 3.987E-01 5.788E-01 1.556E-01 1.133E+00 3.989E+00 1.245E+05 12.8543 1.00000
  4.500E+05 4.501E+05 2.869E+00 4.544E-01 6.601E-01 1.757E-01 1.290E+00 4.159E+00 1.368E+05 13.0899 1.00000
  5.000E+05 5.001E+05 2.881E+00 5.107E-01 7.420E-01 1.959E-01 1.449E+00 4.329E+00 1.486E+05 13.3005 1.00000
  5.500E+05 5.501E+05 2.891E+00 5.674E-01 8.244E-01 2.161E-01 1.608E+00 4.499E+00 1.599E+05 13.4911 1.00000
  6.000E+05 6.001E+05 2.901E+00 6.245E-01 9.072E-01 2.363E-01 1.768E+00 4.669E+00 1.708E+05 13.6651 1.00000
  7.000E+05 7.001E+05 2.918E+00 7.396E-01 1.074E+00 2.771E-01 2.091E+00 5.009E+00 1.915E+05 13.9734 1.00000
  8.000E+05 8.001E+05 2.933E+00 8.559E-01 1.242E+00 3.184E-01 2.416E+00 5.349E+00 2.108E+05 14.2404 1.00000
  9.000E+05 9.001E+05 2.946E+00 9.730E-01 1.410E+00 3.601E-01 2.744E+00 5.690E+00 2.290E+05 14.4759 1.00000
  1.000E+06 1.000E+06 2.958E+00 1.091E+00 1.580E+00 4.021E-01 3.073E+00 6.031E+00 2.461E+05 14.6866 1.00000
  1.200E+06 1.200E+06 2.979E+00 1.329E+00 1.921E+00 4.873E-01 3.737E+00 6.715E+00 2.775E+05 15.0512 1.00000
  1.400E+06 1.400E+06 2.996E+00 1.569E+00 2.263E+00 5.737E-01 4.406E+00 7.402E+00 3.059E+05 15.3595 1.00000
  1.700E+06 1.700E+06 3.018E+00 1.931E+00 2.780E+00 7.053E-01 5.417E+00 8.435E+00 3.440E+05 15.7478 1.00000
  2.000E+06 2.000E+06 3.037E+00 2.297E+00 3.299E+00 8.391E-01 6.435E+00 9.472E+00 3.776E+05 16.0728 1.00000
  2.500E+06 2.500E+06 3.063E+00 2.911E+00 4.167E+00 1.066E+00 8.145E+00 1.121E+01 4.263E+05 16.5191 1.00000
  3.000E+06 3.000E+06 3.084E+00 3.530E+00 5.039E+00 1.298E+00 9.867E+00 1.295E+01 4.679E+05 16.8837 1.00000
  3.500E+06 3.500E+06 3.102E+00 4.152E+00 5.914E+00 1.533E+00 1.160E+01 1.470E+01 5.042E+05 17.1920 1.00000
  4.000E+06 4.000E+06 3.118E+00 4.777E+00 6.790E+00 1.771E+00 1.334E+01 1.646E+01 5.364E+05 17.4590 1.00000
  4.500E+06 4.500E+06 3.132E+00 5.403E+00 7.667E+00 2.013E+00 1.508E+01 1.822E+01 5.653E+05 17.6946 1.00000
  5.000E+06 5.000E+06 3.145E+00 6.032E+00 8.546E+00 2.257E+00 1.684E+01 1.998E+01 5.916E+05 17.9053 1.00000
  5.500E+06 5.500E+06 3.156E+00 6.662E+00 9.426E+00 2.504E+00 1.859E+01 2.175E+01 6.156E+05 18.0959 1.00000
  6.000E+06 6.000E+06 3.167E+00 7.293E+00 1.031E+01 2.753E+00 2.035E+01 2.352E+01 6.377E+05 18.2700 1.00000
  7.000E+06 7.000E+06 3.185E+00 8.559E+00 1.207E+01 3.258E+00 2.389E+01 2.707E+01 6.774E+05 18.5782 1.00000
  8.000E+06 8.000E+06 3.202E+00 9.828E+00 1.383E+01 3.770E+00 2.743E+01 3.063E+01 7.122E+05 18.8453 1.00000
  9.000E+06 9.000E+06 3.216E+00 1.110E+01 1.560E+01 4.289E+00 3.099E+01 3.421E+01 7.432E+05 19.0809 1.00000
  1.000E+07 1.000E+07 3.229E+00 1.237E+01 1.737E+01 4.814E+00 3.456E+01 3.779E+01 7.710E+05 19.2916 1.00000
  1.200E+07 1.200E+07 3.252E+00 1.493E+01 2.091E+01 5.880E+00 4.171E+01 4.497E+01 8.197E+05 19.6562 1.00000
  1.400E+07 1.400E+07 3.271E+00 1.749E+01 2.445E+01 6.965E+00 4.890E+01 5.217E+01 8.611E+05 19.9645 1.00000
  1.700E+07 1.700E+07 3.295E+00 2.133E+01 2.976E+01 8.624E+00 5.972E+01 6.302E+01 9.137E+05 20.3528 1.00000
  2.000E+07 2.000E+07 3.316E+00 2.519E+01 3.508E+01 1.031E+01 7.059E+01 7.390E+01 9.578E+05 20.6779 1.00000
  2.500E+07 2.500E+07 3.344E+00 3.162E+01 4.395E+01 1.319E+01 8.877E+01 9.211E+01 1.019E+06 21.1242 1.00000
  3.000E+07 3.000E+07 3.368E+00 3.807E+01 5.283E+01 1.613E+01 1.070E+02 1.104E+02 1.069E+06 21.4888 1.00000
  3.500E+07 3.500E+07 3.388E+00 4.452E+01 6.171E+01 1.913E+01 1.254E+02 1.287E+02 1.111E+06 21.7971 1.00000
  4.000E+07 4.000E+07 3.406E+00 5.097E+01 7.059E+01 2.217E+01 1.437E+02 1.471E+02 1.147E+06 22.0642 1.00000
  4.500E+07 4.500E+07 3.421E+00 5.743E+01 7.947E+01 2.526E+01 1.622E+02 1.656E+02 1.179E+06 22.2997 1.00000
  5.000E+07 5.000E+07 3.435E+00 6.390E+01 8.836E+01 2.838E+01 1.806E+02 1.841E+02 1.208E+06 22.5104 1.00000
  5.500E+07 5.500E+07 3.448E+00 7.036E+01 9.725E+01 3.154E+01 1.992E+02 2.026E+02 1.234E+06 22.7011 1.00000
  6.000E+07 6.000E+07 3.460E+00 7.683E+01 1.061E+02 3.473E+01 2.177E+02 2.212E+02 1.257E+06 22.8751 1.00000
  7.000E+07 7.000E+07 3.480E+00 8.977E+01 1.239E+02 4.120E+01 2.549E+02 2.584E+02 1.299E+06 23.1834 1.00000
  8.000E+07 8.000E+07 3.498E+00 1.027E+02 1.417E+02 4.778E+01 2.922E+02 2.957E+02 1.336E+06 23.4505 1.00000
  9.000E+07 9.000E+07 3.514E+00 1.157E+02 1.595E+02 5.445E+01 3.296E+02 3.331E+02 1.367E+06 23.6860 1.00000
  1.000E+08 1.000E+08 3.529E+00 1.286E+02 1.772E+02 6.120E+01 3.671E+02 3.706E+02 1.396E+06 23.8967 1.00000
  1.200E+08 1.200E+08 3.554E+00 1.546E+02 2.128E+02 7.493E+01 4.423E+02 4.459E+02 1.445E+06 24.2614 1.00000
  1.400E+08 1.400E+08 3.576E+00 1.805E+02 2.484E+02 8.892E+01 5.178E+02 5.214E+02 1.487E+06 24.5697 1.00000
  1.700E+08 1.700E+08 3.603E+00 2.194E+02 3.017E+02 1.103E+02 6.315E+02 6.351E+02 1.539E+06 24.9580 1.00000
  2.000E+08 2.000E+08 3.626E+00 2.583E+02 3.551E+02 1.322E+02 7.456E+02 7.492E+02 1.583E+06 25.2830 1.00000
  2.500E+08 2.500E+08 3.658E+00 3.232E+02 4.440E+02 1.694E+02 9.366E+02 9.403E+02 1.643E+06 25.7293 1.00000
  3.000E+08 3.000E+08 3.684E+00 3.881E+02 5.330E+02 2.075E+02 1.129E+03 1.132E+03 1.692E+06 26.0940 1.00000
  3.500E+08 3.500E+08 3.706E+00 4.530E+02 6.219E+02 2.464E+02 1.321E+03 1.325E+03 1.733E+06 26.4023 1.00000
  4.000E+08 4.000E+08 3.726E+00 5.179E+02 7.109E+02 2.859E+02 1.515E+03 1.518E+03 1.768E+06 26.6693 1.00000
  4.500E+08 4.500E+08 3.743E+00 5.828E+02 7.998E+02 3.260E+02 1.709E+03 1.712E+03 1.799E+06 26.9049 1.00000
  5.000E+08 5.000E+08 3.759E+00 6.477E+02 8.887E+02 3.666E+02 1.903E+03 1.907E+03 1.827E+06 27.1156 1.00000
  5.500E+08 5.500E+08 3.773E+00 7.126E+02 9.777E+02 4.077E+02 2.098E+03 2.102E+03 1.852E+06 27.3062 1.00000
  6.000E+08 6.000E+08 3.786E+00 7.775E+02 1.067E+03 4.493E+02 2.293E+03 2.297E+03 1.875E+06 27.4803 1.00000
  7.000E+08 7.000E+08 3.809E+00 9.073E+02 1.245E+03 5.336E+02 2.685E+03 2.689E+03 1.915E+06 27.7886 1.00000
  8.000E+08 8.000E+08 3.830E+00 1.037E+03 1.422E+03 6.193E+02 3.079E+03 3.083E+03 1.950E+06 28.0556 1.00000
  9.000E+08 9.000E+08 3.848E+00 1.167E+03 1.600E+03 7.063E+02 3.474E+03 3.477E+03 1.980E+06 28.2912 1.00000
  1.000E+09 1.000E+09 3.864E+00 1.297E+03 1.778E+03 7.944E+02 3.869E+03 3.873E+03 2.008E+06 28.5019 1.00000
