 Incident particle is a Muon with M = 105.65839 MeV
 Index = 0: TungstenHexafluoride
      Absorber with <Z/A> = 0.42977
 Sternheimer coef:  a     k=m_s   x_0    x_1    I[eV]   Cbar  delta0
                 0.0366  3.5134  0.3020  4.2602  354.4  5.9881 0.00

 *** Table generated with PUMAS v1.00 ***

      T         p     Ionization  brems     pair     photonuc  Radloss    dE/dx   CSDA Range  delta   beta
    [MeV]    [MeV/c]  -----------------------[MeV cm^2/g]------------------------  [g/cm^2]
  1.000E+00 1.457E+01 2.815E+01 3.522E-06 0.000E+00 0.000E+00 3.522E-06 2.815E+01 1.776E-02  0.0000 0.13661
  1.200E+00 1.597E+01 2.459E+01 4.044E-06 0.000E+00 0.000E+00 4.044E-06 2.459E+01 2.538E-02  0.0000 0.14944
  1.400E+00 1.726E+01 2.190E+01 4.539E-06 0.000E+00 0.000E+00 4.539E-06 2.190E+01 3.401E-02  0.0000 0.16119
  1.700E+00 1.903E+01 1.891E+01 5.239E-06 0.000E+00 0.000E+00 5.239E-06 1.891E+01 4.879E-02  0.0000 0.17725
  2.000E+00 2.066E+01 1.671E+01 5.897E-06 0.000E+00 0.000E+00 5.897E-06 1.671E+01 6.570E-02  0.0000 0.19186
  2.500E+00 2.312E+01 1.409E+01 6.917E-06 0.000E+00 0.000E+00 6.917E-06 1.409E+01 9.841E-02  0.0000 0.21376
  3.000E+00 2.536E+01 1.225E+01 7.861E-06 0.000E+00 0.000E+00 7.861E-06 1.225E+01 1.366E-01  0.0000 0.23336
  3.500E+00 2.742E+01 1.088E+01 8.742E-06 0.000E+00 0.000E+00 8.742E-06 1.088E+01 1.800E-01  0.0000 0.25120
  4.000E+00 2.935E+01 9.818E+00 9.571E-06 0.000E+00 0.000E+00 9.571E-06 9.818E+00 2.284E-01  0.0000 0.26763
  4.500E+00 3.116E+01 8.970E+00 1.036E-05 0.000E+00 0.000E+00 1.036E-05 8.970E+00 2.818E-01  0.0000 0.28290
  5.000E+00 3.289E+01 8.276E+00 1.110E-05 0.000E+00 0.000E+00 1.110E-05 8.276E+00 3.398E-01  0.0000 0.29720
  5.500E+00 3.453E+01 7.697E+00 1.182E-05 0.000E+00 0.000E+00 1.182E-05 7.697E+00 4.025E-01  0.0000 0.31066
  6.000E+00 3.611E+01 7.205E+00 1.250E-05 0.000E+00 0.000E+00 1.250E-05 7.205E+00 4.697E-01  0.0000 0.32339
  7.000E+00 3.909E+01 6.415E+00 1.379E-05 0.000E+00 0.000E+00 1.379E-05 6.415E+00 6.170E-01  0.0000 0.34700
  8.000E+00 4.189E+01 5.806E+00 1.500E-05 0.000E+00 0.000E+00 1.500E-05 5.806E+00 7.811E-01  0.0000 0.36854
  9.000E+00 4.453E+01 5.322E+00 1.613E-05 0.000E+00 0.000E+00 1.613E-05 5.322E+00 9.611E-01  0.0000 0.38836
  1.000E+01 4.704E+01 4.928E+00 1.721E-05 0.000E+00 0.000E+00 1.721E-05 4.928E+00 1.157E+00  0.0000 0.40675
  1.200E+01 5.177E+01 4.323E+00 1.922E-05 0.000E+00 0.000E+00 1.922E-05 4.323E+00 1.591E+00  0.0000 0.43998
  1.400E+01 5.616E+01 3.880E+00 2.107E-05 0.000E+00 0.000E+00 2.107E-05 3.880E+00 2.080E+00  0.0000 0.46937
  1.700E+01 6.230E+01 3.400E+00 2.364E-05 0.000E+00 0.000E+00 2.364E-05 3.400E+00 2.908E+00  0.0000 0.50792
  2.000E+01 6.802E+01 3.057E+00 2.602E-05 0.000E+00 0.000E+00 2.602E-05 3.057E+00 3.839E+00  0.0000 0.54129
  2.500E+01 7.686E+01 2.661E+00 2.970E-05 0.000E+00 0.000E+00 2.970E-05 2.661E+00 5.597E+00  0.0000 0.58827
  3.000E+01 8.509E+01 2.393E+00 3.315E-05 0.000E+00 0.000E+00 3.315E-05 2.393E+00 7.580E+00  0.0000 0.62720
  3.500E+01 9.285E+01 2.201E+00 3.646E-05 0.000E+00 0.000E+00 3.646E-05 2.201E+00 9.761E+00  0.0000 0.66011
  4.000E+01 1.003E+02 2.056E+00 3.967E-05 0.000E+00 0.000E+00 3.967E-05 2.056E+00 1.211E+01  0.0000 0.68834
  4.500E+01 1.074E+02 1.944E+00 4.282E-05 0.000E+00 0.000E+00 4.282E-05 1.944E+00 1.461E+01  0.0000 0.71286
  5.000E+01 1.143E+02 1.855E+00 4.595E-05 0.000E+00 0.000E+00 4.595E-05 1.855E+00 1.725E+01  0.0000 0.73434
  5.500E+01 1.210E+02 1.782E+00 4.906E-05 0.000E+00 0.000E+00 4.906E-05 1.782E+00 2.000E+01  0.0000 0.75332
  6.000E+01 1.276E+02 1.723E+00 5.217E-05 0.000E+00 0.000E+00 5.217E-05 1.723E+00 2.285E+01  0.0000 0.77019
  7.000E+01 1.403E+02 1.631E+00 5.842E-05 0.000E+00 0.000E+00 5.842E-05 1.631E+00 2.882E+01  0.0000 0.79887
  8.000E+01 1.527E+02 1.565E+00 6.475E-05 0.000E+00 0.000E+00 6.475E-05 1.565E+00 3.508E+01  0.0000 0.82227
  9.000E+01 1.647E+02 1.516E+00 7.118E-05 0.000E+00 0.000E+00 7.118E-05 1.516E+00 4.157E+01  0.0000 0.84166
  1.000E+02 1.764E+02 1.479E+00 7.774E-05 0.000E+00 0.000E+00 7.774E-05 1.479E+00 4.825E+01  0.0000 0.85794
  1.200E+02 1.994E+02 1.428E+00 9.125E-05 0.000E+00 0.000E+00 9.125E-05 1.428E+00 6.201E+01  0.0000 0.88361
  1.400E+02 2.218E+02 1.396E+00 1.053E-04 0.000E+00 0.000E+00 1.053E-04 1.396E+00 7.618E+01  0.0133 0.90278
  1.700E+02 2.546E+02 1.367E+00 1.274E-04 2.036E-14 0.000E+00 1.274E-04 1.367E+00 9.790E+01  0.0523 0.92363
  2.000E+02 2.868E+02 1.353E+00 1.508E-04 4.554E-12 0.000E+00 1.508E-04 1.353E+00 1.200E+02  0.0933 0.93835
  2.500E+02 3.396E+02 1.346E+00 1.922E-04 3.724E-08 0.000E+00 1.923E-04 1.346E+00 1.570E+02  0.1626 0.95485
  3.000E+02 3.917E+02 1.349E+00 2.366E-04 3.360E-07 0.000E+00 2.369E-04 1.349E+00 1.941E+02  0.2311 0.96548
  3.500E+02 4.432E+02 1.357E+00 2.836E-04 9.284E-07 0.000E+00 2.846E-04 1.357E+00 2.311E+02  0.2979 0.97274
  4.000E+02 4.945E+02 1.366E+00 3.331E-04 1.802E-06 0.000E+00 3.349E-04 1.367E+00 2.678E+02  0.3624 0.97793
  4.500E+02 5.455E+02 1.377E+00 3.849E-04 9.829E-06 0.000E+00 3.947E-04 1.378E+00 3.042E+02  0.4246 0.98176
  5.000E+02 5.964E+02 1.388E+00 4.388E-04 4.800E-05 0.000E+00 4.868E-04 1.389E+00 3.404E+02  0.4845 0.98467
  5.500E+02 6.471E+02 1.400E+00 4.947E-04 6.869E-05 0.000E+00 5.634E-04 1.400E+00 3.762E+02  0.5422 0.98693
  6.000E+02 6.977E+02 1.410E+00 5.524E-04 9.137E-05 0.000E+00 6.438E-04 1.411E+00 4.118E+02  0.5978 0.98873
  7.000E+02 7.987E+02 1.431E+00 6.730E-04 1.448E-04 0.000E+00 8.178E-04 1.432E+00 4.821E+02  0.7032 0.99136
  8.000E+02 8.995E+02 1.450E+00 7.999E-04 2.089E-04 0.000E+00 1.009E-03 1.451E+00 5.515E+02  0.8017 0.99317
  9.000E+02 1.000E+03 1.468E+00 9.325E-04 2.829E-04 0.000E+00 1.215E-03 1.469E+00 6.200E+02  0.8941 0.99447
  1.000E+03 1.101E+03 1.485E+00 1.070E-03 3.662E-04 0.000E+00 1.436E-03 1.486E+00 6.876E+02  0.9811 0.99542
  1.200E+03 1.301E+03 1.514E+00 1.360E-03 5.588E-04 2.249E-05 1.941E-03 1.516E+00 8.209E+02  1.1413 0.99672
  1.400E+03 1.502E+03 1.539E+00 1.666E-03 7.828E-04 6.116E-05 2.510E-03 1.541E+00 9.518E+02  1.2861 0.99753
  1.700E+03 1.803E+03 1.571E+00 2.153E-03 1.171E-03 1.301E-04 3.454E-03 1.574E+00 1.144E+03  1.4805 0.99829
  2.000E+03 2.103E+03 1.598E+00 2.667E-03 1.616E-03 2.105E-04 4.493E-03 1.603E+00 1.333E+03  1.6532 0.99874
  2.500E+03 2.604E+03 1.635E+00 3.577E-03 2.463E-03 3.648E-04 6.404E-03 1.641E+00 1.642E+03  1.9047 0.99918
  3.000E+03 3.104E+03 1.665E+00 4.543E-03 3.424E-03 5.253E-04 8.492E-03 1.673E+00 1.943E+03  2.1221 0.99942
  3.500E+03 3.604E+03 1.690E+00 5.556E-03 4.484E-03 6.942E-04 1.073E-02 1.701E+00 2.240E+03  2.3139 0.99957
  4.000E+03 4.104E+03 1.711E+00 6.609E-03 5.640E-03 8.738E-04 1.312E-02 1.724E+00 2.532E+03  2.4858 0.99967
  4.500E+03 4.604E+03 1.730E+00 7.699E-03 6.879E-03 1.060E-03 1.564E-02 1.745E+00 2.820E+03  2.6417 0.99974
  5.000E+03 5.105E+03 1.746E+00 8.821E-03 8.187E-03 1.238E-03 1.825E-02 1.764E+00 3.105E+03  2.7844 0.99979
  5.500E+03 5.605E+03 1.761E+00 9.972E-03 9.558E-03 1.430E-03 2.096E-02 1.782E+00 3.387E+03  2.9161 0.99982
  6.000E+03 6.105E+03 1.774E+00 1.115E-02 1.099E-02 1.608E-03 2.374E-02 1.798E+00 3.666E+03  3.0385 0.99985
  7.000E+03 7.105E+03 1.797E+00 1.358E-02 1.400E-02 1.985E-03 2.956E-02 1.826E+00 4.218E+03  3.2601 0.99989
  8.000E+03 8.105E+03 1.816E+00 1.609E-02 1.719E-02 2.358E-03 3.564E-02 1.852E+00 4.762E+03  3.4568 0.99992
  9.000E+03 9.105E+03 1.833E+00 1.867E-02 2.054E-02 2.708E-03 4.192E-02 1.875E+00 5.298E+03  3.6338 0.99993
  1.000E+04 1.011E+04 1.848E+00 2.132E-02 2.404E-02 3.068E-03 4.843E-02 1.897E+00 5.829E+03  3.7949 0.99995
  1.200E+04 1.211E+04 1.873E+00 2.679E-02 3.139E-02 3.797E-03 6.198E-02 1.935E+00 6.873E+03  4.0795 0.99996
  1.400E+04 1.411E+04 1.894E+00 3.246E-02 3.916E-02 4.526E-03 7.614E-02 1.970E+00 7.897E+03  4.3256 0.99997
  1.700E+04 1.711E+04 1.919E+00 4.127E-02 5.145E-02 5.602E-03 9.832E-02 2.017E+00 9.402E+03  4.6424 0.99998
  2.000E+04 2.011E+04 1.940E+00 5.038E-02 6.437E-02 6.656E-03 1.214E-01 2.061E+00 1.087E+04  4.9130 0.99999
  2.500E+04 2.511E+04 1.967E+00 6.612E-02 8.703E-02 8.382E-03 1.615E-01 2.128E+00 1.326E+04  5.2922 0.99999
  3.000E+04 3.011E+04 1.988E+00 8.243E-02 1.108E-01 1.007E-02 2.033E-01 2.191E+00 1.558E+04  5.6081 0.99999
  3.500E+04 3.511E+04 2.006E+00 9.920E-02 1.355E-01 1.178E-02 2.465E-01 2.252E+00 1.783E+04  5.8793 1.00000
  4.000E+04 4.011E+04 2.021E+00 1.164E-01 1.609E-01 1.346E-02 2.907E-01 2.311E+00 2.002E+04  6.1170 1.00000
  4.500E+04 4.511E+04 2.033E+00 1.338E-01 1.869E-01 1.512E-02 3.359E-01 2.369E+00 2.216E+04  6.3286 1.00000
  5.000E+04 5.011E+04 2.045E+00 1.516E-01 2.134E-01 1.678E-02 3.818E-01 2.426E+00 2.424E+04  6.5195 1.00000
  5.500E+04 5.511E+04 2.055E+00 1.697E-01 2.404E-01 1.845E-02 4.285E-01 2.483E+00 2.628E+04  6.6934 1.00000
  6.000E+04 6.011E+04 2.064E+00 1.879E-01 2.678E-01 2.010E-02 4.758E-01 2.540E+00 2.827E+04  6.8532 1.00000
  7.000E+04 7.011E+04 2.080E+00 2.251E-01 3.236E-01 2.337E-02 5.721E-01 2.652E+00 3.212E+04  7.1383 1.00000
  8.000E+04 8.011E+04 2.093E+00 2.629E-01 3.806E-01 2.664E-02 6.702E-01 2.763E+00 3.582E+04  7.3873 1.00000
  9.000E+04 9.011E+04 2.105E+00 3.014E-01 4.385E-01 2.992E-02 7.698E-01 2.874E+00 3.937E+04  7.6085 1.00000
  1.000E+05 1.001E+05 2.115E+00 3.403E-01 4.973E-01 3.313E-02 8.707E-01 2.986E+00 4.278E+04  7.8074 1.00000
  1.200E+05 1.201E+05 2.132E+00 4.196E-01 6.167E-01 3.967E-02 1.076E+00 3.208E+00 4.925E+04  8.1541 1.00000
  1.400E+05 1.401E+05 2.147E+00 5.003E-01 7.383E-01 4.620E-02 1.285E+00 3.432E+00 5.528E+04  8.4494 1.00000
  1.700E+05 1.701E+05 2.165E+00 6.235E-01 9.236E-01 5.599E-02 1.603E+00 3.768E+00 6.363E+04  8.8238 1.00000
  2.000E+05 2.001E+05 2.180E+00 7.489E-01 1.112E+00 6.584E-02 1.927E+00 4.106E+00 7.127E+04  9.1391 1.00000
  2.500E+05 2.501E+05 2.200E+00 9.615E-01 1.430E+00 8.228E-02 2.474E+00 4.674E+00 8.270E+04  9.5747 1.00000
  3.000E+05 3.001E+05 2.217E+00 1.178E+00 1.753E+00 9.884E-02 3.029E+00 5.246E+00 9.282E+04  9.9325 1.00000
  3.500E+05 3.501E+05 2.231E+00 1.397E+00 2.078E+00 1.156E-01 3.590E+00 5.821E+00 1.019E+05 10.2362 1.00000
  4.000E+05 4.001E+05 2.243E+00 1.618E+00 2.406E+00 1.324E-01 4.157E+00 6.399E+00 1.101E+05 10.5000 1.00000
  4.500E+05 4.501E+05 2.253E+00 1.841E+00 2.736E+00 1.493E-01 4.727E+00 6.980E+00 1.176E+05 10.7332 1.00000
  5.000E+05 5.001E+05 2.263E+00 2.065E+00 3.068E+00 1.664E-01 5.300E+00 7.563E+00 1.245E+05 10.9422 1.00000
  5.500E+05 5.501E+05 2.271E+00 2.292E+00 3.401E+00 1.833E-01 5.876E+00 8.147E+00 1.308E+05 11.1315 1.00000
  6.000E+05 6.001E+05 2.279E+00 2.519E+00 3.736E+00 2.003E-01 6.455E+00 8.733E+00 1.368E+05 11.3045 1.00000
  7.000E+05 7.001E+05 2.293E+00 2.976E+00 4.407E+00 2.346E-01 7.618E+00 9.910E+00 1.475E+05 11.6115 1.00000
  8.000E+05 8.001E+05 2.305E+00 3.437E+00 5.081E+00 2.693E-01 8.788E+00 1.109E+01 1.571E+05 11.8777 1.00000
  9.000E+05 9.001E+05 2.315E+00 3.901E+00 5.758E+00 3.043E-01 9.963E+00 1.228E+01 1.657E+05 12.1128 1.00000
  1.000E+06 1.000E+06 2.325E+00 4.367E+00 6.437E+00 3.396E-01 1.114E+01 1.347E+01 1.734E+05 12.3231 1.00000
  1.200E+06 1.200E+06 2.341E+00 5.304E+00 7.800E+00 4.111E-01 1.351E+01 1.586E+01 1.872E+05 12.6875 1.00000
  1.400E+06 1.400E+06 2.355E+00 6.247E+00 9.167E+00 4.835E-01 1.590E+01 1.825E+01 1.990E+05 12.9956 1.00000
  1.700E+06 1.700E+06 2.373E+00 7.671E+00 1.123E+01 5.939E-01 1.949E+01 2.186E+01 2.140E+05 13.3839 1.00000
  2.000E+06 2.000E+06 2.388E+00 9.103E+00 1.329E+01 7.061E-01 2.310E+01 2.549E+01 2.268E+05 13.7089 1.00000
  2.500E+06 2.500E+06 2.408E+00 1.150E+01 1.674E+01 8.965E-01 2.914E+01 3.155E+01 2.445E+05 14.1552 1.00000
  3.000E+06 3.000E+06 2.425E+00 1.391E+01 2.020E+01 1.090E+00 3.520E+01 3.763E+01 2.591E+05 14.5198 1.00000
  3.500E+06 3.500E+06 2.440E+00 1.633E+01 2.366E+01 1.288E+00 4.128E+01 4.372E+01 2.715E+05 14.8281 1.00000
  4.000E+06 4.000E+06 2.453E+00 1.876E+01 2.713E+01 1.488E+00 4.738E+01 4.983E+01 2.822E+05 15.0951 1.00000
  4.500E+06 4.500E+06 2.464E+00 2.119E+01 3.060E+01 1.690E+00 5.348E+01 5.595E+01 2.917E+05 15.3307 1.00000
  5.000E+06 5.000E+06 2.474E+00 2.363E+01 3.408E+01 1.895E+00 5.960E+01 6.207E+01 3.002E+05 15.5414 1.00000
  5.500E+06 5.500E+06 2.483E+00 2.606E+01 3.756E+01 2.101E+00 6.572E+01 6.820E+01 3.079E+05 15.7320 1.00000
  6.000E+06 6.000E+06 2.491E+00 2.851E+01 4.104E+01 2.310E+00 7.185E+01 7.434E+01 3.149E+05 15.9061 1.00000
  7.000E+06 7.000E+06 2.506E+00 3.340E+01 4.800E+01 2.733E+00 8.413E+01 8.664E+01 3.274E+05 16.2143 1.00000
  8.000E+06 8.000E+06 2.519E+00 3.830E+01 5.497E+01 3.162E+00 9.643E+01 9.895E+01 3.382E+05 16.4814 1.00000
  9.000E+06 9.000E+06 2.531E+00 4.321E+01 6.194E+01 3.596E+00 1.087E+02 1.113E+02 3.478E+05 16.7170 1.00000
  1.000E+07 1.000E+07 2.541E+00 4.812E+01 6.892E+01 4.036E+00 1.211E+02 1.236E+02 3.563E+05 16.9277 1.00000
  1.200E+07 1.200E+07 2.559E+00 5.796E+01 8.288E+01 4.928E+00 1.458E+02 1.483E+02 3.711E+05 17.2923 1.00000
  1.400E+07 1.400E+07 2.575E+00 6.781E+01 9.684E+01 5.837E+00 1.705E+02 1.731E+02 3.837E+05 17.6006 1.00000
  1.700E+07 1.700E+07 2.594E+00 8.260E+01 1.178E+02 7.226E+00 2.076E+02 2.102E+02 3.995E+05 17.9889 1.00000
  2.000E+07 2.000E+07 2.611E+00 9.741E+01 1.388E+02 8.641E+00 2.448E+02 2.474E+02 4.127E+05 18.3140 1.00000
  2.500E+07 2.500E+07 2.634E+00 1.221E+02 1.737E+02 1.105E+01 3.069E+02 3.095E+02 4.308E+05 18.7603 1.00000
  3.000E+07 3.000E+07 2.652E+00 1.468E+02 2.087E+02 1.351E+01 3.690E+02 3.717E+02 4.456E+05 19.1249 1.00000
  3.500E+07 3.500E+07 2.668E+00 1.716E+02 2.437E+02 1.602E+01 4.313E+02 4.339E+02 4.581E+05 19.4332 1.00000
  4.000E+07 4.000E+07 2.682E+00 1.963E+02 2.787E+02 1.857E+01 4.935E+02 4.962E+02 4.689E+05 19.7003 1.00000
  4.500E+07 4.500E+07 2.695E+00 2.211E+02 3.136E+02 2.115E+01 5.559E+02 5.586E+02 4.784E+05 19.9358 1.00000
  5.000E+07 5.000E+07 2.706E+00 2.458E+02 3.486E+02 2.377E+01 6.182E+02 6.209E+02 4.869E+05 20.1465 1.00000
  5.500E+07 5.500E+07 2.716E+00 2.706E+02 3.836E+02 2.641E+01 6.806E+02 6.834E+02 4.946E+05 20.3372 1.00000
  6.000E+07 6.000E+07 2.725E+00 2.954E+02 4.186E+02 2.908E+01 7.431E+02 7.458E+02 5.016E+05 20.5112 1.00000
  7.000E+07 7.000E+07 2.742E+00 3.449E+02 4.886E+02 3.450E+01 8.681E+02 8.708E+02 5.141E+05 20.8195 1.00000
  8.000E+07 8.000E+07 2.757E+00 3.945E+02 5.586E+02 4.000E+01 9.931E+02 9.959E+02 5.248E+05 21.0866 1.00000
  9.000E+07 9.000E+07 2.769E+00 4.441E+02 6.286E+02 4.559E+01 1.118E+03 1.121E+03 5.343E+05 21.3221 1.00000
  1.000E+08 1.000E+08 2.781E+00 4.936E+02 6.986E+02 5.124E+01 1.244E+03 1.246E+03 5.428E+05 21.5328 1.00000
  1.200E+08 1.200E+08 2.801E+00 5.928E+02 8.387E+02 6.273E+01 1.494E+03 1.497E+03 5.575E+05 21.8975 1.00000
  1.400E+08 1.400E+08 2.818E+00 6.920E+02 9.787E+02 7.444E+01 1.745E+03 1.748E+03 5.699E+05 22.2058 1.00000
  1.700E+08 1.700E+08 2.840E+00 8.408E+02 1.189E+03 9.237E+01 2.122E+03 2.125E+03 5.855E+05 22.5941 1.00000
  2.000E+08 2.000E+08 2.858E+00 9.897E+02 1.399E+03 1.107E+02 2.499E+03 2.502E+03 5.986E+05 22.9191 1.00000
  2.500E+08 2.500E+08 2.884E+00 1.238E+03 1.749E+03 1.418E+02 3.128E+03 3.131E+03 6.166E+05 23.3654 1.00000
  3.000E+08 3.000E+08 2.905E+00 1.486E+03 2.099E+03 1.737E+02 3.759E+03 3.761E+03 6.312E+05 23.7301 1.00000
  3.500E+08 3.500E+08 2.923E+00 1.734E+03 2.449E+03 2.063E+02 4.389E+03 4.392E+03 6.435E+05 24.0384 1.00000
  4.000E+08 4.000E+08 2.938E+00 1.982E+03 2.799E+03 2.394E+02 5.021E+03 5.024E+03 6.542E+05 24.3054 1.00000
  4.500E+08 4.500E+08 2.952E+00 2.230E+03 3.149E+03 2.729E+02 5.652E+03 5.655E+03 6.636E+05 24.5410 1.00000
  5.000E+08 5.000E+08 2.965E+00 2.478E+03 3.499E+03 3.069E+02 6.285E+03 6.288E+03 6.720E+05 24.7517 1.00000
  5.500E+08 5.500E+08 2.976E+00 2.726E+03 3.849E+03 3.413E+02 6.917E+03 6.920E+03 6.796E+05 24.9423 1.00000
  6.000E+08 6.000E+08 2.986E+00 2.975E+03 4.200E+03 3.761E+02 7.550E+03 7.553E+03 6.865E+05 25.1164 1.00000
  7.000E+08 7.000E+08 3.005E+00 3.471E+03 4.900E+03 4.467E+02 8.817E+03 8.820E+03 6.988E+05 25.4247 1.00000
  8.000E+08 8.000E+08 3.021E+00 3.967E+03 5.600E+03 5.184E+02 1.009E+04 1.009E+04 7.094E+05 25.6917 1.00000
  9.000E+08 9.000E+08 3.035E+00 4.463E+03 6.300E+03 5.912E+02 1.135E+04 1.136E+04 7.188E+05 25.9273 1.00000
  1.000E+09 1.000E+09 3.048E+00 4.960E+03 7.000E+03 6.650E+02 1.262E+04 1.263E+04 7.271E+05 26.1380 1.00000
