 Incident particle is a Muon with M = 105.65839 MeV
 Index = 0: UraniumMonocarbide
      Absorber with <Z/A> = 0.39194
 Sternheimer coef:  a     k=m_s   x_0    x_1    I[eV]   Cbar  delta0
                 0.2297  2.6169  0.2524  3.4941  862.0  6.1210 0.00

 *** Table generated with PUMAS v1.00 ***

      T         p     Ionization  brems     pair     photonuc  Radloss    dE/dx   CSDA Range  delta   beta
    [MeV]    [MeV/c]  -----------------------[MeV cm^2/g]------------------------  [g/cm^2]
  1.000E+00 1.457E+01 1.994E+01 5.774E-06 0.000E+00 0.000E+00 5.774E-06 1.994E+01 2.507E-02  0.0000 0.13661
  1.200E+00 1.597E+01 1.763E+01 6.628E-06 0.000E+00 0.000E+00 6.628E-06 1.763E+01 3.576E-02  0.0000 0.14944
  1.400E+00 1.726E+01 1.586E+01 7.436E-06 0.000E+00 0.000E+00 7.436E-06 1.586E+01 4.774E-02  0.0000 0.16119
  1.700E+00 1.903E+01 1.384E+01 8.576E-06 0.000E+00 0.000E+00 8.576E-06 1.384E+01 6.804E-02  0.0000 0.17725
  2.000E+00 2.066E+01 1.233E+01 9.646E-06 0.000E+00 0.000E+00 9.646E-06 1.233E+01 9.103E-02  0.0000 0.19186
  2.500E+00 2.312E+01 1.051E+01 1.130E-05 0.000E+00 0.000E+00 1.130E-05 1.051E+01 1.351E-01  0.0000 0.21376
  3.000E+00 2.536E+01 9.204E+00 1.283E-05 0.000E+00 0.000E+00 1.283E-05 9.204E+00 1.861E-01  0.0000 0.23336
  3.500E+00 2.742E+01 8.225E+00 1.425E-05 0.000E+00 0.000E+00 1.425E-05 8.225E+00 2.436E-01  0.0000 0.25120
  4.000E+00 2.935E+01 7.460E+00 1.558E-05 0.000E+00 0.000E+00 1.558E-05 7.460E+00 3.075E-01  0.0000 0.26763
  4.500E+00 3.116E+01 6.844E+00 1.685E-05 0.000E+00 0.000E+00 1.685E-05 6.844E+00 3.776E-01  0.0000 0.28290
  5.000E+00 3.289E+01 6.337E+00 1.805E-05 0.000E+00 0.000E+00 1.805E-05 6.337E+00 4.536E-01  0.0000 0.29720
  5.500E+00 3.453E+01 5.911E+00 1.919E-05 0.000E+00 0.000E+00 1.919E-05 5.911E+00 5.353E-01  0.0000 0.31066
  6.000E+00 3.611E+01 5.548E+00 2.029E-05 0.000E+00 0.000E+00 2.029E-05 5.548E+00 6.227E-01  0.0000 0.32339
  7.000E+00 3.909E+01 4.962E+00 2.235E-05 0.000E+00 0.000E+00 2.235E-05 4.962E+00 8.135E-01  0.0000 0.34700
  8.000E+00 4.189E+01 4.507E+00 2.427E-05 0.000E+00 0.000E+00 2.427E-05 4.507E+00 1.025E+00  0.0000 0.36854
  9.000E+00 4.453E+01 4.144E+00 2.608E-05 0.000E+00 0.000E+00 2.608E-05 4.145E+00 1.257E+00  0.0000 0.38836
  1.000E+01 4.704E+01 3.848E+00 2.779E-05 0.000E+00 0.000E+00 2.779E-05 3.848E+00 1.507E+00  0.0000 0.40675
  1.200E+01 5.177E+01 3.390E+00 3.098E-05 0.000E+00 0.000E+00 3.098E-05 3.390E+00 2.062E+00  0.0000 0.43998
  1.400E+01 5.616E+01 3.053E+00 3.391E-05 0.000E+00 0.000E+00 3.391E-05 3.053E+00 2.685E+00  0.0000 0.46937
  1.700E+01 6.230E+01 2.686E+00 3.798E-05 0.000E+00 0.000E+00 3.798E-05 2.686E+00 3.735E+00  0.0000 0.50792
  2.000E+01 6.802E+01 2.423E+00 4.174E-05 0.000E+00 0.000E+00 4.174E-05 2.423E+00 4.912E+00  0.0000 0.54129
  2.500E+01 7.686E+01 2.118E+00 4.756E-05 0.000E+00 0.000E+00 4.756E-05 2.118E+00 7.124E+00  0.0000 0.58827
  3.000E+01 8.509E+01 1.911E+00 5.301E-05 0.000E+00 0.000E+00 5.301E-05 1.911E+00 9.613E+00  0.0000 0.62720
  3.500E+01 9.285E+01 1.762E+00 5.824E-05 0.000E+00 0.000E+00 5.824E-05 1.762E+00 1.234E+01  0.0000 0.66011
  4.000E+01 1.003E+02 1.649E+00 6.332E-05 0.000E+00 0.000E+00 6.332E-05 1.649E+00 1.528E+01  0.0000 0.68834
  4.500E+01 1.074E+02 1.562E+00 6.832E-05 0.000E+00 0.000E+00 6.832E-05 1.562E+00 1.839E+01  0.0000 0.71286
  5.000E+01 1.143E+02 1.493E+00 7.327E-05 0.000E+00 0.000E+00 7.327E-05 1.493E+00 2.167E+01  0.0000 0.73434
  5.500E+01 1.210E+02 1.437E+00 7.821E-05 0.000E+00 0.000E+00 7.821E-05 1.437E+00 2.508E+01  0.0000 0.75332
  6.000E+01 1.276E+02 1.391E+00 8.315E-05 0.000E+00 0.000E+00 8.315E-05 1.391E+00 2.862E+01  0.0000 0.77019
  7.000E+01 1.403E+02 1.320E+00 9.309E-05 0.000E+00 0.000E+00 9.309E-05 1.320E+00 3.600E+01  0.0000 0.79887
  8.000E+01 1.527E+02 1.269E+00 1.032E-04 0.000E+00 0.000E+00 1.032E-04 1.269E+00 4.373E+01  0.0000 0.82227
  9.000E+01 1.647E+02 1.232E+00 1.134E-04 0.000E+00 0.000E+00 1.134E-04 1.232E+00 5.172E+01  0.0000 0.84166
  1.000E+02 1.764E+02 1.203E+00 1.239E-04 0.000E+00 0.000E+00 1.239E-04 1.204E+00 5.994E+01  0.0000 0.85794
  1.200E+02 1.994E+02 1.162E+00 1.454E-04 0.000E+00 0.000E+00 1.454E-04 1.162E+00 7.685E+01  0.0420 0.88361
  1.400E+02 2.218E+02 1.137E+00 1.679E-04 0.000E+00 0.000E+00 1.679E-04 1.137E+00 9.425E+01  0.0731 0.90278
  1.700E+02 2.546E+02 1.117E+00 2.033E-04 1.876E-15 0.000E+00 2.033E-04 1.117E+00 1.209E+02  0.1197 0.92363
  2.000E+02 2.868E+02 1.107E+00 2.407E-04 4.190E-13 0.000E+00 2.407E-04 1.108E+00 1.478E+02  0.1656 0.93835
  2.500E+02 3.396E+02 1.105E+00 3.072E-04 3.462E-09 0.000E+00 3.072E-04 1.105E+00 1.930E+02  0.2396 0.95485
  3.000E+02 3.917E+02 1.110E+00 3.785E-04 3.038E-08 0.000E+00 3.785E-04 1.111E+00 2.382E+02  0.3100 0.96548
  3.500E+02 4.432E+02 1.119E+00 4.541E-04 8.335E-08 0.000E+00 4.542E-04 1.120E+00 2.830E+02  0.3770 0.97274
  4.000E+02 4.945E+02 1.129E+00 5.338E-04 1.611E-07 0.000E+00 5.340E-04 1.130E+00 3.275E+02  0.4407 0.97793
  4.500E+02 5.455E+02 1.140E+00 6.172E-04 2.628E-07 0.000E+00 6.175E-04 1.141E+00 3.715E+02  0.5015 0.98176
  5.000E+02 5.964E+02 1.151E+00 7.042E-04 5.240E-05 0.000E+00 7.566E-04 1.152E+00 4.151E+02  0.5595 0.98467
  5.500E+02 6.471E+02 1.162E+00 7.943E-04 1.120E-04 0.000E+00 9.063E-04 1.163E+00 4.583E+02  0.6149 0.98693
  6.000E+02 6.977E+02 1.173E+00 8.875E-04 1.523E-04 0.000E+00 1.040E-03 1.174E+00 5.011E+02  0.6682 0.98873
  7.000E+02 7.987E+02 1.192E+00 1.082E-03 2.428E-04 0.000E+00 1.325E-03 1.194E+00 5.856E+02  0.7684 0.99136
  8.000E+02 8.995E+02 1.211E+00 1.288E-03 3.508E-04 0.000E+00 1.639E-03 1.212E+00 6.687E+02  0.8616 0.99317
  9.000E+02 1.000E+03 1.227E+00 1.502E-03 4.755E-04 0.000E+00 1.978E-03 1.229E+00 7.506E+02  0.9486 0.99447
  1.000E+03 1.101E+03 1.243E+00 1.726E-03 6.162E-04 0.000E+00 2.342E-03 1.245E+00 8.315E+02  1.0304 0.99542
  1.200E+03 1.301E+03 1.270E+00 2.195E-03 9.412E-04 2.245E-05 3.159E-03 1.274E+00 9.903E+02  1.1804 0.99672
  1.400E+03 1.502E+03 1.294E+00 2.693E-03 1.319E-03 6.083E-05 4.073E-03 1.298E+00 1.146E+03  1.3158 0.99753
  1.700E+03 1.803E+03 1.324E+00 3.483E-03 1.975E-03 1.287E-04 5.587E-03 1.330E+00 1.374E+03  1.4974 0.99829
  2.000E+03 2.103E+03 1.350E+00 4.320E-03 2.726E-03 2.075E-04 7.253E-03 1.357E+00 1.597E+03  1.6586 0.99874
  2.500E+03 2.604E+03 1.385E+00 5.803E-03 4.156E-03 3.577E-04 1.032E-02 1.395E+00 1.961E+03  1.8936 0.99918
  3.000E+03 3.104E+03 1.413E+00 7.377E-03 5.780E-03 5.130E-04 1.367E-02 1.426E+00 2.315E+03  2.0971 0.99942
  3.500E+03 3.604E+03 1.436E+00 9.030E-03 7.569E-03 6.756E-04 1.727E-02 1.453E+00 2.663E+03  2.2769 0.99957
  4.000E+03 4.104E+03 1.456E+00 1.075E-02 9.513E-03 8.478E-04 2.111E-02 1.477E+00 3.004E+03  2.4383 0.99967
  4.500E+03 4.604E+03 1.474E+00 1.253E-02 1.159E-02 1.026E-03 2.515E-02 1.499E+00 3.340E+03  2.5850 0.99974
  5.000E+03 5.105E+03 1.489E+00 1.436E-02 1.378E-02 1.196E-03 2.934E-02 1.519E+00 3.671E+03  2.7196 0.99979
  5.500E+03 5.605E+03 1.503E+00 1.625E-02 1.608E-02 1.378E-03 3.370E-02 1.537E+00 3.999E+03  2.8439 0.99982
  6.000E+03 6.105E+03 1.515E+00 1.817E-02 1.847E-02 1.547E-03 3.819E-02 1.554E+00 4.322E+03  2.9597 0.99985
  7.000E+03 7.105E+03 1.537E+00 2.214E-02 2.351E-02 1.904E-03 4.756E-02 1.585E+00 4.960E+03  3.1698 0.99989
  8.000E+03 8.105E+03 1.556E+00 2.625E-02 2.886E-02 2.257E-03 5.736E-02 1.613E+00 5.585E+03  3.3568 0.99992
  9.000E+03 9.105E+03 1.571E+00 3.048E-02 3.447E-02 2.586E-03 6.753E-02 1.639E+00 6.200E+03  3.5256 0.99993
  1.000E+04 1.011E+04 1.585E+00 3.482E-02 4.030E-02 2.926E-03 7.805E-02 1.664E+00 6.806E+03  3.6796 0.99995
  1.200E+04 1.211E+04 1.609E+00 4.378E-02 5.258E-02 3.610E-03 9.997E-02 1.709E+00 7.992E+03  3.9524 0.99996
  1.400E+04 1.411E+04 1.628E+00 5.306E-02 6.555E-02 4.291E-03 1.229E-01 1.751E+00 9.148E+03  4.1893 0.99997
  1.700E+04 1.711E+04 1.652E+00 6.749E-02 8.604E-02 5.296E-03 1.588E-01 1.811E+00 1.083E+04  4.4955 0.99998
  2.000E+04 2.011E+04 1.671E+00 8.242E-02 1.076E-01 6.276E-03 1.963E-01 1.867E+00 1.246E+04  4.7582 0.99999
  2.500E+04 2.511E+04 1.697E+00 1.082E-01 1.453E-01 7.878E-03 2.614E-01 1.958E+00 1.508E+04  5.1280 0.99999
  3.000E+04 3.011E+04 1.716E+00 1.349E-01 1.848E-01 9.442E-03 3.292E-01 2.046E+00 1.758E+04  5.4376 0.99999
  3.500E+04 3.511E+04 1.733E+00 1.624E-01 2.257E-01 1.102E-02 3.992E-01 2.132E+00 1.997E+04  5.7044 1.00000
  4.000E+04 4.011E+04 1.746E+00 1.905E-01 2.679E-01 1.257E-02 4.710E-01 2.217E+00 2.227E+04  5.9391 1.00000
  4.500E+04 4.511E+04 1.758E+00 2.192E-01 3.110E-01 1.409E-02 5.442E-01 2.302E+00 2.449E+04  6.1487 1.00000
  5.000E+04 5.011E+04 1.769E+00 2.483E-01 3.549E-01 1.562E-02 6.188E-01 2.387E+00 2.662E+04  6.3382 1.00000
  5.500E+04 5.511E+04 1.778E+00 2.778E-01 3.996E-01 1.715E-02 6.946E-01 2.472E+00 2.868E+04  6.5112 1.00000
  6.000E+04 6.011E+04 1.786E+00 3.078E-01 4.449E-01 1.866E-02 7.714E-01 2.557E+00 3.067E+04  6.6704 1.00000
  7.000E+04 7.011E+04 1.800E+00 3.686E-01 5.372E-01 2.166E-02 9.275E-01 2.728E+00 3.446E+04  6.9553 1.00000
  8.000E+04 8.011E+04 1.813E+00 4.305E-01 6.313E-01 2.466E-02 1.087E+00 2.899E+00 3.801E+04  7.2050 1.00000
  9.000E+04 9.011E+04 1.823E+00 4.935E-01 7.269E-01 2.765E-02 1.248E+00 3.071E+00 4.137E+04  7.4272 1.00000
  1.000E+05 1.001E+05 1.832E+00 5.572E-01 8.238E-01 3.059E-02 1.412E+00 3.244E+00 4.453E+04  7.6275 1.00000
  1.200E+05 1.201E+05 1.848E+00 6.869E-01 1.021E+00 3.655E-02 1.744E+00 3.592E+00 5.040E+04  7.9774 1.00000
  1.400E+05 1.401E+05 1.861E+00 8.189E-01 1.221E+00 4.250E-02 2.082E+00 3.943E+00 5.572E+04  8.2761 1.00000
  1.700E+05 1.701E+05 1.878E+00 1.020E+00 1.526E+00 5.142E-02 2.597E+00 4.475E+00 6.288E+04  8.6557 1.00000
  2.000E+05 2.001E+05 1.891E+00 1.225E+00 1.835E+00 6.037E-02 3.120E+00 5.011E+00 6.922E+04  8.9760 1.00000
  2.500E+05 2.501E+05 1.909E+00 1.573E+00 2.357E+00 7.531E-02 4.005E+00 5.914E+00 7.844E+04  9.4187 1.00000
  3.000E+05 3.001E+05 1.924E+00 1.925E+00 2.887E+00 9.034E-02 4.902E+00 6.826E+00 8.633E+04  9.7824 1.00000
  3.500E+05 3.501E+05 1.936E+00 2.283E+00 3.420E+00 1.055E-01 5.809E+00 7.745E+00 9.322E+04 10.0906 1.00000
  4.000E+05 4.001E+05 1.947E+00 2.644E+00 3.958E+00 1.208E-01 6.723E+00 8.669E+00 9.933E+04 10.3575 1.00000
  4.500E+05 4.501E+05 1.956E+00 3.007E+00 4.499E+00 1.361E-01 7.642E+00 9.599E+00 1.048E+05 10.5931 1.00000
  5.000E+05 5.001E+05 1.965E+00 3.374E+00 5.042E+00 1.516E-01 8.567E+00 1.053E+01 1.098E+05 10.8037 1.00000
  5.500E+05 5.501E+05 1.972E+00 3.742E+00 5.587E+00 1.669E-01 9.496E+00 1.147E+01 1.143E+05 10.9943 1.00000
  6.000E+05 6.001E+05 1.979E+00 4.113E+00 6.134E+00 1.823E-01 1.043E+01 1.241E+01 1.185E+05 11.1683 1.00000
  7.000E+05 7.001E+05 1.992E+00 4.858E+00 7.233E+00 2.133E-01 1.230E+01 1.430E+01 1.261E+05 11.4766 1.00000
  8.000E+05 8.001E+05 2.003E+00 5.608E+00 8.335E+00 2.447E-01 1.419E+01 1.619E+01 1.327E+05 11.7436 1.00000
  9.000E+05 9.001E+05 2.012E+00 6.363E+00 9.442E+00 2.763E-01 1.608E+01 1.809E+01 1.385E+05 11.9791 1.00000
  1.000E+06 1.000E+06 2.021E+00 7.122E+00 1.055E+01 3.083E-01 1.798E+01 2.000E+01 1.438E+05 12.1898 1.00000
  1.200E+06 1.200E+06 2.036E+00 8.647E+00 1.278E+01 3.729E-01 2.180E+01 2.383E+01 1.530E+05 12.5544 1.00000
  1.400E+06 1.400E+06 2.049E+00 1.018E+01 1.501E+01 4.384E-01 2.563E+01 2.768E+01 1.608E+05 12.8627 1.00000
  1.700E+06 1.700E+06 2.065E+00 1.250E+01 1.837E+01 5.382E-01 3.141E+01 3.347E+01 1.707E+05 13.2510 1.00000
  2.000E+06 2.000E+06 2.079E+00 1.482E+01 2.174E+01 6.396E-01 3.721E+01 3.929E+01 1.790E+05 13.5760 1.00000
  2.500E+06 2.500E+06 2.097E+00 1.872E+01 2.737E+01 8.116E-01 4.691E+01 4.900E+01 1.904E+05 14.0223 1.00000
  3.000E+06 3.000E+06 2.113E+00 2.264E+01 3.302E+01 9.868E-01 5.664E+01 5.875E+01 1.998E+05 14.3869 1.00000
  3.500E+06 3.500E+06 2.126E+00 2.657E+01 3.867E+01 1.165E+00 6.640E+01 6.853E+01 2.077E+05 14.6952 1.00000
  4.000E+06 4.000E+06 2.138E+00 3.050E+01 4.433E+01 1.346E+00 7.618E+01 7.832E+01 2.145E+05 14.9622 1.00000
  4.500E+06 4.500E+06 2.148E+00 3.445E+01 4.999E+01 1.528E+00 8.597E+01 8.812E+01 2.206E+05 15.1978 1.00000
  5.000E+06 5.000E+06 2.157E+00 3.840E+01 5.566E+01 1.713E+00 9.578E+01 9.794E+01 2.260E+05 15.4085 1.00000
  5.500E+06 5.500E+06 2.165E+00 4.236E+01 6.133E+01 1.900E+00 1.056E+02 1.078E+02 2.308E+05 15.5991 1.00000
  6.000E+06 6.000E+06 2.173E+00 4.632E+01 6.701E+01 2.088E+00 1.154E+02 1.176E+02 2.353E+05 15.7732 1.00000
  7.000E+06 7.000E+06 2.187E+00 5.426E+01 7.837E+01 2.470E+00 1.351E+02 1.373E+02 2.432E+05 16.0814 1.00000
  8.000E+06 8.000E+06 2.199E+00 6.221E+01 8.973E+01 2.857E+00 1.548E+02 1.570E+02 2.500E+05 16.3485 1.00000
  9.000E+06 9.000E+06 2.209E+00 7.017E+01 1.011E+02 3.250E+00 1.745E+02 1.767E+02 2.560E+05 16.5841 1.00000
  1.000E+07 1.000E+07 2.219E+00 7.813E+01 1.125E+02 3.646E+00 1.943E+02 1.965E+02 2.614E+05 16.7948 1.00000
  1.200E+07 1.200E+07 2.235E+00 9.408E+01 1.352E+02 4.453E+00 2.338E+02 2.360E+02 2.707E+05 17.1594 1.00000
  1.400E+07 1.400E+07 2.249E+00 1.100E+02 1.580E+02 5.273E+00 2.733E+02 2.756E+02 2.786E+05 17.4677 1.00000
  1.700E+07 1.700E+07 2.267E+00 1.340E+02 1.922E+02 6.527E+00 3.327E+02 3.350E+02 2.885E+05 17.8560 1.00000
  2.000E+07 2.000E+07 2.282E+00 1.580E+02 2.264E+02 7.804E+00 3.922E+02 3.945E+02 2.968E+05 18.1811 1.00000
  2.500E+07 2.500E+07 2.303E+00 1.981E+02 2.834E+02 9.979E+00 4.914E+02 4.937E+02 3.082E+05 18.6274 1.00000
  3.000E+07 3.000E+07 2.320E+00 2.381E+02 3.404E+02 1.220E+01 5.907E+02 5.930E+02 3.175E+05 18.9920 1.00000
  3.500E+07 3.500E+07 2.335E+00 2.782E+02 3.974E+02 1.447E+01 6.900E+02 6.924E+02 3.253E+05 19.3003 1.00000
  4.000E+07 4.000E+07 2.347E+00 3.183E+02 4.544E+02 1.677E+01 7.895E+02 7.918E+02 3.321E+05 19.5674 1.00000
  4.500E+07 4.500E+07 2.359E+00 3.584E+02 5.114E+02 1.910E+01 8.889E+02 8.913E+02 3.380E+05 19.8029 1.00000
  5.000E+07 5.000E+07 2.369E+00 3.985E+02 5.685E+02 2.146E+01 9.884E+02 9.908E+02 3.433E+05 20.0136 1.00000
  5.500E+07 5.500E+07 2.378E+00 4.386E+02 6.255E+02 2.385E+01 1.088E+03 1.090E+03 3.482E+05 20.2043 1.00000
  6.000E+07 6.000E+07 2.387E+00 4.788E+02 6.826E+02 2.626E+01 1.188E+03 1.190E+03 3.526E+05 20.3783 1.00000
  7.000E+07 7.000E+07 2.402E+00 5.590E+02 7.967E+02 3.115E+01 1.387E+03 1.389E+03 3.604E+05 20.6866 1.00000
  8.000E+07 8.000E+07 2.415E+00 6.393E+02 9.108E+02 3.612E+01 1.586E+03 1.589E+03 3.671E+05 20.9537 1.00000
  9.000E+07 9.000E+07 2.427E+00 7.196E+02 1.025E+03 4.116E+01 1.786E+03 1.788E+03 3.730E+05 21.1892 1.00000
  1.000E+08 1.000E+08 2.437E+00 7.999E+02 1.139E+03 4.626E+01 1.985E+03 1.988E+03 3.784E+05 21.3999 1.00000
  1.200E+08 1.200E+08 2.455E+00 9.606E+02 1.367E+03 5.664E+01 2.384E+03 2.387E+03 3.876E+05 21.7646 1.00000
  1.400E+08 1.400E+08 2.471E+00 1.121E+03 1.595E+03 6.721E+01 2.784E+03 2.786E+03 3.954E+05 22.0729 1.00000
  1.700E+08 1.700E+08 2.491E+00 1.362E+03 1.938E+03 8.339E+01 3.383E+03 3.386E+03 4.052E+05 22.4612 1.00000
  2.000E+08 2.000E+08 2.508E+00 1.603E+03 2.280E+03 9.990E+01 3.983E+03 3.986E+03 4.134E+05 22.7862 1.00000
  2.500E+08 2.500E+08 2.531E+00 2.005E+03 2.851E+03 1.280E+02 4.984E+03 4.986E+03 4.247E+05 23.2325 1.00000
  3.000E+08 3.000E+08 2.550E+00 2.407E+03 3.421E+03 1.569E+02 5.985E+03 5.988E+03 4.338E+05 23.5972 1.00000
  3.500E+08 3.500E+08 2.566E+00 2.809E+03 3.992E+03 1.862E+02 6.987E+03 6.990E+03 4.416E+05 23.9055 1.00000
  4.000E+08 4.000E+08 2.581E+00 3.210E+03 4.563E+03 2.161E+02 7.989E+03 7.992E+03 4.483E+05 24.1725 1.00000
  4.500E+08 4.500E+08 2.593E+00 3.612E+03 5.133E+03 2.464E+02 8.992E+03 8.995E+03 4.542E+05 24.4081 1.00000
  5.000E+08 5.000E+08 2.605E+00 4.014E+03 5.704E+03 2.771E+02 9.995E+03 9.998E+03 4.595E+05 24.6188 1.00000
  5.500E+08 5.500E+08 2.615E+00 4.416E+03 6.275E+03 3.081E+02 1.100E+04 1.100E+04 4.643E+05 24.8094 1.00000
  6.000E+08 6.000E+08 2.624E+00 4.818E+03 6.845E+03 3.395E+02 1.200E+04 1.201E+04 4.686E+05 24.9835 1.00000
  7.000E+08 7.000E+08 2.641E+00 5.622E+03 7.986E+03 4.032E+02 1.401E+04 1.401E+04 4.763E+05 25.2918 1.00000
  8.000E+08 8.000E+08 2.656E+00 6.425E+03 9.127E+03 4.680E+02 1.602E+04 1.602E+04 4.830E+05 25.5588 1.00000
  9.000E+08 9.000E+08 2.669E+00 7.229E+03 1.027E+04 5.338E+02 1.803E+04 1.803E+04 4.889E+05 25.7944 1.00000
  1.000E+09 1.000E+09 2.681E+00 8.033E+03 1.141E+04 6.004E+02 2.004E+04 2.005E+04 4.942E+05 26.0051 1.00000
