 Incident particle is a Muon with M = 105.65839 MeV
 Index = 0: UraniumDicarbide
      Absorber with <Z/A> = 0.39687
 Sternheimer coef:  a     k=m_s   x_0    x_1    I[eV]   Cbar  delta0
                 0.2112  2.6577  0.2191  3.5208  752.0  6.0247 0.00

 *** Table generated with PUMAS v1.00 ***

      T         p     Ionization  brems     pair     photonuc  Radloss    dE/dx   CSDA Range  delta   beta
    [MeV]    [MeV/c]  -----------------------[MeV cm^2/g]------------------------  [g/cm^2]
  1.000E+00 1.457E+01 2.108E+01 5.539E-06 0.000E+00 0.000E+00 5.539E-06 2.108E+01 2.372E-02  0.0000 0.13661
  1.200E+00 1.597E+01 1.860E+01 6.358E-06 0.000E+00 0.000E+00 6.358E-06 1.860E+01 3.384E-02  0.0000 0.14944
  1.400E+00 1.726E+01 1.670E+01 7.134E-06 0.000E+00 0.000E+00 7.134E-06 1.670E+01 4.520E-02  0.0000 0.16119
  1.700E+00 1.903E+01 1.455E+01 8.228E-06 0.000E+00 0.000E+00 8.228E-06 1.455E+01 6.450E-02  0.0000 0.17725
  2.000E+00 2.066E+01 1.294E+01 9.254E-06 0.000E+00 0.000E+00 9.254E-06 1.294E+01 8.640E-02  0.0000 0.19186
  2.500E+00 2.312E+01 1.100E+01 1.084E-05 0.000E+00 0.000E+00 1.084E-05 1.100E+01 1.284E-01  0.0000 0.21376
  3.000E+00 2.536E+01 9.625E+00 1.231E-05 0.000E+00 0.000E+00 1.231E-05 9.625E+00 1.771E-01  0.0000 0.23336
  3.500E+00 2.742E+01 8.592E+00 1.367E-05 0.000E+00 0.000E+00 1.367E-05 8.592E+00 2.322E-01  0.0000 0.25120
  4.000E+00 2.935E+01 7.786E+00 1.495E-05 0.000E+00 0.000E+00 1.495E-05 7.786E+00 2.934E-01  0.0000 0.26763
  4.500E+00 3.116E+01 7.138E+00 1.616E-05 0.000E+00 0.000E+00 1.616E-05 7.138E+00 3.606E-01  0.0000 0.28290
  5.000E+00 3.289E+01 6.605E+00 1.732E-05 0.000E+00 0.000E+00 1.732E-05 6.605E+00 4.334E-01  0.0000 0.29720
  5.500E+00 3.453E+01 6.158E+00 1.841E-05 0.000E+00 0.000E+00 1.841E-05 6.158E+00 5.119E-01  0.0000 0.31066
  6.000E+00 3.611E+01 5.777E+00 1.947E-05 0.000E+00 0.000E+00 1.947E-05 5.777E+00 5.958E-01  0.0000 0.32339
  7.000E+00 3.909E+01 5.162E+00 2.145E-05 0.000E+00 0.000E+00 2.145E-05 5.162E+00 7.792E-01  0.0000 0.34700
  8.000E+00 4.189E+01 4.687E+00 2.330E-05 0.000E+00 0.000E+00 2.330E-05 4.687E+00 9.827E-01  0.0000 0.36854
  9.000E+00 4.453E+01 4.307E+00 2.503E-05 0.000E+00 0.000E+00 2.503E-05 4.307E+00 1.205E+00  0.0000 0.38836
  1.000E+01 4.704E+01 3.996E+00 2.667E-05 0.000E+00 0.000E+00 2.667E-05 3.997E+00 1.447E+00  0.0000 0.40675
  1.200E+01 5.177E+01 3.518E+00 2.973E-05 0.000E+00 0.000E+00 2.973E-05 3.518E+00 1.981E+00  0.0000 0.43998
  1.400E+01 5.616E+01 3.167E+00 3.255E-05 0.000E+00 0.000E+00 3.255E-05 3.167E+00 2.581E+00  0.0000 0.46937
  1.700E+01 6.230E+01 2.784E+00 3.645E-05 0.000E+00 0.000E+00 3.645E-05 2.785E+00 3.593E+00  0.0000 0.50792
  2.000E+01 6.802E+01 2.510E+00 4.007E-05 0.000E+00 0.000E+00 4.007E-05 2.510E+00 4.730E+00  0.0000 0.54129
  2.500E+01 7.686E+01 2.193E+00 4.566E-05 0.000E+00 0.000E+00 4.566E-05 2.193E+00 6.866E+00  0.0000 0.58827
  3.000E+01 8.509E+01 1.977E+00 5.089E-05 0.000E+00 0.000E+00 5.089E-05 1.977E+00 9.270E+00  0.0000 0.62720
  3.500E+01 9.285E+01 1.822E+00 5.591E-05 0.000E+00 0.000E+00 5.591E-05 1.822E+00 1.191E+01  0.0000 0.66011
  4.000E+01 1.003E+02 1.705E+00 6.080E-05 0.000E+00 0.000E+00 6.080E-05 1.705E+00 1.475E+01  0.0000 0.68834
  4.500E+01 1.074E+02 1.615E+00 6.560E-05 0.000E+00 0.000E+00 6.560E-05 1.615E+00 1.776E+01  0.0000 0.71286
  5.000E+01 1.143E+02 1.543E+00 7.036E-05 0.000E+00 0.000E+00 7.036E-05 1.543E+00 2.093E+01  0.0000 0.73434
  5.500E+01 1.210E+02 1.484E+00 7.510E-05 0.000E+00 0.000E+00 7.510E-05 1.484E+00 2.423E+01  0.0000 0.75332
  6.000E+01 1.276E+02 1.436E+00 7.984E-05 0.000E+00 0.000E+00 7.984E-05 1.436E+00 2.766E+01  0.0000 0.77019
  7.000E+01 1.403E+02 1.363E+00 8.938E-05 0.000E+00 0.000E+00 8.938E-05 1.363E+00 3.481E+01  0.0000 0.79887
  8.000E+01 1.527E+02 1.310E+00 9.905E-05 0.000E+00 0.000E+00 9.905E-05 1.310E+00 4.229E+01  0.0000 0.82227
  9.000E+01 1.647E+02 1.271E+00 1.089E-04 0.000E+00 0.000E+00 1.089E-04 1.271E+00 5.004E+01  0.0000 0.84166
  1.000E+02 1.764E+02 1.238E+00 1.189E-04 0.000E+00 0.000E+00 1.189E-04 1.238E+00 5.802E+01  0.0368 0.85794
  1.200E+02 1.994E+02 1.196E+00 1.396E-04 0.000E+00 0.000E+00 1.396E-04 1.196E+00 7.445E+01  0.0688 0.88361
  1.400E+02 2.218E+02 1.170E+00 1.612E-04 0.000E+00 0.000E+00 1.612E-04 1.170E+00 9.136E+01  0.1012 0.90278
  1.700E+02 2.546E+02 1.148E+00 1.952E-04 3.580E-15 0.000E+00 1.952E-04 1.148E+00 1.172E+02  0.1496 0.92363
  2.000E+02 2.868E+02 1.138E+00 2.311E-04 7.995E-13 0.000E+00 2.311E-04 1.138E+00 1.435E+02  0.1970 0.93835
  2.500E+02 3.396E+02 1.135E+00 2.949E-04 6.607E-09 0.000E+00 2.949E-04 1.135E+00 1.875E+02  0.2733 0.95485
  3.000E+02 3.917E+02 1.140E+00 3.633E-04 5.798E-08 0.000E+00 3.634E-04 1.140E+00 2.314E+02  0.3458 0.96548
  3.500E+02 4.432E+02 1.148E+00 4.360E-04 1.591E-07 0.000E+00 4.361E-04 1.149E+00 2.751E+02  0.4145 0.97274
  4.000E+02 4.945E+02 1.158E+00 5.125E-04 3.075E-07 0.000E+00 5.128E-04 1.159E+00 3.185E+02  0.4798 0.97793
  4.500E+02 5.455E+02 1.169E+00 5.925E-04 5.015E-07 0.000E+00 5.930E-04 1.170E+00 3.614E+02  0.5420 0.98176
  5.000E+02 5.964E+02 1.180E+00 6.760E-04 5.037E-05 0.000E+00 7.263E-04 1.181E+00 4.039E+02  0.6013 0.98467
  5.500E+02 6.471E+02 1.191E+00 7.625E-04 1.074E-04 0.000E+00 8.699E-04 1.192E+00 4.461E+02  0.6580 0.98693
  6.000E+02 6.977E+02 1.202E+00 8.520E-04 1.460E-04 0.000E+00 9.979E-04 1.203E+00 4.878E+02  0.7124 0.98873
  7.000E+02 7.987E+02 1.221E+00 1.039E-03 2.327E-04 0.000E+00 1.272E-03 1.223E+00 5.703E+02  0.8147 0.99136
  8.000E+02 8.995E+02 1.240E+00 1.236E-03 3.362E-04 0.000E+00 1.572E-03 1.241E+00 6.515E+02  0.9097 0.99317
  9.000E+02 1.000E+03 1.257E+00 1.442E-03 4.558E-04 0.000E+00 1.898E-03 1.259E+00 7.315E+02  0.9983 0.99447
  1.000E+03 1.101E+03 1.272E+00 1.656E-03 5.906E-04 0.000E+00 2.247E-03 1.274E+00 8.104E+02  1.0816 0.99542
  1.200E+03 1.301E+03 1.300E+00 2.107E-03 9.020E-04 2.245E-05 3.032E-03 1.303E+00 9.657E+02  1.2342 0.99672
  1.400E+03 1.502E+03 1.324E+00 2.584E-03 1.265E-03 6.088E-05 3.910E-03 1.328E+00 1.118E+03  1.3718 0.99753
  1.700E+03 1.803E+03 1.354E+00 3.343E-03 1.893E-03 1.289E-04 5.365E-03 1.359E+00 1.341E+03  1.5562 0.99829
  2.000E+03 2.103E+03 1.380E+00 4.146E-03 2.612E-03 2.079E-04 6.966E-03 1.387E+00 1.560E+03  1.7198 0.99874
  2.500E+03 2.604E+03 1.415E+00 5.568E-03 3.983E-03 3.587E-04 9.910E-03 1.425E+00 1.915E+03  1.9580 0.99918
  3.000E+03 3.104E+03 1.443E+00 7.079E-03 5.539E-03 5.147E-04 1.313E-02 1.456E+00 2.262E+03  2.1640 0.99942
  3.500E+03 3.604E+03 1.467E+00 8.665E-03 7.254E-03 6.781E-04 1.660E-02 1.483E+00 2.603E+03  2.3460 0.99957
  4.000E+03 4.104E+03 1.487E+00 1.032E-02 9.117E-03 8.514E-04 2.028E-02 1.507E+00 2.937E+03  2.5092 0.99967
  4.500E+03 4.604E+03 1.505E+00 1.202E-02 1.111E-02 1.030E-03 2.416E-02 1.529E+00 3.267E+03  2.6575 0.99974
  5.000E+03 5.105E+03 1.520E+00 1.378E-02 1.321E-02 1.201E-03 2.819E-02 1.548E+00 3.592E+03  2.7935 0.99979
  5.500E+03 5.605E+03 1.534E+00 1.559E-02 1.541E-02 1.385E-03 3.239E-02 1.566E+00 3.913E+03  2.9191 0.99982
  6.000E+03 6.105E+03 1.547E+00 1.744E-02 1.771E-02 1.555E-03 3.670E-02 1.583E+00 4.230E+03  3.0360 0.99985
  7.000E+03 7.105E+03 1.568E+00 2.124E-02 2.254E-02 1.915E-03 4.570E-02 1.614E+00 4.856E+03  3.2480 0.99989
  8.000E+03 8.105E+03 1.587E+00 2.519E-02 2.767E-02 2.271E-03 5.512E-02 1.642E+00 5.470E+03  3.4367 0.99992
  9.000E+03 9.105E+03 1.603E+00 2.925E-02 3.304E-02 2.603E-03 6.489E-02 1.668E+00 6.074E+03  3.6069 0.99993
  1.000E+04 1.011E+04 1.617E+00 3.341E-02 3.864E-02 2.945E-03 7.499E-02 1.692E+00 6.670E+03  3.7620 0.99995
  1.200E+04 1.211E+04 1.641E+00 4.200E-02 5.042E-02 3.635E-03 9.606E-02 1.737E+00 7.836E+03  4.0369 0.99996
  1.400E+04 1.411E+04 1.660E+00 5.091E-02 6.285E-02 4.324E-03 1.181E-01 1.778E+00 8.974E+03  4.2754 0.99997
  1.700E+04 1.711E+04 1.684E+00 6.475E-02 8.250E-02 5.338E-03 1.526E-01 1.837E+00 1.063E+04  4.5834 0.99998
  2.000E+04 2.011E+04 1.703E+00 7.908E-02 1.031E-01 6.329E-03 1.886E-01 1.892E+00 1.224E+04  4.8476 0.99999
  2.500E+04 2.511E+04 1.729E+00 1.038E-01 1.393E-01 7.947E-03 2.511E-01 1.980E+00 1.483E+04  5.2192 0.99999
  3.000E+04 3.011E+04 1.749E+00 1.295E-01 1.772E-01 9.529E-03 3.162E-01 2.065E+00 1.730E+04  5.5301 0.99999
  3.500E+04 3.511E+04 1.765E+00 1.558E-01 2.165E-01 1.112E-02 3.834E-01 2.149E+00 1.967E+04  5.7979 1.00000
  4.000E+04 4.011E+04 1.779E+00 1.828E-01 2.569E-01 1.269E-02 4.524E-01 2.232E+00 2.196E+04  6.0334 1.00000
  4.500E+04 4.511E+04 1.791E+00 2.103E-01 2.983E-01 1.424E-02 5.228E-01 2.314E+00 2.416E+04  6.2436 1.00000
  5.000E+04 5.011E+04 1.802E+00 2.382E-01 3.404E-01 1.578E-02 5.944E-01 2.396E+00 2.628E+04  6.4336 1.00000
  5.500E+04 5.511E+04 1.811E+00 2.666E-01 3.833E-01 1.733E-02 6.672E-01 2.478E+00 2.834E+04  6.6070 1.00000
  6.000E+04 6.011E+04 1.819E+00 2.953E-01 4.268E-01 1.886E-02 7.409E-01 2.560E+00 3.032E+04  6.7665 1.00000
  7.000E+04 7.011E+04 1.834E+00 3.537E-01 5.153E-01 2.190E-02 8.908E-01 2.725E+00 3.411E+04  7.0519 1.00000
  8.000E+04 8.011E+04 1.846E+00 4.131E-01 6.055E-01 2.493E-02 1.044E+00 2.890E+00 3.767E+04  7.3019 1.00000
  9.000E+04 9.011E+04 1.857E+00 4.735E-01 6.973E-01 2.797E-02 1.199E+00 3.056E+00 4.104E+04  7.5243 1.00000
  1.000E+05 1.001E+05 1.866E+00 5.347E-01 7.902E-01 3.094E-02 1.356E+00 3.222E+00 4.423E+04  7.7248 1.00000
  1.200E+05 1.201E+05 1.882E+00 6.591E-01 9.790E-01 3.698E-02 1.675E+00 3.557E+00 5.014E+04  8.0748 1.00000
  1.400E+05 1.401E+05 1.895E+00 7.858E-01 1.171E+00 4.301E-02 2.000E+00 3.895E+00 5.552E+04  8.3735 1.00000
  1.700E+05 1.701E+05 1.912E+00 9.791E-01 1.464E+00 5.205E-02 2.495E+00 4.407E+00 6.278E+04  8.7529 1.00000
  2.000E+05 2.001E+05 1.925E+00 1.176E+00 1.760E+00 6.113E-02 2.997E+00 4.923E+00 6.923E+04  9.0730 1.00000
  2.500E+05 2.501E+05 1.944E+00 1.509E+00 2.262E+00 7.627E-02 3.847E+00 5.791E+00 7.862E+04  9.5154 1.00000
  3.000E+05 3.001E+05 1.959E+00 1.848E+00 2.769E+00 9.151E-02 4.709E+00 6.667E+00 8.669E+04  9.8788 1.00000
  3.500E+05 3.501E+05 1.971E+00 2.191E+00 3.282E+00 1.069E-01 5.580E+00 7.551E+00 9.375E+04 10.1869 1.00000
  4.000E+05 4.001E+05 1.982E+00 2.537E+00 3.798E+00 1.224E-01 6.457E+00 8.439E+00 1.000E+05 10.4538 1.00000
  4.500E+05 4.501E+05 1.992E+00 2.886E+00 4.317E+00 1.379E-01 7.341E+00 9.333E+00 1.057E+05 10.6894 1.00000
  5.000E+05 5.001E+05 2.000E+00 3.238E+00 4.838E+00 1.536E-01 8.230E+00 1.023E+01 1.108E+05 10.9000 1.00000
  5.500E+05 5.501E+05 2.008E+00 3.592E+00 5.361E+00 1.691E-01 9.122E+00 1.113E+01 1.155E+05 11.0906 1.00000
  6.000E+05 6.001E+05 2.015E+00 3.947E+00 5.886E+00 1.848E-01 1.002E+01 1.203E+01 1.198E+05 11.2646 1.00000
  7.000E+05 7.001E+05 2.028E+00 4.662E+00 6.940E+00 2.163E-01 1.182E+01 1.385E+01 1.276E+05 11.5729 1.00000
  8.000E+05 8.001E+05 2.039E+00 5.383E+00 7.999E+00 2.481E-01 1.363E+01 1.567E+01 1.344E+05 11.8399 1.00000
  9.000E+05 9.001E+05 2.049E+00 6.107E+00 9.061E+00 2.802E-01 1.545E+01 1.750E+01 1.404E+05 12.0754 1.00000
  1.000E+06 1.000E+06 2.057E+00 6.835E+00 1.013E+01 3.126E-01 1.727E+01 1.933E+01 1.459E+05 12.2861 1.00000
  1.200E+06 1.200E+06 2.072E+00 8.300E+00 1.226E+01 3.782E-01 2.094E+01 2.301E+01 1.554E+05 12.6507 1.00000
  1.400E+06 1.400E+06 2.085E+00 9.773E+00 1.441E+01 4.447E-01 2.462E+01 2.671E+01 1.635E+05 12.9590 1.00000
  1.700E+06 1.700E+06 2.102E+00 1.200E+01 1.763E+01 5.459E-01 3.017E+01 3.228E+01 1.737E+05 13.3473 1.00000
  2.000E+06 2.000E+06 2.116E+00 1.423E+01 2.087E+01 6.488E-01 3.575E+01 3.786E+01 1.823E+05 13.6723 1.00000
  2.500E+06 2.500E+06 2.135E+00 1.797E+01 2.627E+01 8.233E-01 4.507E+01 4.720E+01 1.942E+05 14.1186 1.00000
  3.000E+06 3.000E+06 2.150E+00 2.173E+01 3.169E+01 1.001E+00 5.442E+01 5.657E+01 2.040E+05 14.4832 1.00000
  3.500E+06 3.500E+06 2.164E+00 2.550E+01 3.712E+01 1.182E+00 6.380E+01 6.596E+01 2.122E+05 14.7915 1.00000
  4.000E+06 4.000E+06 2.175E+00 2.928E+01 4.255E+01 1.365E+00 7.319E+01 7.537E+01 2.193E+05 15.0585 1.00000
  4.500E+06 4.500E+06 2.186E+00 3.307E+01 4.798E+01 1.551E+00 8.261E+01 8.479E+01 2.255E+05 15.2941 1.00000
  5.000E+06 5.000E+06 2.195E+00 3.687E+01 5.343E+01 1.738E+00 9.203E+01 9.422E+01 2.311E+05 15.5048 1.00000
  5.500E+06 5.500E+06 2.203E+00 4.067E+01 5.887E+01 1.928E+00 1.015E+02 1.037E+02 2.362E+05 15.6954 1.00000
  6.000E+06 6.000E+06 2.211E+00 4.447E+01 6.432E+01 2.119E+00 1.109E+02 1.131E+02 2.408E+05 15.8695 1.00000
  7.000E+06 7.000E+06 2.225E+00 5.209E+01 7.522E+01 2.506E+00 1.298E+02 1.320E+02 2.490E+05 16.1777 1.00000
  8.000E+06 8.000E+06 2.237E+00 5.972E+01 8.613E+01 2.899E+00 1.487E+02 1.510E+02 2.561E+05 16.4448 1.00000
  9.000E+06 9.000E+06 2.248E+00 6.736E+01 9.704E+01 3.298E+00 1.677E+02 1.699E+02 2.624E+05 16.6804 1.00000
  1.000E+07 1.000E+07 2.257E+00 7.501E+01 1.080E+02 3.700E+00 1.867E+02 1.889E+02 2.680E+05 16.8911 1.00000
  1.200E+07 1.200E+07 2.274E+00 9.032E+01 1.298E+02 4.518E+00 2.246E+02 2.269E+02 2.777E+05 17.2557 1.00000
  1.400E+07 1.400E+07 2.288E+00 1.057E+02 1.517E+02 5.351E+00 2.627E+02 2.650E+02 2.859E+05 17.5640 1.00000
  1.700E+07 1.700E+07 2.306E+00 1.287E+02 1.845E+02 6.624E+00 3.198E+02 3.221E+02 2.962E+05 17.9523 1.00000
  2.000E+07 2.000E+07 2.321E+00 1.517E+02 2.173E+02 7.920E+00 3.769E+02 3.792E+02 3.048E+05 18.2774 1.00000
  2.500E+07 2.500E+07 2.342E+00 1.901E+02 2.720E+02 1.013E+01 4.723E+02 4.746E+02 3.166E+05 18.7237 1.00000
  3.000E+07 3.000E+07 2.360E+00 2.286E+02 3.267E+02 1.238E+01 5.677E+02 5.701E+02 3.263E+05 19.0883 1.00000
  3.500E+07 3.500E+07 2.375E+00 2.671E+02 3.814E+02 1.468E+01 6.632E+02 6.656E+02 3.344E+05 19.3966 1.00000
  4.000E+07 4.000E+07 2.388E+00 3.056E+02 4.362E+02 1.702E+01 7.588E+02 7.612E+02 3.415E+05 19.6637 1.00000
  4.500E+07 4.500E+07 2.399E+00 3.441E+02 4.909E+02 1.938E+01 8.544E+02 8.568E+02 3.477E+05 19.8992 1.00000
  5.000E+07 5.000E+07 2.409E+00 3.826E+02 5.457E+02 2.178E+01 9.501E+02 9.525E+02 3.532E+05 20.1099 1.00000
  5.500E+07 5.500E+07 2.419E+00 4.211E+02 6.004E+02 2.420E+01 1.046E+03 1.048E+03 3.582E+05 20.3006 1.00000
  6.000E+07 6.000E+07 2.427E+00 4.597E+02 6.552E+02 2.665E+01 1.141E+03 1.144E+03 3.628E+05 20.4746 1.00000
  7.000E+07 7.000E+07 2.443E+00 5.367E+02 7.647E+02 3.161E+01 1.333E+03 1.336E+03 3.709E+05 20.7829 1.00000
  8.000E+07 8.000E+07 2.456E+00 6.138E+02 8.742E+02 3.666E+01 1.525E+03 1.527E+03 3.779E+05 21.0500 1.00000
  9.000E+07 9.000E+07 2.468E+00 6.909E+02 9.838E+02 4.177E+01 1.716E+03 1.719E+03 3.841E+05 21.2855 1.00000
  1.000E+08 1.000E+08 2.479E+00 7.680E+02 1.093E+03 4.695E+01 1.908E+03 1.911E+03 3.896E+05 21.4962 1.00000
  1.200E+08 1.200E+08 2.497E+00 9.223E+02 1.312E+03 5.748E+01 2.292E+03 2.295E+03 3.992E+05 21.8609 1.00000
  1.400E+08 1.400E+08 2.513E+00 1.077E+03 1.532E+03 6.821E+01 2.676E+03 2.679E+03 4.073E+05 22.1692 1.00000
  1.700E+08 1.700E+08 2.533E+00 1.308E+03 1.860E+03 8.464E+01 3.253E+03 3.255E+03 4.175E+05 22.5575 1.00000
  2.000E+08 2.000E+08 2.550E+00 1.539E+03 2.189E+03 1.014E+02 3.830E+03 3.832E+03 4.261E+05 22.8825 1.00000
  2.500E+08 2.500E+08 2.574E+00 1.925E+03 2.737E+03 1.300E+02 4.792E+03 4.794E+03 4.378E+05 23.3288 1.00000
  3.000E+08 3.000E+08 2.593E+00 2.311E+03 3.284E+03 1.592E+02 5.754E+03 5.757E+03 4.474E+05 23.6935 1.00000
  3.500E+08 3.500E+08 2.609E+00 2.697E+03 3.832E+03 1.890E+02 6.718E+03 6.720E+03 4.554E+05 24.0018 1.00000
  4.000E+08 4.000E+08 2.624E+00 3.083E+03 4.380E+03 2.193E+02 7.682E+03 7.684E+03 4.624E+05 24.2688 1.00000
  4.500E+08 4.500E+08 2.637E+00 3.468E+03 4.928E+03 2.501E+02 8.646E+03 8.649E+03 4.685E+05 24.5044 1.00000
  5.000E+08 5.000E+08 2.648E+00 3.854E+03 5.475E+03 2.812E+02 9.611E+03 9.613E+03 4.740E+05 24.7151 1.00000
  5.500E+08 5.500E+08 2.659E+00 4.240E+03 6.023E+03 3.127E+02 1.058E+04 1.058E+04 4.790E+05 24.9057 1.00000
  6.000E+08 6.000E+08 2.668E+00 4.626E+03 6.571E+03 3.446E+02 1.154E+04 1.154E+04 4.835E+05 25.0798 1.00000
  7.000E+08 7.000E+08 2.685E+00 5.398E+03 7.666E+03 4.093E+02 1.347E+04 1.348E+04 4.916E+05 25.3881 1.00000
  8.000E+08 8.000E+08 2.700E+00 6.169E+03 8.762E+03 4.750E+02 1.541E+04 1.541E+04 4.985E+05 25.6551 1.00000
  9.000E+08 9.000E+08 2.714E+00 6.941E+03 9.857E+03 5.417E+02 1.734E+04 1.734E+04 5.046E+05 25.8907 1.00000
  1.000E+09 1.000E+09 2.725E+00 7.713E+03 1.095E+04 6.093E+02 1.927E+04 1.928E+04 5.101E+05 26.1014 1.00000
