 Incident particle is a Muon with M = 105.65839 MeV
 Index = 0: UraniumOxide
      Absorber with <Z/A> = 0.39996
 Sternheimer coef:  a     k=m_s   x_0    x_1    I[eV]   Cbar  delta0
                 0.2046  2.6711  0.1938  3.5292  720.6  5.9605 0.00

 *** Table generated with PUMAS v1.00 ***

      T         p     Ionization  brems     pair     photonuc  Radloss    dE/dx   CSDA Range  delta   beta
    [MeV]    [MeV/c]  -----------------------[MeV cm^2/g]------------------------  [g/cm^2]
  1.000E+00 1.457E+01 2.153E+01 5.418E-06 0.000E+00 0.000E+00 5.418E-06 2.153E+01 2.323E-02  0.0000 0.13661
  1.200E+00 1.597E+01 1.898E+01 6.219E-06 0.000E+00 0.000E+00 6.219E-06 1.898E+01 3.314E-02  0.0000 0.14944
  1.400E+00 1.726E+01 1.703E+01 6.977E-06 0.000E+00 0.000E+00 6.977E-06 1.703E+01 4.428E-02  0.0000 0.16119
  1.700E+00 1.903E+01 1.483E+01 8.048E-06 0.000E+00 0.000E+00 8.048E-06 1.483E+01 6.321E-02  0.0000 0.17725
  2.000E+00 2.066E+01 1.318E+01 9.052E-06 0.000E+00 0.000E+00 9.052E-06 1.318E+01 8.470E-02  0.0000 0.19186
  2.500E+00 2.312E+01 1.120E+01 1.061E-05 0.000E+00 0.000E+00 1.061E-05 1.120E+01 1.260E-01  0.0000 0.21376
  3.000E+00 2.536E+01 9.796E+00 1.204E-05 0.000E+00 0.000E+00 1.204E-05 9.796E+00 1.738E-01  0.0000 0.23336
  3.500E+00 2.742E+01 8.742E+00 1.337E-05 0.000E+00 0.000E+00 1.337E-05 8.742E+00 2.279E-01  0.0000 0.25120
  4.000E+00 2.935E+01 7.920E+00 1.463E-05 0.000E+00 0.000E+00 1.463E-05 7.920E+00 2.881E-01  0.0000 0.26763
  4.500E+00 3.116E+01 7.259E+00 1.581E-05 0.000E+00 0.000E+00 1.581E-05 7.259E+00 3.541E-01  0.0000 0.28290
  5.000E+00 3.289E+01 6.716E+00 1.694E-05 0.000E+00 0.000E+00 1.694E-05 6.716E+00 4.258E-01  0.0000 0.29720
  5.500E+00 3.453E+01 6.260E+00 1.802E-05 0.000E+00 0.000E+00 1.802E-05 6.260E+00 5.029E-01  0.0000 0.31066
  6.000E+00 3.611E+01 5.872E+00 1.905E-05 0.000E+00 0.000E+00 1.905E-05 5.872E+00 5.855E-01  0.0000 0.32339
  7.000E+00 3.909E+01 5.246E+00 2.099E-05 0.000E+00 0.000E+00 2.099E-05 5.246E+00 7.659E-01  0.0000 0.34700
  8.000E+00 4.189E+01 4.762E+00 2.279E-05 0.000E+00 0.000E+00 2.279E-05 4.762E+00 9.662E-01  0.0000 0.36854
  9.000E+00 4.453E+01 4.375E+00 2.449E-05 0.000E+00 0.000E+00 2.449E-05 4.375E+00 1.186E+00  0.0000 0.38836
  1.000E+01 4.704E+01 4.059E+00 2.610E-05 0.000E+00 0.000E+00 2.610E-05 4.059E+00 1.423E+00  0.0000 0.40675
  1.200E+01 5.177E+01 3.573E+00 2.910E-05 0.000E+00 0.000E+00 2.910E-05 3.573E+00 1.949E+00  0.0000 0.43998
  1.400E+01 5.616E+01 3.215E+00 3.186E-05 0.000E+00 0.000E+00 3.186E-05 3.215E+00 2.540E+00  0.0000 0.46937
  1.700E+01 6.230E+01 2.826E+00 3.568E-05 0.000E+00 0.000E+00 3.568E-05 2.827E+00 3.537E+00  0.0000 0.50792
  2.000E+01 6.802E+01 2.548E+00 3.922E-05 0.000E+00 0.000E+00 3.922E-05 2.548E+00 4.657E+00  0.0000 0.54129
  2.500E+01 7.686E+01 2.225E+00 4.470E-05 0.000E+00 0.000E+00 4.470E-05 2.225E+00 6.762E+00  0.0000 0.58827
  3.000E+01 8.509E+01 2.006E+00 4.983E-05 0.000E+00 0.000E+00 4.983E-05 2.006E+00 9.132E+00  0.0000 0.62720
  3.500E+01 9.285E+01 1.848E+00 5.474E-05 0.000E+00 0.000E+00 5.474E-05 1.848E+00 1.173E+01  0.0000 0.66011
  4.000E+01 1.003E+02 1.729E+00 5.952E-05 0.000E+00 0.000E+00 5.952E-05 1.730E+00 1.453E+01  0.0000 0.68834
  4.500E+01 1.074E+02 1.637E+00 6.423E-05 0.000E+00 0.000E+00 6.423E-05 1.638E+00 1.750E+01  0.0000 0.71286
  5.000E+01 1.143E+02 1.564E+00 6.889E-05 0.000E+00 0.000E+00 6.889E-05 1.564E+00 2.063E+01  0.0000 0.73434
  5.500E+01 1.210E+02 1.505E+00 7.353E-05 0.000E+00 0.000E+00 7.353E-05 1.505E+00 2.388E+01  0.0000 0.75332
  6.000E+01 1.276E+02 1.456E+00 7.818E-05 0.000E+00 0.000E+00 7.818E-05 1.456E+00 2.726E+01  0.0000 0.77019
  7.000E+01 1.403E+02 1.382E+00 8.752E-05 0.000E+00 0.000E+00 8.752E-05 1.382E+00 3.431E+01  0.0000 0.79887
  8.000E+01 1.527E+02 1.328E+00 9.699E-05 0.000E+00 0.000E+00 9.699E-05 1.328E+00 4.170E+01  0.0000 0.82227
  9.000E+01 1.647E+02 1.288E+00 1.066E-04 0.000E+00 0.000E+00 1.066E-04 1.288E+00 4.935E+01  0.0000 0.84166
  1.000E+02 1.764E+02 1.253E+00 1.165E-04 0.000E+00 0.000E+00 1.165E-04 1.253E+00 5.722E+01  0.0561 0.85794
  1.200E+02 1.994E+02 1.210E+00 1.367E-04 0.000E+00 0.000E+00 1.367E-04 1.210E+00 7.346E+01  0.0894 0.88361
  1.400E+02 2.218E+02 1.184E+00 1.579E-04 0.000E+00 0.000E+00 1.579E-04 1.184E+00 9.017E+01  0.1230 0.90278
  1.700E+02 2.546E+02 1.161E+00 1.911E-04 5.990E-15 0.000E+00 1.911E-04 1.162E+00 1.158E+02  0.1730 0.92363
  2.000E+02 2.868E+02 1.151E+00 2.263E-04 1.339E-12 0.000E+00 2.263E-04 1.151E+00 1.417E+02  0.2218 0.93835
  2.500E+02 3.396E+02 1.148E+00 2.888E-04 1.100E-08 0.000E+00 2.888E-04 1.148E+00 1.852E+02  0.2999 0.95485
  3.000E+02 3.917E+02 1.152E+00 3.557E-04 9.840E-08 0.000E+00 3.558E-04 1.153E+00 2.286E+02  0.3739 0.96548
  3.500E+02 4.432E+02 1.161E+00 4.268E-04 2.712E-07 0.000E+00 4.271E-04 1.161E+00 2.719E+02  0.4440 0.97274
  4.000E+02 4.945E+02 1.171E+00 5.017E-04 5.256E-07 0.000E+00 5.022E-04 1.172E+00 3.147E+02  0.5105 0.97793
  4.500E+02 5.455E+02 1.182E+00 5.800E-04 8.586E-07 0.000E+00 5.809E-04 1.182E+00 3.572E+02  0.5737 0.98176
  5.000E+02 5.964E+02 1.193E+00 6.617E-04 4.943E-05 0.000E+00 7.111E-04 1.193E+00 3.993E+02  0.6340 0.98467
  5.500E+02 6.471E+02 1.204E+00 7.464E-04 1.050E-04 0.000E+00 8.514E-04 1.204E+00 4.410E+02  0.6916 0.98693
  6.000E+02 6.977E+02 1.214E+00 8.339E-04 1.426E-04 0.000E+00 9.766E-04 1.215E+00 4.823E+02  0.7467 0.98873
  7.000E+02 7.987E+02 1.234E+00 1.017E-03 2.274E-04 0.000E+00 1.244E-03 1.235E+00 5.640E+02  0.8504 0.99136
  8.000E+02 8.995E+02 1.252E+00 1.210E-03 3.285E-04 0.000E+00 1.538E-03 1.254E+00 6.443E+02  0.9466 0.99317
  9.000E+02 1.000E+03 1.269E+00 1.411E-03 4.453E-04 0.000E+00 1.857E-03 1.271E+00 7.235E+02  1.0363 0.99447
  1.000E+03 1.101E+03 1.285E+00 1.621E-03 5.770E-04 0.000E+00 2.198E-03 1.287E+00 8.017E+02  1.1205 0.99542
  1.200E+03 1.301E+03 1.313E+00 2.062E-03 8.814E-04 2.245E-05 2.966E-03 1.316E+00 9.554E+02  1.2748 0.99672
  1.400E+03 1.502E+03 1.337E+00 2.529E-03 1.236E-03 6.089E-05 3.825E-03 1.341E+00 1.106E+03  1.4137 0.99753
  1.700E+03 1.803E+03 1.367E+00 3.271E-03 1.850E-03 1.290E-04 5.250E-03 1.372E+00 1.327E+03  1.5997 0.99829
  2.000E+03 2.103E+03 1.393E+00 4.057E-03 2.552E-03 2.081E-04 6.817E-03 1.400E+00 1.544E+03  1.7647 0.99874
  2.500E+03 2.604E+03 1.428E+00 5.448E-03 3.891E-03 3.590E-04 9.699E-03 1.438E+00 1.896E+03  2.0048 0.99918
  3.000E+03 3.104E+03 1.457E+00 6.926E-03 5.412E-03 5.152E-04 1.285E-02 1.469E+00 2.240E+03  2.2123 0.99942
  3.500E+03 3.604E+03 1.480E+00 8.478E-03 7.087E-03 6.789E-04 1.624E-02 1.497E+00 2.577E+03  2.3954 0.99957
  4.000E+03 4.104E+03 1.501E+00 1.009E-02 8.908E-03 8.526E-04 1.985E-02 1.521E+00 2.909E+03  2.5597 0.99967
  4.500E+03 4.604E+03 1.518E+00 1.176E-02 1.085E-02 1.032E-03 2.365E-02 1.542E+00 3.235E+03  2.7089 0.99974
  5.000E+03 5.105E+03 1.534E+00 1.348E-02 1.291E-02 1.203E-03 2.759E-02 1.562E+00 3.558E+03  2.8456 0.99979
  5.500E+03 5.605E+03 1.548E+00 1.525E-02 1.506E-02 1.387E-03 3.170E-02 1.580E+00 3.876E+03  2.9719 0.99982
  6.000E+03 6.105E+03 1.561E+00 1.706E-02 1.730E-02 1.558E-03 3.592E-02 1.596E+00 4.191E+03  3.0894 0.99985
  7.000E+03 7.105E+03 1.583E+00 2.078E-02 2.203E-02 1.919E-03 4.473E-02 1.627E+00 4.811E+03  3.3024 0.99989
  8.000E+03 8.105E+03 1.601E+00 2.464E-02 2.704E-02 2.275E-03 5.395E-02 1.655E+00 5.421E+03  3.4920 0.99992
  9.000E+03 9.105E+03 1.617E+00 2.861E-02 3.229E-02 2.609E-03 6.351E-02 1.681E+00 6.020E+03  3.6629 0.99993
  1.000E+04 1.011E+04 1.631E+00 3.268E-02 3.776E-02 2.952E-03 7.339E-02 1.705E+00 6.611E+03  3.8187 0.99995
  1.200E+04 1.211E+04 1.655E+00 4.109E-02 4.927E-02 3.644E-03 9.400E-02 1.749E+00 7.769E+03  4.0946 0.99996
  1.400E+04 1.411E+04 1.675E+00 4.980E-02 6.142E-02 4.334E-03 1.156E-01 1.790E+00 8.899E+03  4.3339 0.99997
  1.700E+04 1.711E+04 1.699E+00 6.334E-02 8.063E-02 5.352E-03 1.493E-01 1.848E+00 1.055E+04  4.6429 0.99998
  2.000E+04 2.011E+04 1.718E+00 7.735E-02 1.008E-01 6.345E-03 1.845E-01 1.903E+00 1.215E+04  4.9077 0.99999
  2.500E+04 2.511E+04 1.744E+00 1.016E-01 1.362E-01 7.970E-03 2.457E-01 1.990E+00 1.472E+04  5.2803 0.99999
  3.000E+04 3.011E+04 1.764E+00 1.266E-01 1.732E-01 9.557E-03 3.094E-01 2.073E+00 1.718E+04  5.5919 0.99999
  3.500E+04 3.511E+04 1.781E+00 1.524E-01 2.116E-01 1.115E-02 3.752E-01 2.156E+00 1.955E+04  5.8602 1.00000
  4.000E+04 4.011E+04 1.795E+00 1.788E-01 2.511E-01 1.273E-02 4.426E-01 2.237E+00 2.182E+04  6.0960 1.00000
  4.500E+04 4.511E+04 1.807E+00 2.057E-01 2.916E-01 1.428E-02 5.115E-01 2.318E+00 2.402E+04  6.3065 1.00000
  5.000E+04 5.011E+04 1.817E+00 2.330E-01 3.328E-01 1.583E-02 5.816E-01 2.399E+00 2.614E+04  6.4967 1.00000
  5.500E+04 5.511E+04 1.826E+00 2.607E-01 3.747E-01 1.739E-02 6.528E-01 2.479E+00 2.819E+04  6.6704 1.00000
  6.000E+04 6.011E+04 1.835E+00 2.888E-01 4.172E-01 1.892E-02 7.249E-01 2.560E+00 3.018E+04  6.8301 1.00000
  7.000E+04 7.011E+04 1.849E+00 3.459E-01 5.037E-01 2.197E-02 8.716E-01 2.721E+00 3.397E+04  7.1157 1.00000
  8.000E+04 8.011E+04 1.862E+00 4.041E-01 5.920E-01 2.502E-02 1.021E+00 2.883E+00 3.754E+04  7.3659 1.00000
  9.000E+04 9.011E+04 1.873E+00 4.632E-01 6.817E-01 2.807E-02 1.173E+00 3.046E+00 4.091E+04  7.5884 1.00000
  1.000E+05 1.001E+05 1.882E+00 5.230E-01 7.726E-01 3.105E-02 1.327E+00 3.209E+00 4.411E+04  7.7890 1.00000
  1.200E+05 1.201E+05 1.898E+00 6.447E-01 9.572E-01 3.712E-02 1.639E+00 3.537E+00 5.006E+04  8.1391 1.00000
  1.400E+05 1.401E+05 1.911E+00 7.686E-01 1.145E+00 4.317E-02 1.957E+00 3.868E+00 5.547E+04  8.4379 1.00000
  1.700E+05 1.701E+05 1.928E+00 9.577E-01 1.431E+00 5.225E-02 2.441E+00 4.369E+00 6.278E+04  8.8174 1.00000
  2.000E+05 2.001E+05 1.942E+00 1.150E+00 1.721E+00 6.137E-02 2.933E+00 4.874E+00 6.929E+04  9.1374 1.00000
  2.500E+05 2.501E+05 1.960E+00 1.476E+00 2.212E+00 7.658E-02 3.764E+00 5.725E+00 7.879E+04  9.5798 1.00000
  3.000E+05 3.001E+05 1.975E+00 1.807E+00 2.708E+00 9.189E-02 4.608E+00 6.583E+00 8.695E+04  9.9431 1.00000
  3.500E+05 3.501E+05 1.988E+00 2.143E+00 3.209E+00 1.074E-01 5.460E+00 7.448E+00 9.411E+04 10.2511 1.00000
  4.000E+05 4.001E+05 1.999E+00 2.482E+00 3.714E+00 1.229E-01 6.319E+00 8.318E+00 1.005E+05 10.5180 1.00000
  4.500E+05 4.501E+05 2.008E+00 2.823E+00 4.222E+00 1.385E-01 7.184E+00 9.192E+00 1.062E+05 10.7536 1.00000
  5.000E+05 5.001E+05 2.017E+00 3.167E+00 4.732E+00 1.543E-01 8.053E+00 1.007E+01 1.114E+05 10.9642 1.00000
  5.500E+05 5.501E+05 2.025E+00 3.513E+00 5.243E+00 1.699E-01 8.927E+00 1.095E+01 1.162E+05 11.1548 1.00000
  6.000E+05 6.001E+05 2.032E+00 3.861E+00 5.757E+00 1.856E-01 9.803E+00 1.184E+01 1.206E+05 11.3288 1.00000
  7.000E+05 7.001E+05 2.045E+00 4.561E+00 6.788E+00 2.172E-01 1.157E+01 1.361E+01 1.285E+05 11.6371 1.00000
  8.000E+05 8.001E+05 2.056E+00 5.266E+00 7.823E+00 2.492E-01 1.334E+01 1.539E+01 1.354E+05 11.9041 1.00000
  9.000E+05 9.001E+05 2.066E+00 5.975E+00 8.862E+00 2.815E-01 1.512E+01 1.718E+01 1.415E+05 12.1396 1.00000
  1.000E+06 1.000E+06 2.075E+00 6.687E+00 9.904E+00 3.140E-01 1.690E+01 1.898E+01 1.471E+05 12.3503 1.00000
  1.200E+06 1.200E+06 2.090E+00 8.119E+00 1.199E+01 3.799E-01 2.049E+01 2.258E+01 1.568E+05 12.7149 1.00000
  1.400E+06 1.400E+06 2.103E+00 9.561E+00 1.409E+01 4.467E-01 2.410E+01 2.620E+01 1.650E+05 13.0232 1.00000
  1.700E+06 1.700E+06 2.119E+00 1.173E+01 1.725E+01 5.484E-01 2.953E+01 3.165E+01 1.755E+05 13.4115 1.00000
  2.000E+06 2.000E+06 2.133E+00 1.392E+01 2.041E+01 6.517E-01 3.498E+01 3.712E+01 1.843E+05 13.7365 1.00000
  2.500E+06 2.500E+06 2.153E+00 1.758E+01 2.570E+01 8.271E-01 4.411E+01 4.626E+01 1.964E+05 14.1828 1.00000
  3.000E+06 3.000E+06 2.168E+00 2.126E+01 3.100E+01 1.006E+00 5.326E+01 5.543E+01 2.063E+05 14.5474 1.00000
  3.500E+06 3.500E+06 2.182E+00 2.495E+01 3.631E+01 1.187E+00 6.244E+01 6.462E+01 2.147E+05 14.8557 1.00000
  4.000E+06 4.000E+06 2.194E+00 2.865E+01 4.162E+01 1.371E+00 7.164E+01 7.383E+01 2.220E+05 15.1227 1.00000
  4.500E+06 4.500E+06 2.204E+00 3.236E+01 4.694E+01 1.558E+00 8.085E+01 8.306E+01 2.283E+05 15.3583 1.00000
  5.000E+06 5.000E+06 2.213E+00 3.607E+01 5.226E+01 1.746E+00 9.008E+01 9.229E+01 2.341E+05 15.5690 1.00000
  5.500E+06 5.500E+06 2.222E+00 3.979E+01 5.759E+01 1.937E+00 9.931E+01 1.015E+02 2.392E+05 15.7596 1.00000
  6.000E+06 6.000E+06 2.230E+00 4.351E+01 6.292E+01 2.129E+00 1.086E+02 1.108E+02 2.440E+05 15.9337 1.00000
  7.000E+06 7.000E+06 2.244E+00 5.097E+01 7.358E+01 2.518E+00 1.271E+02 1.293E+02 2.523E+05 16.2419 1.00000
  8.000E+06 8.000E+06 2.256E+00 5.843E+01 8.425E+01 2.913E+00 1.456E+02 1.479E+02 2.596E+05 16.5090 1.00000
  9.000E+06 9.000E+06 2.266E+00 6.591E+01 9.493E+01 3.313E+00 1.642E+02 1.664E+02 2.660E+05 16.7446 1.00000
  1.000E+07 1.000E+07 2.276E+00 7.339E+01 1.056E+02 3.718E+00 1.827E+02 1.850E+02 2.717E+05 16.9553 1.00000
  1.200E+07 1.200E+07 2.293E+00 8.838E+01 1.270E+02 4.539E+00 2.199E+02 2.222E+02 2.816E+05 17.3199 1.00000
  1.400E+07 1.400E+07 2.307E+00 1.034E+02 1.484E+02 5.376E+00 2.571E+02 2.594E+02 2.899E+05 17.6282 1.00000
  1.700E+07 1.700E+07 2.325E+00 1.259E+02 1.805E+02 6.654E+00 3.130E+02 3.153E+02 3.005E+05 18.0165 1.00000
  2.000E+07 2.000E+07 2.341E+00 1.484E+02 2.126E+02 7.957E+00 3.690E+02 3.713E+02 3.093E+05 18.3416 1.00000
  2.500E+07 2.500E+07 2.362E+00 1.861E+02 2.661E+02 1.018E+01 4.623E+02 4.647E+02 3.214E+05 18.7879 1.00000
  3.000E+07 3.000E+07 2.380E+00 2.237E+02 3.196E+02 1.244E+01 5.557E+02 5.581E+02 3.312E+05 19.1525 1.00000
  3.500E+07 3.500E+07 2.394E+00 2.613E+02 3.732E+02 1.475E+01 6.492E+02 6.516E+02 3.396E+05 19.4608 1.00000
  4.000E+07 4.000E+07 2.407E+00 2.990E+02 4.267E+02 1.710E+01 7.428E+02 7.452E+02 3.468E+05 19.7279 1.00000
  4.500E+07 4.500E+07 2.419E+00 3.367E+02 4.803E+02 1.947E+01 8.364E+02 8.388E+02 3.531E+05 19.9634 1.00000
  5.000E+07 5.000E+07 2.429E+00 3.744E+02 5.338E+02 2.188E+01 9.301E+02 9.325E+02 3.588E+05 20.1741 1.00000
  5.500E+07 5.500E+07 2.439E+00 4.121E+02 5.874E+02 2.432E+01 1.024E+03 1.026E+03 3.639E+05 20.3648 1.00000
  6.000E+07 6.000E+07 2.448E+00 4.498E+02 6.410E+02 2.678E+01 1.118E+03 1.120E+03 3.685E+05 20.5388 1.00000
  7.000E+07 7.000E+07 2.463E+00 5.252E+02 7.481E+02 3.176E+01 1.305E+03 1.308E+03 3.768E+05 20.8471 1.00000
  8.000E+07 8.000E+07 2.476E+00 6.006E+02 8.553E+02 3.683E+01 1.493E+03 1.495E+03 3.840E+05 21.1142 1.00000
  9.000E+07 9.000E+07 2.488E+00 6.761E+02 9.624E+02 4.197E+01 1.680E+03 1.683E+03 3.903E+05 21.3497 1.00000
  1.000E+08 1.000E+08 2.499E+00 7.515E+02 1.070E+03 4.717E+01 1.868E+03 1.871E+03 3.960E+05 21.5604 1.00000
  1.200E+08 1.200E+08 2.518E+00 9.024E+02 1.284E+03 5.775E+01 2.244E+03 2.247E+03 4.057E+05 21.9251 1.00000
  1.400E+08 1.400E+08 2.534E+00 1.053E+03 1.498E+03 6.853E+01 2.620E+03 2.623E+03 4.140E+05 22.2334 1.00000
  1.700E+08 1.700E+08 2.554E+00 1.280E+03 1.820E+03 8.503E+01 3.185E+03 3.187E+03 4.244E+05 22.6217 1.00000
  2.000E+08 2.000E+08 2.571E+00 1.506E+03 2.141E+03 1.019E+02 3.749E+03 3.752E+03 4.331E+05 22.9467 1.00000
  2.500E+08 2.500E+08 2.595E+00 1.884E+03 2.677E+03 1.306E+02 4.691E+03 4.694E+03 4.451E+05 23.3930 1.00000
  3.000E+08 3.000E+08 2.614E+00 2.261E+03 3.213E+03 1.599E+02 5.634E+03 5.637E+03 4.549E+05 23.7577 1.00000
  3.500E+08 3.500E+08 2.631E+00 2.639E+03 3.749E+03 1.899E+02 6.578E+03 6.580E+03 4.631E+05 24.0660 1.00000
  4.000E+08 4.000E+08 2.646E+00 3.016E+03 4.285E+03 2.203E+02 7.521E+03 7.524E+03 4.702E+05 24.3330 1.00000
  4.500E+08 4.500E+08 2.659E+00 3.394E+03 4.821E+03 2.512E+02 8.466E+03 8.468E+03 4.765E+05 24.5686 1.00000
  5.000E+08 5.000E+08 2.670E+00 3.771E+03 5.356E+03 2.825E+02 9.410E+03 9.413E+03 4.821E+05 24.7793 1.00000
  5.500E+08 5.500E+08 2.681E+00 4.149E+03 5.892E+03 3.142E+02 1.036E+04 1.036E+04 4.872E+05 24.9699 1.00000
  6.000E+08 6.000E+08 2.690E+00 4.527E+03 6.428E+03 3.462E+02 1.130E+04 1.130E+04 4.918E+05 25.1440 1.00000
  7.000E+08 7.000E+08 2.708E+00 5.282E+03 7.500E+03 4.112E+02 1.319E+04 1.320E+04 5.000E+05 25.4523 1.00000
  8.000E+08 8.000E+08 2.723E+00 6.037E+03 8.571E+03 4.772E+02 1.509E+04 1.509E+04 5.071E+05 25.7193 1.00000
  9.000E+08 9.000E+08 2.736E+00 6.792E+03 9.643E+03 5.443E+02 1.698E+04 1.698E+04 5.134E+05 25.9549 1.00000
  1.000E+09 1.000E+09 2.748E+00 7.547E+03 1.071E+04 6.122E+02 1.887E+04 1.888E+04 5.190E+05 26.1656 1.00000
