 Incident particle is a Muon with M = 105.65839 MeV
 Index = 0: Urea
      Absorber with <Z/A> = 0.53278
 Sternheimer coef:  a     k=m_s   x_0    x_1    I[eV]   Cbar  delta0
                 0.1161  3.3461  0.1603  2.6525   72.8  3.2032 0.00

 *** Table generated with PUMAS v1.00 ***

      T         p     Ionization  brems     pair     photonuc  Radloss    dE/dx   CSDA Range  delta   beta
    [MeV]    [MeV/c]  -----------------------[MeV cm^2/g]------------------------  [g/cm^2]
  1.000E+00 1.457E+01 4.877E+01 7.304E-07 0.000E+00 0.000E+00 7.304E-07 4.877E+01 1.025E-02  0.0000 0.13661
  1.200E+00 1.597E+01 4.207E+01 8.368E-07 0.000E+00 0.000E+00 8.368E-07 4.207E+01 1.468E-02  0.0000 0.14944
  1.400E+00 1.726E+01 3.712E+01 9.385E-07 0.000E+00 0.000E+00 9.385E-07 3.712E+01 1.975E-02  0.0000 0.16119
  1.700E+00 1.903E+01 3.169E+01 1.084E-06 0.000E+00 0.000E+00 1.084E-06 3.169E+01 2.853E-02  0.0000 0.17725
  2.000E+00 2.066E+01 2.775E+01 1.221E-06 0.000E+00 0.000E+00 1.221E-06 2.775E+01 3.866E-02  0.0000 0.19186
  2.500E+00 2.312E+01 2.313E+01 1.437E-06 0.000E+00 0.000E+00 1.437E-06 2.313E+01 5.848E-02  0.0000 0.21376
  3.000E+00 2.536E+01 1.994E+01 1.639E-06 0.000E+00 0.000E+00 1.639E-06 1.994E+01 8.183E-02  0.0000 0.23336
  3.500E+00 2.742E+01 1.759E+01 1.829E-06 0.000E+00 0.000E+00 1.829E-06 1.759E+01 1.086E-01  0.0000 0.25120
  4.000E+00 2.935E+01 1.579E+01 2.010E-06 0.000E+00 0.000E+00 2.010E-06 1.579E+01 1.386E-01  0.0000 0.26763
  4.500E+00 3.116E+01 1.436E+01 2.183E-06 0.000E+00 0.000E+00 2.183E-06 1.436E+01 1.719E-01  0.0000 0.28290
  5.000E+00 3.289E+01 1.319E+01 2.349E-06 0.000E+00 0.000E+00 2.349E-06 1.319E+01 2.083E-01  0.0000 0.29720
  5.500E+00 3.453E+01 1.222E+01 2.509E-06 0.000E+00 0.000E+00 2.509E-06 1.222E+01 2.477E-01  0.0000 0.31066
  6.000E+00 3.611E+01 1.141E+01 2.663E-06 0.000E+00 0.000E+00 2.663E-06 1.141E+01 2.900E-01  0.0000 0.32339
  7.000E+00 3.909E+01 1.010E+01 2.956E-06 0.000E+00 0.000E+00 2.956E-06 1.010E+01 3.833E-01  0.0000 0.34700
  8.000E+00 4.189E+01 9.104E+00 3.232E-06 0.000E+00 0.000E+00 3.232E-06 9.104E+00 4.877E-01  0.0000 0.36854
  9.000E+00 4.453E+01 8.315E+00 3.495E-06 0.000E+00 0.000E+00 3.495E-06 8.315E+00 6.028E-01  0.0000 0.38836
  1.000E+01 4.704E+01 7.674E+00 3.745E-06 0.000E+00 0.000E+00 3.745E-06 7.674E+00 7.281E-01  0.0000 0.40675
  1.200E+01 5.177E+01 6.697E+00 4.216E-06 0.000E+00 0.000E+00 4.216E-06 6.697E+00 1.008E+00  0.0000 0.43998
  1.400E+01 5.616E+01 5.985E+00 4.656E-06 0.000E+00 0.000E+00 4.656E-06 5.985E+00 1.324E+00  0.0000 0.46937
  1.700E+01 6.230E+01 5.219E+00 5.269E-06 0.000E+00 0.000E+00 5.269E-06 5.219E+00 1.862E+00  0.0000 0.50792
  2.000E+01 6.802E+01 4.674E+00 5.840E-06 0.000E+00 0.000E+00 5.840E-06 4.674E+00 2.471E+00  0.0000 0.54129
  2.500E+01 7.686E+01 4.047E+00 6.728E-06 0.000E+00 0.000E+00 6.728E-06 4.047E+00 3.623E+00  0.0000 0.58827
  3.000E+01 8.509E+01 3.625E+00 7.559E-06 0.000E+00 0.000E+00 7.559E-06 3.625E+00 4.930E+00  0.0000 0.62720
  3.500E+01 9.285E+01 3.322E+00 8.355E-06 0.000E+00 0.000E+00 8.355E-06 3.323E+00 6.372E+00  0.0000 0.66011
  4.000E+01 1.003E+02 3.095E+00 9.125E-06 0.000E+00 0.000E+00 9.125E-06 3.095E+00 7.933E+00  0.0000 0.68834
  4.500E+01 1.074E+02 2.919E+00 9.880E-06 0.000E+00 0.000E+00 9.880E-06 2.919E+00 9.597E+00  0.0000 0.71286
  5.000E+01 1.143E+02 2.779E+00 1.062E-05 0.000E+00 0.000E+00 1.062E-05 2.779E+00 1.135E+01  0.0000 0.73434
  5.500E+01 1.210E+02 2.666E+00 1.136E-05 0.000E+00 0.000E+00 1.136E-05 2.666E+00 1.319E+01  0.0000 0.75332
  6.000E+01 1.276E+02 2.572E+00 1.210E-05 0.000E+00 0.000E+00 1.210E-05 2.572E+00 1.510E+01  0.0000 0.77019
  7.000E+01 1.403E+02 2.428E+00 1.357E-05 0.000E+00 0.000E+00 1.357E-05 2.428E+00 1.910E+01  0.0000 0.79887
  8.000E+01 1.527E+02 2.323E+00 1.505E-05 0.000E+00 0.000E+00 1.505E-05 2.323E+00 2.331E+01  0.0000 0.82227
  9.000E+01 1.647E+02 2.240E+00 1.655E-05 0.000E+00 0.000E+00 1.655E-05 2.240E+00 2.770E+01  0.0438 0.84166
  1.000E+02 1.764E+02 2.176E+00 1.807E-05 0.000E+00 0.000E+00 1.807E-05 2.176E+00 3.223E+01  0.0870 0.85794
  1.200E+02 1.994E+02 2.084E+00 2.119E-05 0.000E+00 0.000E+00 2.119E-05 2.084E+00 4.162E+01  0.1701 0.88361
  1.400E+02 2.218E+02 2.024E+00 2.442E-05 0.000E+00 0.000E+00 2.442E-05 2.024E+00 5.136E+01  0.2492 0.90278
  1.700E+02 2.546E+02 1.969E+00 2.947E-05 4.322E-14 0.000E+00 2.947E-05 1.969E+00 6.639E+01  0.3608 0.92363
  2.000E+02 2.868E+02 1.937E+00 3.476E-05 9.659E-12 0.000E+00 3.476E-05 1.937E+00 8.175E+01  0.4651 0.93835
  2.500E+02 3.396E+02 1.911E+00 4.410E-05 7.950E-08 0.000E+00 4.418E-05 1.911E+00 1.077E+02  0.6251 0.95485
  3.000E+02 3.917E+02 1.903E+00 5.404E-05 7.042E-07 0.000E+00 5.474E-05 1.903E+00 1.340E+02  0.7709 0.96548
  3.500E+02 4.432E+02 1.903E+00 6.452E-05 1.936E-06 0.000E+00 6.645E-05 1.903E+00 1.602E+02  0.9050 0.97274
  4.000E+02 4.945E+02 1.908E+00 7.550E-05 3.748E-06 0.000E+00 7.924E-05 1.908E+00 1.865E+02  1.0294 0.97793
  4.500E+02 5.455E+02 1.915E+00 8.694E-05 6.117E-06 0.000E+00 9.305E-05 1.915E+00 2.126E+02  1.1453 0.98176
  5.000E+02 5.964E+02 1.923E+00 9.880E-05 9.024E-06 0.000E+00 1.078E-04 1.923E+00 2.387E+02  1.2541 0.98467
  5.500E+02 6.471E+02 1.932E+00 1.111E-04 1.245E-05 0.000E+00 1.235E-04 1.933E+00 2.646E+02  1.3565 0.98693
  6.000E+02 6.977E+02 1.942E+00 1.237E-04 1.638E-05 0.000E+00 1.401E-04 1.942E+00 2.904E+02  1.4534 0.98873
  7.000E+02 7.987E+02 1.960E+00 1.500E-04 2.568E-05 0.000E+00 1.757E-04 1.961E+00 3.417E+02  1.6328 0.99136
  8.000E+02 8.995E+02 1.978E+00 1.776E-04 3.679E-05 0.000E+00 2.144E-04 1.978E+00 3.925E+02  1.7961 0.99317
  9.000E+02 1.000E+03 1.995E+00 2.063E-04 4.959E-05 0.000E+00 2.559E-04 1.995E+00 4.428E+02  1.9461 0.99447
  1.000E+03 1.101E+03 2.011E+00 2.360E-04 6.400E-05 0.000E+00 3.000E-04 2.011E+00 4.927E+02  2.0849 0.99542
  1.200E+03 1.301E+03 2.039E+00 2.983E-04 9.723E-05 2.256E-05 4.180E-04 2.039E+00 5.915E+02  2.3350 0.99672
  1.400E+03 1.502E+03 2.064E+00 3.638E-04 1.358E-04 6.181E-05 5.615E-04 2.064E+00 6.890E+02  2.5560 0.99753
  1.700E+03 1.803E+03 2.095E+00 4.675E-04 2.027E-04 1.327E-04 8.029E-04 2.096E+00 8.332E+02  2.8461 0.99829
  2.000E+03 2.103E+03 2.122E+00 5.768E-04 2.792E-04 2.164E-04 1.072E-03 2.123E+00 9.754E+02  3.0983 0.99874
  2.500E+03 2.604E+03 2.159E+00 7.695E-04 4.250E-04 3.787E-04 1.573E-03 2.161E+00 1.209E+03  3.4578 0.99918
  3.000E+03 3.104E+03 2.189E+00 9.734E-04 5.906E-04 5.498E-04 2.114E-03 2.191E+00 1.439E+03  3.7618 0.99942
  3.500E+03 3.604E+03 2.214E+00 1.187E-03 7.732E-04 7.316E-04 2.692E-03 2.217E+00 1.666E+03  4.0255 0.99957
  4.000E+03 4.104E+03 2.235E+00 1.409E-03 9.856E-04 9.262E-04 3.320E-03 2.239E+00 1.890E+03  4.2585 0.99967
  4.500E+03 4.604E+03 2.254E+00 1.638E-03 1.218E-03 1.129E-03 3.985E-03 2.258E+00 2.112E+03  4.4673 0.99974
  5.000E+03 5.105E+03 2.270E+00 1.873E-03 1.464E-03 1.324E-03 4.662E-03 2.275E+00 2.333E+03  4.6564 0.99979
  5.500E+03 5.605E+03 2.285E+00 2.115E-03 1.723E-03 1.535E-03 5.374E-03 2.291E+00 2.552E+03  4.8295 0.99982
  6.000E+03 6.105E+03 2.299E+00 2.363E-03 1.994E-03 1.732E-03 6.088E-03 2.305E+00 2.770E+03  4.9889 0.99985
  7.000E+03 7.105E+03 2.322E+00 2.872E-03 2.567E-03 2.149E-03 7.588E-03 2.329E+00 3.201E+03  5.2744 0.99989
  8.000E+03 8.105E+03 2.342E+00 3.399E-03 3.177E-03 2.564E-03 9.140E-03 2.351E+00 3.629E+03  5.5248 0.99992
  9.000E+03 9.105E+03 2.359E+00 3.942E-03 3.820E-03 2.955E-03 1.072E-02 2.370E+00 4.052E+03  5.7477 0.99993
  1.000E+04 1.011E+04 2.374E+00 4.499E-03 4.493E-03 3.359E-03 1.235E-02 2.386E+00 4.473E+03  5.9487 0.99995
  1.200E+04 1.211E+04 2.400E+00 5.649E-03 5.915E-03 4.181E-03 1.575E-02 2.415E+00 5.306E+03  6.2994 0.99996
  1.400E+04 1.411E+04 2.421E+00 6.842E-03 7.427E-03 5.005E-03 1.927E-02 2.440E+00 6.130E+03  6.5986 0.99997
  1.700E+04 1.711E+04 2.447E+00 8.698E-03 9.832E-03 6.230E-03 2.476E-02 2.472E+00 7.351E+03  6.9783 0.99998
  2.000E+04 2.011E+04 2.468E+00 1.062E-02 1.238E-02 7.434E-03 3.043E-02 2.499E+00 8.558E+03  7.2981 0.99999
  2.500E+04 2.511E+04 2.497E+00 1.395E-02 1.687E-02 9.417E-03 4.024E-02 2.537E+00 1.054E+04  7.7396 0.99999
  3.000E+04 3.011E+04 2.520E+00 1.741E-02 2.162E-02 1.137E-02 5.040E-02 2.570E+00 1.250E+04  8.1018 0.99999
  3.500E+04 3.511E+04 2.538E+00 2.097E-02 2.658E-02 1.334E-02 6.089E-02 2.599E+00 1.444E+04  8.4087 1.00000
  4.000E+04 4.011E+04 2.555E+00 2.463E-02 3.171E-02 1.530E-02 7.163E-02 2.626E+00 1.635E+04  8.6749 1.00000
  4.500E+04 4.511E+04 2.569E+00 2.835E-02 3.698E-02 1.723E-02 8.257E-02 2.651E+00 1.825E+04  8.9099 1.00000
  5.000E+04 5.011E+04 2.581E+00 3.215E-02 4.239E-02 1.917E-02 9.371E-02 2.675E+00 2.012E+04  9.1202 1.00000
  5.500E+04 5.511E+04 2.592E+00 3.601E-02 4.791E-02 2.112E-02 1.050E-01 2.697E+00 2.198E+04  9.3104 1.00000
  6.000E+04 6.011E+04 2.602E+00 3.993E-02 5.354E-02 2.305E-02 1.165E-01 2.719E+00 2.383E+04  9.4841 1.00000
  7.000E+04 7.011E+04 2.620E+00 4.790E-02 6.504E-02 2.689E-02 1.398E-01 2.760E+00 2.748E+04  9.7919 1.00000
  8.000E+04 8.011E+04 2.635E+00 5.604E-02 7.685E-02 3.074E-02 1.636E-01 2.799E+00 3.108E+04 10.0586 1.00000
  9.000E+04 9.011E+04 2.648E+00 6.433E-02 8.891E-02 3.460E-02 1.878E-01 2.836E+00 3.463E+04 10.2939 1.00000
  1.000E+05 1.001E+05 2.660E+00 7.275E-02 1.012E-01 3.839E-02 2.123E-01 2.872E+00 3.813E+04 10.5043 1.00000
  1.200E+05 1.201E+05 2.680E+00 8.990E-02 1.263E-01 4.611E-02 2.623E-01 2.943E+00 4.501E+04 10.8686 1.00000
  1.400E+05 1.401E+05 2.697E+00 1.074E-01 1.520E-01 5.384E-02 3.132E-01 3.011E+00 5.173E+04 11.1767 1.00000
  1.700E+05 1.701E+05 2.719E+00 1.343E-01 1.914E-01 6.546E-02 3.911E-01 3.110E+00 6.154E+04 11.5647 1.00000
  2.000E+05 2.001E+05 2.736E+00 1.617E-01 2.316E-01 7.715E-02 4.704E-01 3.207E+00 7.104E+04 11.8896 1.00000
  2.500E+05 2.501E+05 2.761E+00 2.083E-01 3.000E-01 9.671E-02 6.050E-01 3.366E+00 8.627E+04 12.3357 1.00000
  3.000E+05 3.001E+05 2.781E+00 2.559E-01 3.697E-01 1.164E-01 7.420E-01 3.523E+00 1.008E+05 12.7002 1.00000
  3.500E+05 3.501E+05 2.797E+00 3.042E-01 4.404E-01 1.364E-01 8.810E-01 3.678E+00 1.147E+05 13.0084 1.00000
  4.000E+05 4.001E+05 2.812E+00 3.532E-01 5.119E-01 1.565E-01 1.022E+00 3.834E+00 1.280E+05 13.2753 1.00000
  4.500E+05 4.501E+05 2.825E+00 4.026E-01 5.840E-01 1.767E-01 1.163E+00 3.988E+00 1.408E+05 13.5109 1.00000
  5.000E+05 5.001E+05 2.836E+00 4.526E-01 6.567E-01 1.971E-01 1.306E+00 4.143E+00 1.531E+05 13.7215 1.00000
  5.500E+05 5.501E+05 2.847E+00 5.029E-01 7.298E-01 2.173E-01 1.450E+00 4.297E+00 1.649E+05 13.9121 1.00000
  6.000E+05 6.001E+05 2.856E+00 5.536E-01 8.032E-01 2.377E-01 1.595E+00 4.451E+00 1.764E+05 14.0861 1.00000
  7.000E+05 7.001E+05 2.873E+00 6.559E-01 9.512E-01 2.787E-01 1.886E+00 4.759E+00 1.981E+05 14.3944 1.00000
  8.000E+05 8.001E+05 2.888E+00 7.592E-01 1.100E+00 3.203E-01 2.180E+00 5.068E+00 2.185E+05 14.6614 1.00000
  9.000E+05 9.001E+05 2.901E+00 8.633E-01 1.250E+00 3.622E-01 2.476E+00 5.377E+00 2.377E+05 14.8969 1.00000
  1.000E+06 1.000E+06 2.913E+00 9.682E-01 1.401E+00 4.045E-01 2.773E+00 5.686E+00 2.558E+05 15.1076 1.00000
  1.200E+06 1.200E+06 2.933E+00 1.180E+00 1.703E+00 4.902E-01 3.373E+00 6.307E+00 2.892E+05 15.4722 1.00000
  1.400E+06 1.400E+06 2.951E+00 1.393E+00 2.008E+00 5.771E-01 3.978E+00 6.929E+00 3.195E+05 15.7805 1.00000
  1.700E+06 1.700E+06 2.973E+00 1.716E+00 2.467E+00 7.096E-01 4.892E+00 7.865E+00 3.602E+05 16.1688 1.00000
  2.000E+06 2.000E+06 2.991E+00 2.041E+00 2.928E+00 8.442E-01 5.814E+00 8.805E+00 3.963E+05 16.4938 1.00000
  2.500E+06 2.500E+06 3.017E+00 2.588E+00 3.701E+00 1.073E+00 7.361E+00 1.038E+01 4.488E+05 16.9401 1.00000
  3.000E+06 3.000E+06 3.038E+00 3.139E+00 4.476E+00 1.306E+00 8.921E+00 1.196E+01 4.938E+05 17.3047 1.00000
  3.500E+06 3.500E+06 3.056E+00 3.693E+00 5.254E+00 1.542E+00 1.049E+01 1.354E+01 5.332E+05 17.6130 1.00000
  4.000E+06 4.000E+06 3.072E+00 4.249E+00 6.033E+00 1.782E+00 1.207E+01 1.514E+01 5.681E+05 17.8800 1.00000
  4.500E+06 4.500E+06 3.085E+00 4.808E+00 6.814E+00 2.025E+00 1.365E+01 1.673E+01 5.996E+05 18.1156 1.00000
  5.000E+06 5.000E+06 3.098E+00 5.368E+00 7.596E+00 2.271E+00 1.524E+01 1.833E+01 6.282E+05 18.3263 1.00000
  5.500E+06 5.500E+06 3.109E+00 5.929E+00 8.379E+00 2.520E+00 1.683E+01 1.994E+01 6.543E+05 18.5169 1.00000
  6.000E+06 6.000E+06 3.120E+00 6.492E+00 9.162E+00 2.770E+00 1.842E+01 2.154E+01 6.785E+05 18.6910 1.00000
  7.000E+06 7.000E+06 3.138E+00 7.620E+00 1.073E+01 3.278E+00 2.163E+01 2.477E+01 7.219E+05 18.9992 1.00000
  8.000E+06 8.000E+06 3.154E+00 8.752E+00 1.230E+01 3.793E+00 2.485E+01 2.800E+01 7.599E+05 19.2663 1.00000
  9.000E+06 9.000E+06 3.169E+00 9.886E+00 1.387E+01 4.315E+00 2.807E+01 3.124E+01 7.938E+05 19.5019 1.00000
  1.000E+07 1.000E+07 3.181E+00 1.102E+01 1.545E+01 4.843E+00 3.131E+01 3.449E+01 8.243E+05 19.7126 1.00000
  1.200E+07 1.200E+07 3.204E+00 1.330E+01 1.860E+01 5.916E+00 3.781E+01 4.102E+01 8.776E+05 20.0772 1.00000
  1.400E+07 1.400E+07 3.223E+00 1.558E+01 2.175E+01 7.008E+00 4.434E+01 4.756E+01 9.231E+05 20.3855 1.00000
  1.700E+07 1.700E+07 3.247E+00 1.901E+01 2.648E+01 8.677E+00 5.417E+01 5.742E+01 9.807E+05 20.7738 1.00000
  2.000E+07 2.000E+07 3.268E+00 2.245E+01 3.121E+01 1.038E+01 6.405E+01 6.731E+01 1.029E+06 21.0989 1.00000
  2.500E+07 2.500E+07 3.296E+00 2.819E+01 3.911E+01 1.327E+01 8.058E+01 8.387E+01 1.096E+06 21.5452 1.00000
  3.000E+07 3.000E+07 3.319E+00 3.394E+01 4.701E+01 1.623E+01 9.719E+01 1.005E+02 1.151E+06 21.9098 1.00000
  3.500E+07 3.500E+07 3.339E+00 3.970E+01 5.492E+01 1.925E+01 1.139E+02 1.172E+02 1.197E+06 22.2181 1.00000
  4.000E+07 4.000E+07 3.356E+00 4.546E+01 6.282E+01 2.231E+01 1.306E+02 1.339E+02 1.237E+06 22.4852 1.00000
  4.500E+07 4.500E+07 3.372E+00 5.123E+01 7.073E+01 2.542E+01 1.474E+02 1.507E+02 1.272E+06 22.7207 1.00000
  5.000E+07 5.000E+07 3.386E+00 5.699E+01 7.864E+01 2.856E+01 1.642E+02 1.676E+02 1.304E+06 22.9314 1.00000
  5.500E+07 5.500E+07 3.398E+00 6.276E+01 8.655E+01 3.174E+01 1.811E+02 1.844E+02 1.332E+06 23.1221 1.00000
  6.000E+07 6.000E+07 3.410E+00 6.854E+01 9.446E+01 3.495E+01 1.979E+02 2.014E+02 1.358E+06 23.2961 1.00000
  7.000E+07 7.000E+07 3.430E+00 8.009E+01 1.103E+02 4.146E+01 2.318E+02 2.353E+02 1.404E+06 23.6044 1.00000
  8.000E+07 8.000E+07 3.448E+00 9.165E+01 1.261E+02 4.808E+01 2.658E+02 2.693E+02 1.444E+06 23.8715 1.00000
  9.000E+07 9.000E+07 3.464E+00 1.032E+02 1.419E+02 5.478E+01 2.999E+02 3.034E+02 1.479E+06 24.1070 1.00000
  1.000E+08 1.000E+08 3.479E+00 1.148E+02 1.578E+02 6.158E+01 3.341E+02 3.376E+02 1.510E+06 24.3177 1.00000
  1.200E+08 1.200E+08 3.503E+00 1.379E+02 1.894E+02 7.539E+01 4.027E+02 4.062E+02 1.565E+06 24.6824 1.00000
  1.400E+08 1.400E+08 3.525E+00 1.611E+02 2.211E+02 8.947E+01 4.716E+02 4.751E+02 1.610E+06 24.9907 1.00000
  1.700E+08 1.700E+08 3.552E+00 1.958E+02 2.686E+02 1.110E+02 5.754E+02 5.790E+02 1.668E+06 25.3790 1.00000
  2.000E+08 2.000E+08 3.574E+00 2.305E+02 3.161E+02 1.330E+02 6.796E+02 6.832E+02 1.716E+06 25.7040 1.00000
  2.500E+08 2.500E+08 3.606E+00 2.884E+02 3.953E+02 1.705E+02 8.542E+02 8.578E+02 1.781E+06 26.1503 1.00000
  3.000E+08 3.000E+08 3.632E+00 3.464E+02 4.744E+02 2.088E+02 1.030E+03 1.033E+03 1.835E+06 26.5150 1.00000
  3.500E+08 3.500E+08 3.654E+00 4.043E+02 5.536E+02 2.479E+02 1.206E+03 1.210E+03 1.880E+06 26.8233 1.00000
  4.000E+08 4.000E+08 3.674E+00 4.622E+02 6.328E+02 2.877E+02 1.383E+03 1.386E+03 1.918E+06 27.0903 1.00000
  4.500E+08 4.500E+08 3.691E+00 5.202E+02 7.120E+02 3.280E+02 1.560E+03 1.564E+03 1.952E+06 27.3259 1.00000
  5.000E+08 5.000E+08 3.706E+00 5.781E+02 7.912E+02 3.689E+02 1.738E+03 1.742E+03 1.983E+06 27.5366 1.00000
  5.500E+08 5.500E+08 3.720E+00 6.361E+02 8.703E+02 4.103E+02 1.917E+03 1.920E+03 2.010E+06 27.7272 1.00000
  6.000E+08 6.000E+08 3.733E+00 6.940E+02 9.495E+02 4.521E+02 2.096E+03 2.099E+03 2.035E+06 27.9013 1.00000
  7.000E+08 7.000E+08 3.756E+00 8.099E+02 1.108E+03 5.369E+02 2.455E+03 2.458E+03 2.079E+06 28.2096 1.00000
  8.000E+08 8.000E+08 3.776E+00 9.259E+02 1.266E+03 6.231E+02 2.815E+03 2.819E+03 2.117E+06 28.4766 1.00000
  9.000E+08 9.000E+08 3.794E+00 1.042E+03 1.425E+03 7.107E+02 3.177E+03 3.181E+03 2.151E+06 28.7122 1.00000
  1.000E+09 1.000E+09 3.810E+00 1.158E+03 1.583E+03 7.994E+02 3.540E+03 3.544E+03 2.180E+06 28.9229 1.00000
