 Incident particle is a Muon with M = 105.65839 MeV
 Index = 0: Valine
      Absorber with <Z/A> = 0.54625
 Sternheimer coef:  a     k=m_s   x_0    x_1    I[eV]   Cbar  delta0
                 0.1139  3.3774  0.1441  2.6227   67.7  3.1059 0.00

 *** Table generated with PUMAS v1.00 ***

      T         p     Ionization  brems     pair     photonuc  Radloss    dE/dx   CSDA Range  delta   beta
    [MeV]    [MeV/c]  -----------------------[MeV cm^2/g]------------------------  [g/cm^2]
  1.000E+00 1.457E+01 5.066E+01 6.890E-07 0.000E+00 0.000E+00 6.890E-07 5.066E+01 9.870E-03  0.0000 0.13661
  1.200E+00 1.597E+01 4.368E+01 7.890E-07 0.000E+00 0.000E+00 7.890E-07 4.368E+01 1.413E-02  0.0000 0.14944
  1.400E+00 1.726E+01 3.852E+01 8.844E-07 0.000E+00 0.000E+00 8.844E-07 3.852E+01 1.902E-02  0.0000 0.16119
  1.700E+00 1.903E+01 3.287E+01 1.021E-06 0.000E+00 0.000E+00 1.021E-06 3.287E+01 2.748E-02  0.0000 0.17725
  2.000E+00 2.066E+01 2.878E+01 1.150E-06 0.000E+00 0.000E+00 1.150E-06 2.878E+01 3.725E-02  0.0000 0.19186
  2.500E+00 2.312E+01 2.398E+01 1.353E-06 0.000E+00 0.000E+00 1.353E-06 2.398E+01 5.636E-02  0.0000 0.21376
  3.000E+00 2.536E+01 2.066E+01 1.542E-06 0.000E+00 0.000E+00 1.542E-06 2.066E+01 7.888E-02  0.0000 0.23336
  3.500E+00 2.742E+01 1.823E+01 1.722E-06 0.000E+00 0.000E+00 1.722E-06 1.823E+01 1.047E-01  0.0000 0.25120
  4.000E+00 2.935E+01 1.636E+01 1.892E-06 0.000E+00 0.000E+00 1.892E-06 1.636E+01 1.337E-01  0.0000 0.26763
  4.500E+00 3.116E+01 1.487E+01 2.055E-06 0.000E+00 0.000E+00 2.055E-06 1.487E+01 1.658E-01  0.0000 0.28290
  5.000E+00 3.289E+01 1.366E+01 2.211E-06 0.000E+00 0.000E+00 2.211E-06 1.366E+01 2.009E-01  0.0000 0.29720
  5.500E+00 3.453E+01 1.266E+01 2.361E-06 0.000E+00 0.000E+00 2.361E-06 1.266E+01 2.390E-01  0.0000 0.31066
  6.000E+00 3.611E+01 1.181E+01 2.506E-06 0.000E+00 0.000E+00 2.506E-06 1.181E+01 2.799E-01  0.0000 0.32339
  7.000E+00 3.909E+01 1.046E+01 2.782E-06 0.000E+00 0.000E+00 2.782E-06 1.046E+01 3.700E-01  0.0000 0.34700
  8.000E+00 4.189E+01 9.424E+00 3.042E-06 0.000E+00 0.000E+00 3.042E-06 9.424E+00 4.708E-01  0.0000 0.36854
  9.000E+00 4.453E+01 8.606E+00 3.290E-06 0.000E+00 0.000E+00 3.290E-06 8.606E+00 5.820E-01  0.0000 0.38836
  1.000E+01 4.704E+01 7.942E+00 3.526E-06 0.000E+00 0.000E+00 3.526E-06 7.942E+00 7.031E-01  0.0000 0.40675
  1.200E+01 5.177E+01 6.929E+00 3.970E-06 0.000E+00 0.000E+00 3.970E-06 6.929E+00 9.733E-01  0.0000 0.43998
  1.400E+01 5.616E+01 6.192E+00 4.384E-06 0.000E+00 0.000E+00 4.384E-06 6.192E+00 1.279E+00  0.0000 0.46937
  1.700E+01 6.230E+01 5.398E+00 4.962E-06 0.000E+00 0.000E+00 4.962E-06 5.398E+00 1.799E+00  0.0000 0.50792
  2.000E+01 6.802E+01 4.833E+00 5.501E-06 0.000E+00 0.000E+00 5.501E-06 4.833E+00 2.387E+00  0.0000 0.54129
  2.500E+01 7.686E+01 4.185E+00 6.339E-06 0.000E+00 0.000E+00 6.339E-06 4.185E+00 3.502E+00  0.0000 0.58827
  3.000E+01 8.509E+01 3.748E+00 7.124E-06 0.000E+00 0.000E+00 7.124E-06 3.748E+00 4.767E+00  0.0000 0.62720
  3.500E+01 9.285E+01 3.434E+00 7.875E-06 0.000E+00 0.000E+00 7.875E-06 3.434E+00 6.161E+00  0.0000 0.66011
  4.000E+01 1.003E+02 3.199E+00 8.602E-06 0.000E+00 0.000E+00 8.602E-06 3.199E+00 7.671E+00  0.0000 0.68834
  4.500E+01 1.074E+02 3.017E+00 9.315E-06 0.000E+00 0.000E+00 9.315E-06 3.017E+00 9.281E+00  0.0000 0.71286
  5.000E+01 1.143E+02 2.872E+00 1.002E-05 0.000E+00 0.000E+00 1.002E-05 2.872E+00 1.098E+01  0.0000 0.73434
  5.500E+01 1.210E+02 2.755E+00 1.071E-05 0.000E+00 0.000E+00 1.071E-05 2.755E+00 1.276E+01  0.0000 0.75332
  6.000E+01 1.276E+02 2.658E+00 1.141E-05 0.000E+00 0.000E+00 1.141E-05 2.658E+00 1.461E+01  0.0000 0.77019
  7.000E+01 1.403E+02 2.509E+00 1.280E-05 0.000E+00 0.000E+00 1.280E-05 2.509E+00 1.848E+01  0.0000 0.79887
  8.000E+01 1.527E+02 2.398E+00 1.420E-05 0.000E+00 0.000E+00 1.420E-05 2.398E+00 2.256E+01  0.0211 0.82227
  9.000E+01 1.647E+02 2.311E+00 1.561E-05 0.000E+00 0.000E+00 1.561E-05 2.311E+00 2.681E+01  0.0665 0.84166
  1.000E+02 1.764E+02 2.244E+00 1.704E-05 0.000E+00 0.000E+00 1.704E-05 2.244E+00 3.120E+01  0.1107 0.85794
  1.200E+02 1.994E+02 2.150E+00 1.999E-05 0.000E+00 0.000E+00 1.999E-05 2.150E+00 4.031E+01  0.1958 0.88361
  1.400E+02 2.218E+02 2.088E+00 2.303E-05 0.000E+00 0.000E+00 2.303E-05 2.088E+00 4.975E+01  0.2766 0.90278
  1.700E+02 2.546E+02 2.030E+00 2.779E-05 4.064E-14 0.000E+00 2.779E-05 2.030E+00 6.432E+01  0.3906 0.92363
  2.000E+02 2.868E+02 1.997E+00 3.278E-05 9.079E-12 0.000E+00 3.278E-05 1.997E+00 7.923E+01  0.4971 0.93835
  2.500E+02 3.396E+02 1.969E+00 4.158E-05 7.477E-08 0.000E+00 4.165E-05 1.969E+00 1.044E+02  0.6603 0.95485
  3.000E+02 3.917E+02 1.960E+00 5.094E-05 6.598E-07 0.000E+00 5.160E-05 1.960E+00 1.299E+02  0.8089 0.96548
  3.500E+02 4.432E+02 1.960E+00 6.082E-05 1.812E-06 0.000E+00 6.263E-05 1.960E+00 1.554E+02  0.9455 0.97274
  4.000E+02 4.945E+02 1.965E+00 7.116E-05 3.506E-06 0.000E+00 7.467E-05 1.965E+00 1.809E+02  1.0720 0.97793
  4.500E+02 5.455E+02 1.972E+00 8.194E-05 5.722E-06 0.000E+00 8.766E-05 1.972E+00 2.063E+02  1.1900 0.98176
  5.000E+02 5.964E+02 1.981E+00 9.312E-05 8.439E-06 0.000E+00 1.016E-04 1.981E+00 2.316E+02  1.3005 0.98467
  5.500E+02 6.471E+02 1.990E+00 1.047E-04 1.164E-05 0.000E+00 1.163E-04 1.990E+00 2.568E+02  1.4047 0.98693
  6.000E+02 6.977E+02 1.999E+00 1.166E-04 1.532E-05 0.000E+00 1.319E-04 1.999E+00 2.818E+02  1.5031 0.98873
  7.000E+02 7.987E+02 2.018E+00 1.414E-04 2.400E-05 0.000E+00 1.654E-04 2.018E+00 3.316E+02  1.6853 0.99136
  8.000E+02 8.995E+02 2.036E+00 1.673E-04 3.438E-05 0.000E+00 2.017E-04 2.036E+00 3.809E+02  1.8510 0.99317
  9.000E+02 1.000E+03 2.053E+00 1.944E-04 4.635E-05 0.000E+00 2.407E-04 2.053E+00 4.299E+02  2.0031 0.99447
  1.000E+03 1.101E+03 2.069E+00 2.224E-04 5.981E-05 0.000E+00 2.822E-04 2.069E+00 4.784E+02  2.1438 0.99542
  1.200E+03 1.301E+03 2.097E+00 2.810E-04 9.086E-05 2.256E-05 3.944E-04 2.098E+00 5.744E+02  2.3973 0.99672
  1.400E+03 1.502E+03 2.123E+00 3.428E-04 1.269E-04 6.185E-05 5.316E-04 2.123E+00 6.691E+02  2.6211 0.99753
  1.700E+03 1.803E+03 2.155E+00 4.405E-04 1.894E-04 1.328E-04 7.628E-04 2.156E+00 8.094E+02  2.9146 0.99829
  2.000E+03 2.103E+03 2.182E+00 5.435E-04 2.609E-04 2.168E-04 1.021E-03 2.183E+00 9.477E+02  3.1696 0.99874
  2.500E+03 2.604E+03 2.219E+00 7.251E-04 3.971E-04 3.797E-04 1.502E-03 2.221E+00 1.175E+03  3.5327 0.99918
  3.000E+03 3.104E+03 2.250E+00 9.173E-04 5.518E-04 5.516E-04 2.021E-03 2.252E+00 1.398E+03  3.8396 0.99942
  3.500E+03 3.604E+03 2.275E+00 1.118E-03 7.224E-04 7.343E-04 2.575E-03 2.278E+00 1.619E+03  4.1056 0.99957
  4.000E+03 4.104E+03 2.297E+00 1.328E-03 9.223E-04 9.300E-04 3.180E-03 2.300E+00 1.838E+03  4.3405 0.99967
  4.500E+03 4.604E+03 2.316E+00 1.544E-03 1.141E-03 1.134E-03 3.819E-03 2.320E+00 2.054E+03  4.5509 0.99974
  5.000E+03 5.105E+03 2.333E+00 1.766E-03 1.374E-03 1.331E-03 4.470E-03 2.337E+00 2.269E+03  4.7414 0.99979
  5.500E+03 5.605E+03 2.348E+00 1.994E-03 1.618E-03 1.543E-03 5.155E-03 2.353E+00 2.482E+03  4.9156 0.99982
  6.000E+03 6.105E+03 2.362E+00 2.228E-03 1.873E-03 1.741E-03 5.842E-03 2.367E+00 2.694E+03  5.0760 0.99985
  7.000E+03 7.105E+03 2.385E+00 2.709E-03 2.414E-03 2.161E-03 7.283E-03 2.393E+00 3.114E+03  5.3632 0.99989
  8.000E+03 8.105E+03 2.405E+00 3.206E-03 2.990E-03 2.579E-03 8.776E-03 2.414E+00 3.530E+03  5.6149 0.99992
  9.000E+03 9.105E+03 2.423E+00 3.719E-03 3.598E-03 2.973E-03 1.029E-02 2.433E+00 3.943E+03  5.8389 0.99993
  1.000E+04 1.011E+04 2.438E+00 4.245E-03 4.233E-03 3.381E-03 1.186E-02 2.450E+00 4.352E+03  6.0408 0.99995
  1.200E+04 1.211E+04 2.465E+00 5.332E-03 5.578E-03 4.209E-03 1.512E-02 2.480E+00 5.164E+03  6.3929 0.99996
  1.400E+04 1.411E+04 2.486E+00 6.459E-03 7.007E-03 5.041E-03 1.851E-02 2.505E+00 5.966E+03  6.6930 0.99997
  1.700E+04 1.711E+04 2.513E+00 8.214E-03 9.282E-03 6.276E-03 2.377E-02 2.537E+00 7.156E+03  7.0737 0.99998
  2.000E+04 2.011E+04 2.535E+00 1.003E-02 1.169E-02 7.492E-03 2.921E-02 2.564E+00 8.332E+03  7.3942 0.99999
  2.500E+04 2.511E+04 2.564E+00 1.318E-02 1.594E-02 9.494E-03 3.862E-02 2.603E+00 1.027E+04  7.8364 0.99999
  3.000E+04 3.011E+04 2.587E+00 1.646E-02 2.044E-02 1.146E-02 4.836E-02 2.636E+00 1.218E+04  8.1989 0.99999
  3.500E+04 3.511E+04 2.607E+00 1.983E-02 2.513E-02 1.346E-02 5.842E-02 2.665E+00 1.406E+04  8.5060 1.00000
  4.000E+04 4.011E+04 2.623E+00 2.329E-02 2.999E-02 1.544E-02 6.871E-02 2.692E+00 1.593E+04  8.7722 1.00000
  4.500E+04 4.511E+04 2.637E+00 2.682E-02 3.499E-02 1.739E-02 7.920E-02 2.717E+00 1.778E+04  9.0072 1.00000
  5.000E+04 5.011E+04 2.650E+00 3.042E-02 4.011E-02 1.935E-02 8.988E-02 2.740E+00 1.961E+04  9.2175 1.00000
  5.500E+04 5.511E+04 2.662E+00 3.408E-02 4.535E-02 2.132E-02 1.007E-01 2.762E+00 2.143E+04  9.4077 1.00000
  6.000E+04 6.011E+04 2.672E+00 3.779E-02 5.067E-02 2.327E-02 1.117E-01 2.784E+00 2.323E+04  9.5814 1.00000
  7.000E+04 7.011E+04 2.690E+00 4.534E-02 6.158E-02 2.715E-02 1.341E-01 2.824E+00 2.680E+04  9.8892 1.00000
  8.000E+04 8.011E+04 2.706E+00 5.307E-02 7.278E-02 3.105E-02 1.569E-01 2.862E+00 3.032E+04 10.1559 1.00000
  9.000E+04 9.011E+04 2.719E+00 6.092E-02 8.422E-02 3.495E-02 1.801E-01 2.899E+00 3.379E+04 10.3912 1.00000
  1.000E+05 1.001E+05 2.731E+00 6.891E-02 9.587E-02 3.878E-02 2.036E-01 2.935E+00 3.722E+04 10.6016 1.00000
  1.200E+05 1.201E+05 2.752E+00 8.518E-02 1.197E-01 4.660E-02 2.515E-01 3.003E+00 4.395E+04 10.9659 1.00000
  1.400E+05 1.401E+05 2.769E+00 1.018E-01 1.441E-01 5.442E-02 3.003E-01 3.070E+00 5.054E+04 11.2740 1.00000
  1.700E+05 1.701E+05 2.791E+00 1.273E-01 1.815E-01 6.617E-02 3.749E-01 3.166E+00 6.016E+04 11.6620 1.00000
  2.000E+05 2.001E+05 2.810E+00 1.533E-01 2.196E-01 7.800E-02 4.509E-01 3.261E+00 6.950E+04 11.9869 1.00000
  2.500E+05 2.501E+05 2.835E+00 1.976E-01 2.846E-01 9.780E-02 5.800E-01 3.415E+00 8.449E+04 12.4330 1.00000
  3.000E+05 3.001E+05 2.855E+00 2.428E-01 3.509E-01 1.178E-01 7.114E-01 3.566E+00 9.882E+04 12.7975 1.00000
  3.500E+05 3.501E+05 2.872E+00 2.887E-01 4.181E-01 1.380E-01 8.448E-01 3.717E+00 1.126E+05 13.1057 1.00000
  4.000E+05 4.001E+05 2.887E+00 3.352E-01 4.860E-01 1.583E-01 9.796E-01 3.867E+00 1.257E+05 13.3726 1.00000
  4.500E+05 4.501E+05 2.900E+00 3.822E-01 5.546E-01 1.788E-01 1.116E+00 4.016E+00 1.384E+05 13.6082 1.00000
  5.000E+05 5.001E+05 2.912E+00 4.297E-01 6.237E-01 1.994E-01 1.253E+00 4.165E+00 1.507E+05 13.8188 1.00000
  5.500E+05 5.501E+05 2.923E+00 4.776E-01 6.932E-01 2.199E-01 1.391E+00 4.314E+00 1.625E+05 14.0094 1.00000
  6.000E+05 6.001E+05 2.933E+00 5.258E-01 7.631E-01 2.405E-01 1.529E+00 4.462E+00 1.739E+05 14.1834 1.00000
  7.000E+05 7.001E+05 2.950E+00 6.230E-01 9.038E-01 2.821E-01 1.809E+00 4.759E+00 1.956E+05 14.4917 1.00000
  8.000E+05 8.001E+05 2.965E+00 7.213E-01 1.046E+00 3.241E-01 2.091E+00 5.056E+00 2.160E+05 14.7587 1.00000
  9.000E+05 9.001E+05 2.979E+00 8.203E-01 1.188E+00 3.666E-01 2.375E+00 5.354E+00 2.352E+05 14.9942 1.00000
  1.000E+06 1.000E+06 2.991E+00 9.200E-01 1.331E+00 4.095E-01 2.661E+00 5.652E+00 2.534E+05 15.2049 1.00000
  1.200E+06 1.200E+06 3.012E+00 1.121E+00 1.620E+00 4.962E-01 3.237E+00 6.249E+00 2.871E+05 15.5695 1.00000
  1.400E+06 1.400E+06 3.029E+00 1.324E+00 1.909E+00 5.842E-01 3.818E+00 6.847E+00 3.177E+05 15.8778 1.00000
  1.700E+06 1.700E+06 3.052E+00 1.631E+00 2.346E+00 7.183E-01 4.696E+00 7.748E+00 3.590E+05 16.2661 1.00000
  2.000E+06 2.000E+06 3.071E+00 1.941E+00 2.786E+00 8.546E-01 5.582E+00 8.652E+00 3.957E+05 16.5911 1.00000
  2.500E+06 2.500E+06 3.097E+00 2.462E+00 3.521E+00 1.086E+00 7.069E+00 1.017E+01 4.491E+05 17.0374 1.00000
  3.000E+06 3.000E+06 3.119E+00 2.986E+00 4.260E+00 1.322E+00 8.568E+00 1.169E+01 4.951E+05 17.4020 1.00000
  3.500E+06 3.500E+06 3.137E+00 3.514E+00 5.000E+00 1.562E+00 1.008E+01 1.321E+01 5.354E+05 17.7103 1.00000
  4.000E+06 4.000E+06 3.153E+00 4.044E+00 5.743E+00 1.805E+00 1.159E+01 1.474E+01 5.713E+05 17.9773 1.00000
  4.500E+06 4.500E+06 3.167E+00 4.576E+00 6.486E+00 2.051E+00 1.311E+01 1.628E+01 6.036E+05 18.2129 1.00000
  5.000E+06 5.000E+06 3.180E+00 5.109E+00 7.231E+00 2.300E+00 1.464E+01 1.782E+01 6.330E+05 18.4236 1.00000
  5.500E+06 5.500E+06 3.192E+00 5.644E+00 7.977E+00 2.551E+00 1.617E+01 1.936E+01 6.599E+05 18.6142 1.00000
  6.000E+06 6.000E+06 3.203E+00 6.180E+00 8.723E+00 2.805E+00 1.771E+01 2.091E+01 6.848E+05 18.7883 1.00000
  7.000E+06 7.000E+06 3.221E+00 7.255E+00 1.022E+01 3.319E+00 2.079E+01 2.401E+01 7.295E+05 19.0965 1.00000
  8.000E+06 8.000E+06 3.238E+00 8.334E+00 1.171E+01 3.841E+00 2.389E+01 2.713E+01 7.688E+05 19.3636 1.00000
  9.000E+06 9.000E+06 3.253E+00 9.414E+00 1.321E+01 4.370E+00 2.700E+01 3.025E+01 8.038E+05 19.5992 1.00000
  1.000E+07 1.000E+07 3.266E+00 1.050E+01 1.471E+01 4.905E+00 3.011E+01 3.338E+01 8.353E+05 19.8099 1.00000
  1.200E+07 1.200E+07 3.289E+00 1.267E+01 1.771E+01 5.991E+00 3.637E+01 3.966E+01 8.905E+05 20.1745 1.00000
  1.400E+07 1.400E+07 3.308E+00 1.484E+01 2.071E+01 7.097E+00 4.265E+01 4.596E+01 9.374E+05 20.4828 1.00000
  1.700E+07 1.700E+07 3.333E+00 1.811E+01 2.522E+01 8.787E+00 5.212E+01 5.546E+01 9.971E+05 20.8711 1.00000
  2.000E+07 2.000E+07 3.354E+00 2.139E+01 2.973E+01 1.051E+01 6.163E+01 6.499E+01 1.047E+06 21.1962 1.00000
  2.500E+07 2.500E+07 3.383E+00 2.686E+01 3.726E+01 1.344E+01 7.756E+01 8.094E+01 1.117E+06 21.6425 1.00000
  3.000E+07 3.000E+07 3.407E+00 3.234E+01 4.478E+01 1.644E+01 9.357E+01 9.697E+01 1.173E+06 22.0071 1.00000
  3.500E+07 3.500E+07 3.428E+00 3.783E+01 5.231E+01 1.949E+01 1.096E+02 1.131E+02 1.221E+06 22.3154 1.00000
  4.000E+07 4.000E+07 3.445E+00 4.332E+01 5.985E+01 2.259E+01 1.258E+02 1.292E+02 1.263E+06 22.5825 1.00000
  4.500E+07 4.500E+07 3.461E+00 4.882E+01 6.738E+01 2.574E+01 1.419E+02 1.454E+02 1.299E+06 22.8180 1.00000
  5.000E+07 5.000E+07 3.475E+00 5.432E+01 7.492E+01 2.892E+01 1.582E+02 1.616E+02 1.332E+06 23.0287 1.00000
  5.500E+07 5.500E+07 3.488E+00 5.982E+01 8.245E+01 3.214E+01 1.744E+02 1.779E+02 1.361E+06 23.2194 1.00000
  6.000E+07 6.000E+07 3.500E+00 6.533E+01 8.999E+01 3.539E+01 1.907E+02 1.942E+02 1.388E+06 23.3934 1.00000
  7.000E+07 7.000E+07 3.521E+00 7.634E+01 1.051E+02 4.199E+01 2.234E+02 2.269E+02 1.436E+06 23.7017 1.00000
  8.000E+07 8.000E+07 3.540E+00 8.736E+01 1.201E+02 4.869E+01 2.562E+02 2.597E+02 1.477E+06 23.9688 1.00000
  9.000E+07 9.000E+07 3.556E+00 9.838E+01 1.352E+02 5.548E+01 2.891E+02 2.927E+02 1.514E+06 24.2043 1.00000
  1.000E+08 1.000E+08 3.570E+00 1.094E+02 1.503E+02 6.237E+01 3.221E+02 3.257E+02 1.546E+06 24.4150 1.00000
  1.200E+08 1.200E+08 3.596E+00 1.315E+02 1.805E+02 7.636E+01 3.883E+02 3.919E+02 1.602E+06 24.7797 1.00000
  1.400E+08 1.400E+08 3.618E+00 1.535E+02 2.106E+02 9.062E+01 4.548E+02 4.584E+02 1.650E+06 25.0880 1.00000
  1.700E+08 1.700E+08 3.646E+00 1.867E+02 2.559E+02 1.124E+02 5.550E+02 5.587E+02 1.709E+06 25.4763 1.00000
  2.000E+08 2.000E+08 3.669E+00 2.198E+02 3.012E+02 1.347E+02 6.557E+02 6.593E+02 1.759E+06 25.8013 1.00000
  2.500E+08 2.500E+08 3.701E+00 2.750E+02 3.766E+02 1.727E+02 8.243E+02 8.280E+02 1.827E+06 26.2476 1.00000
  3.000E+08 3.000E+08 3.728E+00 3.302E+02 4.521E+02 2.115E+02 9.938E+02 9.975E+02 1.882E+06 26.6123 1.00000
  3.500E+08 3.500E+08 3.751E+00 3.855E+02 5.275E+02 2.511E+02 1.164E+03 1.168E+03 1.929E+06 26.9206 1.00000
  4.000E+08 4.000E+08 3.771E+00 4.407E+02 6.029E+02 2.914E+02 1.335E+03 1.339E+03 1.969E+06 27.1876 1.00000
  4.500E+08 4.500E+08 3.788E+00 4.960E+02 6.784E+02 3.322E+02 1.507E+03 1.510E+03 2.004E+06 27.4232 1.00000
  5.000E+08 5.000E+08 3.804E+00 5.513E+02 7.538E+02 3.736E+02 1.679E+03 1.683E+03 2.035E+06 27.6339 1.00000
  5.500E+08 5.500E+08 3.818E+00 6.065E+02 8.293E+02 4.155E+02 1.851E+03 1.855E+03 2.064E+06 27.8245 1.00000
  6.000E+08 6.000E+08 3.832E+00 6.618E+02 9.047E+02 4.578E+02 2.024E+03 2.028E+03 2.090E+06 27.9986 1.00000
  7.000E+08 7.000E+08 3.855E+00 7.723E+02 1.056E+03 5.437E+02 2.372E+03 2.376E+03 2.135E+06 28.3069 1.00000
  8.000E+08 8.000E+08 3.876E+00 8.829E+02 1.206E+03 6.311E+02 2.720E+03 2.724E+03 2.175E+06 28.5739 1.00000
  9.000E+08 9.000E+08 3.894E+00 9.934E+02 1.357E+03 7.197E+02 3.071E+03 3.074E+03 2.209E+06 28.8095 1.00000
  1.000E+09 1.000E+09 3.910E+00 1.104E+03 1.508E+03 8.096E+02 3.422E+03 3.426E+03 2.240E+06 29.0202 1.00000
