 Incident particle is a Muon with M = 105.65839 MeV
 Index = 0: VitonFluoroelastomer
      Absorber with <Z/A> = 0.48584
 Sternheimer coef:  a     k=m_s   x_0    x_1    I[eV]   Cbar  delta0
                 0.0997  3.4556  0.2106  2.7874   98.6  3.5943 0.00

 *** Table generated with PUMAS v1.00 ***

      T         p     Ionization  brems     pair     photonuc  Radloss    dE/dx   CSDA Range  delta   beta
    [MeV]    [MeV/c]  -----------------------[MeV cm^2/g]------------------------  [g/cm^2]
  1.000E+00 1.457E+01 4.205E+01 8.200E-07 0.000E+00 0.000E+00 8.200E-07 4.205E+01 1.189E-02  0.0000 0.13661
  1.200E+00 1.597E+01 3.634E+01 9.405E-07 0.000E+00 0.000E+00 9.405E-07 3.634E+01 1.702E-02  0.0000 0.14944
  1.400E+00 1.726E+01 3.211E+01 1.056E-06 0.000E+00 0.000E+00 1.056E-06 3.211E+01 2.289E-02  0.0000 0.16119
  1.700E+00 1.903E+01 2.745E+01 1.220E-06 0.000E+00 0.000E+00 1.220E-06 2.745E+01 3.302E-02  0.0000 0.17725
  2.000E+00 2.066E+01 2.408E+01 1.375E-06 0.000E+00 0.000E+00 1.375E-06 2.408E+01 4.472E-02  0.0000 0.19186
  2.500E+00 2.312E+01 2.010E+01 1.619E-06 0.000E+00 0.000E+00 1.619E-06 2.010E+01 6.754E-02  0.0000 0.21376
  3.000E+00 2.536E+01 1.735E+01 1.846E-06 0.000E+00 0.000E+00 1.846E-06 1.735E+01 9.439E-02  0.0000 0.23336
  3.500E+00 2.742E+01 1.532E+01 2.061E-06 0.000E+00 0.000E+00 2.061E-06 1.532E+01 1.251E-01  0.0000 0.25120
  4.000E+00 2.935E+01 1.376E+01 2.265E-06 0.000E+00 0.000E+00 2.265E-06 1.376E+01 1.596E-01  0.0000 0.26763
  4.500E+00 3.116E+01 1.253E+01 2.460E-06 0.000E+00 0.000E+00 2.460E-06 1.253E+01 1.977E-01  0.0000 0.28290
  5.000E+00 3.289E+01 1.152E+01 2.646E-06 0.000E+00 0.000E+00 2.646E-06 1.152E+01 2.394E-01  0.0000 0.29720
  5.500E+00 3.453E+01 1.068E+01 2.825E-06 0.000E+00 0.000E+00 2.825E-06 1.068E+01 2.845E-01  0.0000 0.31066
  6.000E+00 3.611E+01 9.970E+00 2.998E-06 0.000E+00 0.000E+00 2.998E-06 9.970E+00 3.330E-01  0.0000 0.32339
  7.000E+00 3.909E+01 8.837E+00 3.327E-06 0.000E+00 0.000E+00 3.327E-06 8.837E+00 4.397E-01  0.0000 0.34700
  8.000E+00 4.189E+01 7.969E+00 3.637E-06 0.000E+00 0.000E+00 3.637E-06 7.969E+00 5.590E-01  0.0000 0.36854
  9.000E+00 4.453E+01 7.282E+00 3.931E-06 0.000E+00 0.000E+00 3.931E-06 7.282E+00 6.904E-01  0.0000 0.38836
  1.000E+01 4.704E+01 6.724E+00 4.211E-06 0.000E+00 0.000E+00 4.211E-06 6.724E+00 8.335E-01  0.0000 0.40675
  1.200E+01 5.177E+01 5.873E+00 4.738E-06 0.000E+00 0.000E+00 4.738E-06 5.873E+00 1.152E+00  0.0000 0.43998
  1.400E+01 5.616E+01 5.253E+00 5.228E-06 0.000E+00 0.000E+00 5.228E-06 5.253E+00 1.513E+00  0.0000 0.46937
  1.700E+01 6.230E+01 4.584E+00 5.912E-06 0.000E+00 0.000E+00 5.912E-06 4.584E+00 2.126E+00  0.0000 0.50792
  2.000E+01 6.802E+01 4.108E+00 6.549E-06 0.000E+00 0.000E+00 6.549E-06 4.108E+00 2.818E+00  0.0000 0.54129
  2.500E+01 7.686E+01 3.560E+00 7.538E-06 0.000E+00 0.000E+00 7.538E-06 3.560E+00 4.129E+00  0.0000 0.58827
  3.000E+01 8.509E+01 3.191E+00 8.465E-06 0.000E+00 0.000E+00 8.465E-06 3.191E+00 5.615E+00  0.0000 0.62720
  3.500E+01 9.285E+01 2.926E+00 9.351E-06 0.000E+00 0.000E+00 9.351E-06 2.926E+00 7.253E+00  0.0000 0.66011
  4.000E+01 1.003E+02 2.727E+00 1.021E-05 0.000E+00 0.000E+00 1.021E-05 2.727E+00 9.024E+00  0.0000 0.68834
  4.500E+01 1.074E+02 2.573E+00 1.105E-05 0.000E+00 0.000E+00 1.105E-05 2.573E+00 1.091E+01  0.0000 0.71286
  5.000E+01 1.143E+02 2.451E+00 1.188E-05 0.000E+00 0.000E+00 1.188E-05 2.451E+00 1.290E+01  0.0000 0.73434
  5.500E+01 1.210E+02 2.351E+00 1.270E-05 0.000E+00 0.000E+00 1.270E-05 2.351E+00 1.499E+01  0.0000 0.75332
  6.000E+01 1.276E+02 2.269E+00 1.352E-05 0.000E+00 0.000E+00 1.352E-05 2.269E+00 1.715E+01  0.0000 0.77019
  7.000E+01 1.403E+02 2.143E+00 1.517E-05 0.000E+00 0.000E+00 1.517E-05 2.143E+00 2.169E+01  0.0000 0.79887
  8.000E+01 1.527E+02 2.052E+00 1.682E-05 0.000E+00 0.000E+00 1.682E-05 2.052E+00 2.646E+01  0.0000 0.82227
  9.000E+01 1.647E+02 1.983E+00 1.849E-05 0.000E+00 0.000E+00 1.849E-05 1.983E+00 3.142E+01  0.0000 0.84166
  1.000E+02 1.764E+02 1.930E+00 2.019E-05 0.000E+00 0.000E+00 2.019E-05 1.930E+00 3.653E+01  0.0145 0.85794
  1.200E+02 1.994E+02 1.851E+00 2.368E-05 0.000E+00 0.000E+00 2.368E-05 1.851E+00 4.711E+01  0.0789 0.88361
  1.400E+02 2.218E+02 1.800E+00 2.729E-05 0.000E+00 0.000E+00 2.729E-05 1.800E+00 5.807E+01  0.1423 0.90278
  1.700E+02 2.546E+02 1.753E+00 3.294E-05 4.887E-14 0.000E+00 3.294E-05 1.753E+00 7.496E+01  0.2346 0.92363
  2.000E+02 2.868E+02 1.727E+00 3.886E-05 1.093E-11 0.000E+00 3.886E-05 1.727E+00 9.220E+01  0.3230 0.93835
  2.500E+02 3.396E+02 1.706E+00 4.932E-05 8.957E-08 0.000E+00 4.941E-05 1.706E+00 1.213E+02  0.4619 0.95485
  3.000E+02 3.917E+02 1.701E+00 6.046E-05 8.029E-07 0.000E+00 6.126E-05 1.701E+00 1.507E+02  0.5909 0.96548
  3.500E+02 4.432E+02 1.703E+00 7.221E-05 2.215E-06 0.000E+00 7.442E-05 1.703E+00 1.801E+02  0.7112 0.97274
  4.000E+02 4.945E+02 1.708E+00 8.452E-05 4.295E-06 0.000E+00 8.882E-05 1.708E+00 2.094E+02  0.8239 0.97793
  4.500E+02 5.455E+02 1.716E+00 9.736E-05 7.018E-06 0.000E+00 1.044E-04 1.716E+00 2.386E+02  0.9299 0.98176
  5.000E+02 5.964E+02 1.724E+00 1.107E-04 1.036E-05 0.000E+00 1.210E-04 1.725E+00 2.676E+02  1.0299 0.98467
  5.500E+02 6.471E+02 1.734E+00 1.244E-04 1.430E-05 0.000E+00 1.387E-04 1.734E+00 2.966E+02  1.1247 0.98693
  6.000E+02 6.977E+02 1.743E+00 1.386E-04 1.882E-05 0.000E+00 1.574E-04 1.743E+00 3.253E+02  1.2147 0.98873
  7.000E+02 7.987E+02 1.761E+00 1.682E-04 2.952E-05 0.000E+00 1.977E-04 1.761E+00 3.824E+02  1.3823 0.99136
  8.000E+02 8.995E+02 1.778E+00 1.991E-04 4.230E-05 0.000E+00 2.414E-04 1.778E+00 4.389E+02  1.5358 0.99317
  9.000E+02 1.000E+03 1.794E+00 2.313E-04 5.704E-05 0.000E+00 2.884E-04 1.794E+00 4.949E+02  1.6775 0.99447
  1.000E+03 1.101E+03 1.809E+00 2.647E-04 7.362E-05 0.000E+00 3.384E-04 1.809E+00 5.504E+02  1.8092 0.99542
  1.200E+03 1.301E+03 1.835E+00 3.347E-04 1.119E-04 2.255E-05 4.691E-04 1.836E+00 6.602E+02  2.0475 0.99672
  1.400E+03 1.502E+03 1.859E+00 4.084E-04 1.563E-04 6.169E-05 6.264E-04 1.859E+00 7.684E+02  2.2591 0.99753
  1.700E+03 1.803E+03 1.888E+00 5.249E-04 2.333E-04 1.322E-04 8.904E-04 1.889E+00 9.285E+02  2.5380 0.99829
  2.000E+03 2.103E+03 1.913E+00 6.477E-04 3.214E-04 2.153E-04 1.184E-03 1.915E+00 1.086E+03  2.7816 0.99874
  2.500E+03 2.604E+03 1.948E+00 8.642E-04 4.892E-04 3.762E-04 1.730E-03 1.950E+00 1.345E+03  3.1301 0.99918
  3.000E+03 3.104E+03 1.976E+00 1.093E-03 6.799E-04 5.453E-04 2.318E-03 1.978E+00 1.600E+03  3.4259 0.99942
  3.500E+03 3.604E+03 1.999E+00 1.333E-03 8.901E-04 7.246E-04 2.948E-03 2.002E+00 1.851E+03  3.6832 0.99957
  4.000E+03 4.104E+03 2.019E+00 1.582E-03 1.131E-03 9.164E-04 3.629E-03 2.023E+00 2.099E+03  3.9110 0.99967
  4.500E+03 4.604E+03 2.036E+00 1.839E-03 1.393E-03 1.116E-03 4.348E-03 2.041E+00 2.346E+03  4.1155 0.99974
  5.000E+03 5.105E+03 2.052E+00 2.104E-03 1.671E-03 1.308E-03 5.083E-03 2.057E+00 2.590E+03  4.3011 0.99979
  5.500E+03 5.605E+03 2.065E+00 2.375E-03 1.963E-03 1.515E-03 5.853E-03 2.071E+00 2.832E+03  4.4710 0.99982
  6.000E+03 6.105E+03 2.078E+00 2.652E-03 2.268E-03 1.708E-03 6.628E-03 2.084E+00 3.072E+03  4.6277 0.99985
  7.000E+03 7.105E+03 2.099E+00 3.223E-03 2.913E-03 2.117E-03 8.254E-03 2.108E+00 3.550E+03  4.9089 0.99989
  8.000E+03 8.105E+03 2.118E+00 3.814E-03 3.599E-03 2.525E-03 9.938E-03 2.128E+00 4.022E+03  5.1557 0.99992
  9.000E+03 9.105E+03 2.133E+00 4.422E-03 4.323E-03 2.908E-03 1.165E-02 2.145E+00 4.490E+03  5.3758 0.99993
  1.000E+04 1.011E+04 2.147E+00 5.046E-03 5.078E-03 3.303E-03 1.343E-02 2.161E+00 4.954E+03  5.5743 0.99995
  1.200E+04 1.211E+04 2.171E+00 6.333E-03 6.676E-03 4.107E-03 1.712E-02 2.188E+00 5.874E+03  5.9214 0.99996
  1.400E+04 1.411E+04 2.191E+00 7.667E-03 8.372E-03 4.913E-03 2.095E-02 2.212E+00 6.783E+03  6.2178 0.99997
  1.700E+04 1.711E+04 2.215E+00 9.742E-03 1.107E-02 6.108E-03 2.692E-02 2.242E+00 8.131E+03  6.5946 0.99998
  2.000E+04 2.011E+04 2.234E+00 1.189E-02 1.392E-02 7.283E-03 3.309E-02 2.268E+00 9.461E+03  6.9124 0.99999
  2.500E+04 2.511E+04 2.261E+00 1.561E-02 1.895E-02 9.216E-03 4.377E-02 2.304E+00 1.165E+04  7.3516 0.99999
  3.000E+04 3.011E+04 2.281E+00 1.946E-02 2.426E-02 1.112E-02 5.484E-02 2.336E+00 1.380E+04  7.7124 0.99999
  3.500E+04 3.511E+04 2.299E+00 2.343E-02 2.980E-02 1.304E-02 6.627E-02 2.365E+00 1.593E+04  8.0185 1.00000
  4.000E+04 4.011E+04 2.313E+00 2.750E-02 3.553E-02 1.494E-02 7.797E-02 2.391E+00 1.803E+04  8.2843 1.00000
  4.500E+04 4.511E+04 2.326E+00 3.166E-02 4.142E-02 1.682E-02 8.990E-02 2.416E+00 2.011E+04  8.5190 1.00000
  5.000E+04 5.011E+04 2.337E+00 3.588E-02 4.745E-02 1.870E-02 1.020E-01 2.440E+00 2.217E+04  8.7291 1.00000
  5.500E+04 5.511E+04 2.348E+00 4.018E-02 5.361E-02 2.060E-02 1.144E-01 2.462E+00 2.421E+04  8.9193 1.00000
  6.000E+04 6.011E+04 2.357E+00 4.453E-02 5.988E-02 2.247E-02 1.269E-01 2.484E+00 2.624E+04  9.0930 1.00000
  7.000E+04 7.011E+04 2.373E+00 5.340E-02 7.270E-02 2.620E-02 1.523E-01 2.525E+00 3.023E+04  9.4008 1.00000
  8.000E+04 8.011E+04 2.387E+00 6.245E-02 8.585E-02 2.994E-02 1.782E-01 2.565E+00 3.416E+04  9.6675 1.00000
  9.000E+04 9.011E+04 2.399E+00 7.165E-02 9.928E-02 3.368E-02 2.046E-01 2.603E+00 3.803E+04  9.9028 1.00000
  1.000E+05 1.001E+05 2.410E+00 8.100E-02 1.129E-01 3.736E-02 2.313E-01 2.641E+00 4.184E+04 10.1132 1.00000
  1.200E+05 1.201E+05 2.428E+00 1.000E-01 1.408E-01 4.485E-02 2.857E-01 2.714E+00 4.931E+04 10.4775 1.00000
  1.400E+05 1.401E+05 2.444E+00 1.195E-01 1.694E-01 5.234E-02 3.412E-01 2.785E+00 5.659E+04 10.7856 1.00000
  1.700E+05 1.701E+05 2.463E+00 1.492E-01 2.131E-01 6.360E-02 4.260E-01 2.889E+00 6.717E+04 11.1736 1.00000
  2.000E+05 2.001E+05 2.479E+00 1.796E-01 2.577E-01 7.493E-02 5.123E-01 2.991E+00 7.737E+04 11.4985 1.00000
  2.500E+05 2.501E+05 2.501E+00 2.312E-01 3.336E-01 9.387E-02 6.587E-01 3.160E+00 9.364E+04 11.9446 1.00000
  3.000E+05 3.001E+05 2.520E+00 2.839E-01 4.108E-01 1.130E-01 8.077E-01 3.327E+00 1.091E+05 12.3091 1.00000
  3.500E+05 3.501E+05 2.535E+00 3.374E-01 4.891E-01 1.323E-01 9.588E-01 3.494E+00 1.237E+05 12.6173 1.00000
  4.000E+05 4.001E+05 2.548E+00 3.915E-01 5.683E-01 1.518E-01 1.112E+00 3.660E+00 1.377E+05 12.8842 1.00000
  4.500E+05 4.501E+05 2.560E+00 4.462E-01 6.480E-01 1.713E-01 1.266E+00 3.825E+00 1.511E+05 13.1198 1.00000
  5.000E+05 5.001E+05 2.570E+00 5.014E-01 7.284E-01 1.910E-01 1.421E+00 3.991E+00 1.639E+05 13.3304 1.00000
  5.500E+05 5.501E+05 2.580E+00 5.570E-01 8.092E-01 2.106E-01 1.577E+00 4.157E+00 1.762E+05 13.5210 1.00000
  6.000E+05 6.001E+05 2.589E+00 6.130E-01 8.905E-01 2.303E-01 1.734E+00 4.322E+00 1.880E+05 13.6950 1.00000
  7.000E+05 7.001E+05 2.604E+00 7.259E-01 1.054E+00 2.700E-01 2.050E+00 4.654E+00 2.103E+05 14.0033 1.00000
  8.000E+05 8.001E+05 2.618E+00 8.399E-01 1.219E+00 3.102E-01 2.369E+00 4.986E+00 2.310E+05 14.2703 1.00000
  9.000E+05 9.001E+05 2.630E+00 9.548E-01 1.384E+00 3.508E-01 2.690E+00 5.319E+00 2.505E+05 14.5058 1.00000
  1.000E+06 1.000E+06 2.640E+00 1.070E+00 1.550E+00 3.917E-01 3.012E+00 5.653E+00 2.687E+05 14.7165 1.00000
  1.200E+06 1.200E+06 2.659E+00 1.304E+00 1.884E+00 4.746E-01 3.663E+00 6.321E+00 3.022E+05 15.0811 1.00000
  1.400E+06 1.400E+06 2.675E+00 1.539E+00 2.220E+00 5.587E-01 4.318E+00 6.993E+00 3.323E+05 15.3894 1.00000
  1.700E+06 1.700E+06 2.695E+00 1.894E+00 2.727E+00 6.867E-01 5.308E+00 8.003E+00 3.725E+05 15.7777 1.00000
  2.000E+06 2.000E+06 2.712E+00 2.253E+00 3.236E+00 8.169E-01 6.305E+00 9.017E+00 4.079E+05 16.1027 1.00000
  2.500E+06 2.500E+06 2.735E+00 2.855E+00 4.087E+00 1.038E+00 7.980E+00 1.071E+01 4.590E+05 16.5490 1.00000
  3.000E+06 3.000E+06 2.754E+00 3.461E+00 4.942E+00 1.263E+00 9.666E+00 1.242E+01 5.024E+05 16.9136 1.00000
  3.500E+06 3.500E+06 2.771E+00 4.071E+00 5.799E+00 1.492E+00 1.136E+01 1.413E+01 5.403E+05 17.2219 1.00000
  4.000E+06 4.000E+06 2.785E+00 4.683E+00 6.658E+00 1.724E+00 1.306E+01 1.585E+01 5.737E+05 17.4889 1.00000
  4.500E+06 4.500E+06 2.798E+00 5.297E+00 7.518E+00 1.959E+00 1.477E+01 1.757E+01 6.037E+05 17.7245 1.00000
  5.000E+06 5.000E+06 2.809E+00 5.913E+00 8.379E+00 2.197E+00 1.649E+01 1.930E+01 6.309E+05 17.9352 1.00000
  5.500E+06 5.500E+06 2.819E+00 6.531E+00 9.241E+00 2.437E+00 1.821E+01 2.103E+01 6.557E+05 18.1258 1.00000
  6.000E+06 6.000E+06 2.829E+00 7.149E+00 1.010E+01 2.679E+00 1.993E+01 2.276E+01 6.786E+05 18.2999 1.00000
  7.000E+06 7.000E+06 2.846E+00 8.389E+00 1.183E+01 3.170E+00 2.339E+01 2.624E+01 7.196E+05 18.6081 1.00000
  8.000E+06 8.000E+06 2.860E+00 9.633E+00 1.356E+01 3.668E+00 2.686E+01 2.972E+01 7.555E+05 18.8752 1.00000
  9.000E+06 9.000E+06 2.873E+00 1.088E+01 1.529E+01 4.173E+00 3.034E+01 3.322E+01 7.874E+05 19.1108 1.00000
  1.000E+07 1.000E+07 2.885E+00 1.213E+01 1.703E+01 4.684E+00 3.384E+01 3.672E+01 8.161E+05 19.3215 1.00000
  1.200E+07 1.200E+07 2.905E+00 1.463E+01 2.049E+01 5.721E+00 4.084E+01 4.375E+01 8.662E+05 19.6861 1.00000
  1.400E+07 1.400E+07 2.923E+00 1.714E+01 2.396E+01 6.776E+00 4.788E+01 5.080E+01 9.087E+05 19.9944 1.00000
  1.700E+07 1.700E+07 2.945E+00 2.091E+01 2.917E+01 8.390E+00 5.847E+01 6.141E+01 9.627E+05 20.3827 1.00000
  2.000E+07 2.000E+07 2.964E+00 2.468E+01 3.439E+01 1.003E+01 6.910E+01 7.206E+01 1.008E+06 20.7078 1.00000
  2.500E+07 2.500E+07 2.989E+00 3.098E+01 4.308E+01 1.283E+01 8.690E+01 8.988E+01 1.070E+06 21.1541 1.00000
  3.000E+07 3.000E+07 3.011E+00 3.729E+01 5.178E+01 1.569E+01 1.048E+02 1.078E+02 1.121E+06 21.5187 1.00000
  3.500E+07 3.500E+07 3.029E+00 4.361E+01 6.048E+01 1.861E+01 1.227E+02 1.257E+02 1.164E+06 21.8270 1.00000
  4.000E+07 4.000E+07 3.045E+00 4.993E+01 6.918E+01 2.157E+01 1.407E+02 1.437E+02 1.202E+06 22.0941 1.00000
  4.500E+07 4.500E+07 3.059E+00 5.626E+01 7.789E+01 2.457E+01 1.587E+02 1.618E+02 1.235E+06 22.3296 1.00000
  5.000E+07 5.000E+07 3.071E+00 6.259E+01 8.659E+01 2.761E+01 1.768E+02 1.799E+02 1.264E+06 22.5403 1.00000
  5.500E+07 5.500E+07 3.083E+00 6.892E+01 9.530E+01 3.068E+01 1.949E+02 1.980E+02 1.290E+06 22.7310 1.00000
  6.000E+07 6.000E+07 3.093E+00 7.526E+01 1.040E+02 3.379E+01 2.131E+02 2.162E+02 1.315E+06 22.9050 1.00000
  7.000E+07 7.000E+07 3.112E+00 8.793E+01 1.214E+02 4.008E+01 2.494E+02 2.526E+02 1.358E+06 23.2133 1.00000
  8.000E+07 8.000E+07 3.128E+00 1.006E+02 1.389E+02 4.648E+01 2.859E+02 2.891E+02 1.395E+06 23.4804 1.00000
  9.000E+07 9.000E+07 3.143E+00 1.133E+02 1.563E+02 5.296E+01 3.225E+02 3.257E+02 1.427E+06 23.7159 1.00000
  1.000E+08 1.000E+08 3.156E+00 1.260E+02 1.737E+02 5.953E+01 3.592E+02 3.624E+02 1.457E+06 23.9266 1.00000
  1.200E+08 1.200E+08 3.179E+00 1.514E+02 2.086E+02 7.289E+01 4.328E+02 4.360E+02 1.507E+06 24.2913 1.00000
  1.400E+08 1.400E+08 3.198E+00 1.768E+02 2.434E+02 8.650E+01 5.067E+02 5.099E+02 1.550E+06 24.5996 1.00000
  1.700E+08 1.700E+08 3.223E+00 2.149E+02 2.957E+02 1.073E+02 6.179E+02 6.211E+02 1.603E+06 24.9879 1.00000
  2.000E+08 2.000E+08 3.244E+00 2.530E+02 3.480E+02 1.286E+02 7.295E+02 7.328E+02 1.648E+06 25.3129 1.00000
  2.500E+08 2.500E+08 3.272E+00 3.165E+02 4.351E+02 1.648E+02 9.164E+02 9.197E+02 1.709E+06 25.7592 1.00000
  3.000E+08 3.000E+08 3.296E+00 3.800E+02 5.223E+02 2.019E+02 1.104E+03 1.108E+03 1.759E+06 26.1239 1.00000
  3.500E+08 3.500E+08 3.316E+00 4.436E+02 6.094E+02 2.397E+02 1.293E+03 1.296E+03 1.801E+06 26.4322 1.00000
  4.000E+08 4.000E+08 3.334E+00 5.071E+02 6.966E+02 2.781E+02 1.482E+03 1.485E+03 1.837E+06 26.6992 1.00000
  4.500E+08 4.500E+08 3.350E+00 5.707E+02 7.837E+02 3.171E+02 1.672E+03 1.675E+03 1.869E+06 26.9348 1.00000
  5.000E+08 5.000E+08 3.364E+00 6.343E+02 8.709E+02 3.566E+02 1.862E+03 1.865E+03 1.897E+06 27.1455 1.00000
  5.500E+08 5.500E+08 3.377E+00 6.978E+02 9.581E+02 3.966E+02 2.053E+03 2.056E+03 1.922E+06 27.3361 1.00000
  6.000E+08 6.000E+08 3.388E+00 7.614E+02 1.045E+03 4.370E+02 2.244E+03 2.247E+03 1.946E+06 27.5102 1.00000
  7.000E+08 7.000E+08 3.409E+00 8.885E+02 1.220E+03 5.190E+02 2.627E+03 2.630E+03 1.987E+06 27.8185 1.00000
  8.000E+08 8.000E+08 3.428E+00 1.016E+03 1.394E+03 6.024E+02 3.012E+03 3.015E+03 2.023E+06 28.0855 1.00000
  9.000E+08 9.000E+08 3.444E+00 1.143E+03 1.568E+03 6.870E+02 3.398E+03 3.401E+03 2.054E+06 28.3211 1.00000
  1.000E+09 1.000E+09 3.458E+00 1.270E+03 1.742E+03 7.728E+02 3.785E+03 3.789E+03 2.082E+06 28.5318 1.00000
