 Incident particle is a Muon with M = 105.65839 MeV
 Index = 1: Water
      Absorber with <Z/A> = 0.55508
 Sternheimer coef:  a     k=m_s   x_0    x_1    I[eV]   Cbar  delta0
                 0.0912  3.4773  0.2400  2.8004   79.7  3.5017 0.00

 *** Table generated with PUMAS v0.8 ***

      T         p     Ionization  brems     pair     photonuc  Radloss    dE/dx   CSDA Range  delta   beta
    [MeV]    [MeV/c]  -----------------------[MeV cm^2/g]------------------------  [g/cm^2]
  1.000E+00 1.457E+01 4.999E+01 7.895E-07 0.000E+00 0.000E+00 7.895E-07 4.999E+01 1.000E-02  0.0000 0.13661
  1.200E+00 1.597E+01 4.314E+01 9.047E-07 0.000E+00 0.000E+00 9.047E-07 4.314E+01 1.432E-02  0.0000 0.14944
  1.400E+00 1.726E+01 3.808E+01 1.015E-06 0.000E+00 0.000E+00 1.015E-06 3.808E+01 1.927E-02  0.0000 0.16119
  1.700E+00 1.903E+01 3.252E+01 1.172E-06 0.000E+00 0.000E+00 1.172E-06 3.252E+01 2.782E-02  0.0000 0.17725
  2.000E+00 2.066E+01 2.849E+01 1.320E-06 0.000E+00 0.000E+00 1.320E-06 2.849E+01 3.769E-02  0.0000 0.19186
  2.500E+00 2.312E+01 2.376E+01 1.554E-06 0.000E+00 0.000E+00 1.554E-06 2.376E+01 5.699E-02  0.0000 0.21376
  3.000E+00 2.536E+01 2.049E+01 1.772E-06 0.000E+00 0.000E+00 1.772E-06 2.049E+01 7.972E-02  0.0000 0.23336
  3.500E+00 2.742E+01 1.808E+01 1.978E-06 0.000E+00 0.000E+00 1.978E-06 1.808E+01 1.057E-01  0.0000 0.25120
  4.000E+00 2.935E+01 1.623E+01 2.173E-06 0.000E+00 0.000E+00 2.173E-06 1.623E+01 1.350E-01  0.0000 0.26763
  4.500E+00 3.116E+01 1.476E+01 2.360E-06 0.000E+00 0.000E+00 2.360E-06 1.476E+01 1.673E-01  0.0000 0.28290
  5.000E+00 3.289E+01 1.357E+01 2.539E-06 0.000E+00 0.000E+00 2.539E-06 1.357E+01 2.027E-01  0.0000 0.29720
  5.500E+00 3.453E+01 1.258E+01 2.711E-06 0.000E+00 0.000E+00 2.711E-06 1.258E+01 2.410E-01  0.0000 0.31066
  6.000E+00 3.611E+01 1.174E+01 2.877E-06 0.000E+00 0.000E+00 2.877E-06 1.174E+01 2.821E-01  0.0000 0.32339
  7.000E+00 3.909E+01 1.040E+01 3.194E-06 0.000E+00 0.000E+00 3.194E-06 1.040E+01 3.728E-01  0.0000 0.34700
  8.000E+00 4.189E+01 9.372E+00 3.492E-06 0.000E+00 0.000E+00 3.492E-06 9.372E+00 4.743E-01  0.0000 0.36854
  9.000E+00 4.453E+01 8.560E+00 3.775E-06 0.000E+00 0.000E+00 3.775E-06 8.560E+00 5.860E-01  0.0000 0.38836
  1.000E+01 4.704E+01 7.902E+00 4.045E-06 0.000E+00 0.000E+00 4.045E-06 7.902E+00 7.077E-01  0.0000 0.40675
  1.200E+01 5.177E+01 6.897E+00 4.552E-06 0.000E+00 0.000E+00 4.552E-06 6.897E+00 9.793E-01  0.0000 0.43998
  1.400E+01 5.616E+01 6.166E+00 5.025E-06 0.000E+00 0.000E+00 5.025E-06 6.166E+00 1.286E+00  0.0000 0.46937
  1.700E+01 6.230E+01 5.377E+00 5.686E-06 0.000E+00 0.000E+00 5.686E-06 5.377E+00 1.809E+00  0.0000 0.50792
  2.000E+01 6.802E+01 4.817E+00 6.301E-06 0.000E+00 0.000E+00 6.301E-06 4.817E+00 2.399E+00  0.0000 0.54129
  2.500E+01 7.686E+01 4.172E+00 7.256E-06 0.000E+00 0.000E+00 7.256E-06 4.172E+00 3.517E+00  0.0000 0.58827
  3.000E+01 8.509E+01 3.738E+00 8.152E-06 0.000E+00 0.000E+00 8.152E-06 3.738E+00 4.785E+00  0.0000 0.62720
  3.500E+01 9.285E+01 3.426E+00 9.008E-06 0.000E+00 0.000E+00 9.008E-06 3.426E+00 6.184E+00  0.0000 0.66011
  4.000E+01 1.003E+02 3.192E+00 9.838E-06 0.000E+00 0.000E+00 9.838E-06 3.192E+00 7.697E+00  0.0000 0.68834
  4.500E+01 1.074E+02 3.011E+00 1.065E-05 0.000E+00 0.000E+00 1.065E-05 3.011E+00 9.310E+00  0.0000 0.71286
  5.000E+01 1.143E+02 2.867E+00 1.145E-05 0.000E+00 0.000E+00 1.145E-05 2.867E+00 1.101E+01  0.0000 0.73434
  5.500E+01 1.210E+02 2.750E+00 1.225E-05 0.000E+00 0.000E+00 1.225E-05 2.750E+00 1.279E+01  0.0000 0.75332
  6.000E+01 1.276E+02 2.654E+00 1.304E-05 0.000E+00 0.000E+00 1.304E-05 2.654E+00 1.464E+01  0.0000 0.77019
  7.000E+01 1.403E+02 2.506E+00 1.463E-05 0.000E+00 0.000E+00 1.463E-05 2.506E+00 1.852E+01  0.0000 0.79887
  8.000E+01 1.527E+02 2.398E+00 1.622E-05 0.000E+00 0.000E+00 1.622E-05 2.398E+00 2.260E+01  0.0000 0.82227
  9.000E+01 1.647E+02 2.317E+00 1.784E-05 0.000E+00 0.000E+00 1.784E-05 2.317E+00 2.685E+01  0.0000 0.84166
  1.000E+02 1.764E+02 2.256E+00 1.948E-05 0.000E+00 0.000E+00 1.948E-05 2.256E+00 3.122E+01  0.0000 0.85794
  1.200E+02 1.994E+02 2.164E+00 2.284E-05 0.000E+00 0.000E+00 2.284E-05 2.164E+00 4.028E+01  0.0516 0.88361
  1.400E+02 2.218E+02 2.103E+00 2.632E-05 0.000E+00 0.000E+00 2.632E-05 2.103E+00 4.965E+01  0.1223 0.90278
  1.700E+02 2.546E+02 2.047E+00 3.176E-05 4.661E-14 0.000E+00 3.176E-05 2.047E+00 6.411E+01  0.2237 0.92363
  2.000E+02 2.868E+02 2.014E+00 3.747E-05 1.042E-11 0.000E+00 3.747E-05 2.014E+00 7.889E+01  0.3195 0.93835
  2.500E+02 3.396E+02 1.989E+00 4.754E-05 8.549E-08 0.000E+00 4.763E-05 1.989E+00 1.039E+02  0.4682 0.95485
  3.000E+02 3.917E+02 1.981E+00 5.826E-05 7.625E-07 0.000E+00 5.903E-05 1.981E+00 1.291E+02  0.6049 0.96548
  3.500E+02 4.432E+02 1.982E+00 6.957E-05 2.100E-06 0.000E+00 7.167E-05 1.982E+00 1.543E+02  0.7316 0.97274
  4.000E+02 4.945E+02 1.987E+00 8.142E-05 4.069E-06 0.000E+00 8.549E-05 1.987E+00 1.795E+02  0.8496 0.97793
  4.500E+02 5.455E+02 1.995E+00 9.377E-05 6.645E-06 0.000E+00 1.004E-04 1.995E+00 2.046E+02  0.9601 0.98176
  5.000E+02 5.964E+02 2.005E+00 1.066E-04 9.807E-06 0.000E+00 1.164E-04 2.005E+00 2.296E+02  1.0641 0.98467
  5.500E+02 6.471E+02 2.014E+00 1.198E-04 1.353E-05 0.000E+00 1.334E-04 2.015E+00 2.545E+02  1.1623 0.98693
  6.000E+02 6.977E+02 2.025E+00 1.335E-04 1.781E-05 0.000E+00 1.513E-04 2.025E+00 2.792E+02  1.2554 0.98873
  7.000E+02 7.987E+02 2.044E+00 1.619E-04 2.792E-05 0.000E+00 1.898E-04 2.045E+00 3.284E+02  1.4282 0.99136
  8.000E+02 8.995E+02 2.063E+00 1.916E-04 4.001E-05 0.000E+00 2.316E-04 2.064E+00 3.771E+02  1.5860 0.99317
  9.000E+02 1.000E+03 2.081E+00 2.226E-04 5.395E-05 0.000E+00 2.766E-04 2.082E+00 4.253E+02  1.7313 0.99447
  1.000E+03 1.101E+03 2.098E+00 2.547E-04 6.963E-05 0.000E+00 3.244E-04 2.098E+00 4.732E+02  1.8659 0.99542
  1.200E+03 1.301E+03 2.128E+00 3.220E-04 1.058E-04 2.256E-05 4.503E-04 2.129E+00 5.678E+02  2.1092 0.99672
  1.400E+03 1.502E+03 2.154E+00 3.928E-04 1.478E-04 6.181E-05 6.024E-04 2.155E+00 6.612E+02  2.3246 0.99753
  1.700E+03 1.803E+03 2.188E+00 5.048E-04 2.206E-04 1.327E-04 8.581E-04 2.189E+00 7.993E+02  2.6080 0.99829
  2.000E+03 2.103E+03 2.216E+00 6.229E-04 3.039E-04 2.164E-04 1.143E-03 2.217E+00 9.355E+02  2.8549 0.99874
  2.500E+03 2.604E+03 2.255E+00 8.311E-04 4.626E-04 3.788E-04 1.673E-03 2.257E+00 1.159E+03  3.2074 0.99918
  3.000E+03 3.104E+03 2.287E+00 1.051E-03 6.428E-04 5.500E-04 2.244E-03 2.289E+00 1.379E+03  3.5061 0.99942
  3.500E+03 3.604E+03 2.313E+00 1.282E-03 8.415E-04 7.319E-04 2.856E-03 2.316E+00 1.596E+03  3.7655 0.99957
  4.000E+03 4.104E+03 2.336E+00 1.522E-03 1.072E-03 9.267E-04 3.520E-03 2.339E+00 1.811E+03  3.9950 0.99967
  4.500E+03 4.604E+03 2.356E+00 1.769E-03 1.324E-03 1.130E-03 4.223E-03 2.360E+00 2.024E+03  4.2008 0.99974
  5.000E+03 5.105E+03 2.373E+00 2.024E-03 1.591E-03 1.325E-03 4.940E-03 2.378E+00 2.235E+03  4.3874 0.99979
  5.500E+03 5.605E+03 2.388E+00 2.285E-03 1.871E-03 1.536E-03 5.693E-03 2.394E+00 2.444E+03  4.5581 0.99982
  6.000E+03 6.105E+03 2.403E+00 2.553E-03 2.165E-03 1.733E-03 6.450E-03 2.409E+00 2.653E+03  4.7156 0.99985
  7.000E+03 7.105E+03 2.427E+00 3.103E-03 2.785E-03 2.150E-03 8.039E-03 2.435E+00 3.066E+03  4.9978 0.99989
  8.000E+03 8.105E+03 2.448E+00 3.673E-03 3.446E-03 2.566E-03 9.685E-03 2.458E+00 3.474E+03  5.2454 0.99992
  9.000E+03 9.105E+03 2.466E+00 4.259E-03 4.143E-03 2.957E-03 1.136E-02 2.477E+00 3.880E+03  5.4661 0.99993
  1.000E+04 1.011E+04 2.482E+00 4.861E-03 4.871E-03 3.362E-03 1.309E-02 2.495E+00 4.282E+03  5.6652 0.99995
  1.200E+04 1.211E+04 2.509E+00 6.104E-03 6.412E-03 4.185E-03 1.670E-02 2.526E+00 5.078E+03  6.0129 0.99996
  1.400E+04 1.411E+04 2.531E+00 7.392E-03 8.048E-03 5.010E-03 2.045E-02 2.552E+00 5.866E+03  6.3097 0.99997
  1.700E+04 1.711E+04 2.559E+00 9.397E-03 1.065E-02 6.237E-03 2.628E-02 2.585E+00 7.034E+03  6.6868 0.99998
  2.000E+04 2.011E+04 2.581E+00 1.147E-02 1.341E-02 7.443E-03 3.232E-02 2.614E+00 8.188E+03  7.0048 0.99999
  2.500E+04 2.511E+04 2.611E+00 1.507E-02 1.827E-02 9.428E-03 4.276E-02 2.654E+00 1.009E+04  7.4442 0.99999
  3.000E+04 3.011E+04 2.635E+00 1.880E-02 2.340E-02 1.138E-02 5.359E-02 2.689E+00 1.196E+04  7.8051 0.99999
  3.500E+04 3.511E+04 2.655E+00 2.265E-02 2.876E-02 1.336E-02 6.477E-02 2.719E+00 1.381E+04  8.1112 1.00000
  4.000E+04 4.011E+04 2.671E+00 2.659E-02 3.431E-02 1.532E-02 7.622E-02 2.748E+00 1.564E+04  8.3769 1.00000
  4.500E+04 4.511E+04 2.686E+00 3.062E-02 4.001E-02 1.726E-02 8.789E-02 2.774E+00 1.745E+04  8.6116 1.00000
  5.000E+04 5.011E+04 2.699E+00 3.472E-02 4.586E-02 1.919E-02 9.977E-02 2.799E+00 1.924E+04  8.8217 1.00000
  5.500E+04 5.511E+04 2.711E+00 3.888E-02 5.182E-02 2.115E-02 1.119E-01 2.822E+00 2.102E+04  9.0119 1.00000
  6.000E+04 6.011E+04 2.721E+00 4.311E-02 5.790E-02 2.308E-02 1.241E-01 2.845E+00 2.279E+04  9.1856 1.00000
  7.000E+04 7.011E+04 2.739E+00 5.171E-02 7.033E-02 2.693E-02 1.490E-01 2.888E+00 2.628E+04  9.4934 1.00000
  8.000E+04 8.011E+04 2.755E+00 6.050E-02 8.308E-02 3.079E-02 1.744E-01 2.930E+00 2.971E+04  9.7601 1.00000
  9.000E+04 9.011E+04 2.769E+00 6.944E-02 9.611E-02 3.466E-02 2.002E-01 2.969E+00 3.310E+04  9.9954 1.00000
  1.000E+05 1.001E+05 2.781E+00 7.852E-02 1.094E-01 3.845E-02 2.263E-01 3.008E+00 3.645E+04 10.2058 1.00000
  1.200E+05 1.201E+05 2.802E+00 9.702E-02 1.365E-01 4.619E-02 2.797E-01 3.082E+00 4.302E+04 10.5701 1.00000
  1.400E+05 1.401E+05 2.820E+00 1.159E-01 1.642E-01 5.393E-02 3.340E-01 3.154E+00 4.943E+04 10.8782 1.00000
  1.700E+05 1.701E+05 2.842E+00 1.449E-01 2.067E-01 6.557E-02 4.171E-01 3.259E+00 5.879E+04 11.2662 1.00000
  2.000E+05 2.001E+05 2.861E+00 1.744E-01 2.501E-01 7.728E-02 5.018E-01 3.363E+00 6.785E+04 11.5911 1.00000
  2.500E+05 2.501E+05 2.886E+00 2.247E-01 3.239E-01 9.689E-02 6.454E-01 3.532E+00 8.237E+04 12.0372 1.00000
  3.000E+05 3.001E+05 2.907E+00 2.760E-01 3.990E-01 1.167E-01 7.916E-01 3.699E+00 9.621E+04 12.4017 1.00000
  3.500E+05 3.501E+05 2.924E+00 3.280E-01 4.752E-01 1.367E-01 9.400E-01 3.864E+00 1.094E+05 12.7099 1.00000
  4.000E+05 4.001E+05 2.940E+00 3.808E-01 5.523E-01 1.568E-01 1.090E+00 4.030E+00 1.221E+05 12.9768 1.00000
  4.500E+05 4.501E+05 2.953E+00 4.341E-01 6.300E-01 1.770E-01 1.241E+00 4.194E+00 1.343E+05 13.2124 1.00000
  5.000E+05 5.001E+05 2.965E+00 4.879E-01 7.083E-01 1.975E-01 1.394E+00 4.359E+00 1.460E+05 13.4230 1.00000
  5.500E+05 5.501E+05 2.976E+00 5.422E-01 7.871E-01 2.177E-01 1.547E+00 4.523E+00 1.572E+05 13.6136 1.00000
  6.000E+05 6.001E+05 2.986E+00 5.968E-01 8.663E-01 2.381E-01 1.701E+00 4.687E+00 1.681E+05 13.7876 1.00000
  7.000E+05 7.001E+05 3.004E+00 7.069E-01 1.026E+00 2.793E-01 2.012E+00 5.016E+00 1.887E+05 14.0959 1.00000
  8.000E+05 8.001E+05 3.019E+00 8.182E-01 1.186E+00 3.209E-01 2.325E+00 5.344E+00 2.081E+05 14.3629 1.00000
  9.000E+05 9.001E+05 3.033E+00 9.303E-01 1.348E+00 3.629E-01 2.641E+00 5.673E+00 2.262E+05 14.5984 1.00000
  1.000E+06 1.000E+06 3.045E+00 1.043E+00 1.510E+00 4.053E-01 2.958E+00 6.003E+00 2.434E+05 14.8091 1.00000
  1.200E+06 1.200E+06 3.066E+00 1.271E+00 1.836E+00 4.912E-01 3.598E+00 6.664E+00 2.750E+05 15.1737 1.00000
  1.400E+06 1.400E+06 3.084E+00 1.500E+00 2.164E+00 5.783E-01 4.242E+00 7.327E+00 3.037E+05 15.4820 1.00000
  1.700E+06 1.700E+06 3.107E+00 1.848E+00 2.658E+00 7.110E-01 5.217E+00 8.324E+00 3.422E+05 15.8703 1.00000
  2.000E+06 2.000E+06 3.126E+00 2.198E+00 3.155E+00 8.459E-01 6.199E+00 9.325E+00 3.763E+05 16.1953 1.00000
  2.500E+06 2.500E+06 3.153E+00 2.786E+00 3.986E+00 1.075E+00 7.847E+00 1.100E+01 4.258E+05 16.6416 1.00000
  3.000E+06 3.000E+06 3.175E+00 3.379E+00 4.821E+00 1.308E+00 9.508E+00 1.268E+01 4.683E+05 17.0062 1.00000
  3.500E+06 3.500E+06 3.194E+00 3.975E+00 5.658E+00 1.545E+00 1.118E+01 1.437E+01 5.054E+05 17.3145 1.00000
  4.000E+06 4.000E+06 3.210E+00 4.574E+00 6.497E+00 1.786E+00 1.286E+01 1.607E+01 5.383E+05 17.5815 1.00000
  4.500E+06 4.500E+06 3.225E+00 5.175E+00 7.337E+00 2.030E+00 1.454E+01 1.777E+01 5.679E+05 17.8171 1.00000
  5.000E+06 5.000E+06 3.238E+00 5.777E+00 8.178E+00 2.276E+00 1.623E+01 1.947E+01 5.949E+05 18.0278 1.00000
  5.500E+06 5.500E+06 3.249E+00 6.381E+00 9.021E+00 2.525E+00 1.793E+01 2.118E+01 6.195E+05 18.2184 1.00000
  6.000E+06 6.000E+06 3.260E+00 6.987E+00 9.864E+00 2.776E+00 1.963E+01 2.289E+01 6.422E+05 18.3925 1.00000
  7.000E+06 7.000E+06 3.279E+00 8.200E+00 1.155E+01 3.285E+00 2.304E+01 2.632E+01 6.831E+05 18.7007 1.00000
  8.000E+06 8.000E+06 3.296E+00 9.417E+00 1.324E+01 3.801E+00 2.646E+01 2.976E+01 7.189E+05 18.9678 1.00000
  9.000E+06 9.000E+06 3.311E+00 1.064E+01 1.493E+01 4.324E+00 2.989E+01 3.321E+01 7.507E+05 19.2034 1.00000
  1.000E+07 1.000E+07 3.325E+00 1.186E+01 1.663E+01 4.854E+00 3.334E+01 3.666E+01 7.794E+05 19.4141 1.00000
  1.200E+07 1.200E+07 3.348E+00 1.431E+01 2.001E+01 5.929E+00 4.025E+01 4.360E+01 8.297E+05 19.7787 1.00000
  1.400E+07 1.400E+07 3.368E+00 1.676E+01 2.341E+01 7.023E+00 4.719E+01 5.056E+01 8.724E+05 20.0870 1.00000
  1.700E+07 1.700E+07 3.393E+00 2.045E+01 2.850E+01 8.695E+00 5.764E+01 6.104E+01 9.266E+05 20.4753 1.00000
  2.000E+07 2.000E+07 3.414E+00 2.415E+01 3.359E+01 1.040E+01 6.814E+01 7.155E+01 9.721E+05 20.8004 1.00000
  2.500E+07 2.500E+07 3.444E+00 3.032E+01 4.209E+01 1.330E+01 8.571E+01 8.915E+01 1.035E+06 21.2467 1.00000
  3.000E+07 3.000E+07 3.468E+00 3.650E+01 5.059E+01 1.627E+01 1.034E+02 1.068E+02 1.087E+06 21.6113 1.00000
  3.500E+07 3.500E+07 3.489E+00 4.269E+01 5.909E+01 1.929E+01 1.211E+02 1.246E+02 1.130E+06 21.9196 1.00000
  4.000E+07 4.000E+07 3.507E+00 4.888E+01 6.760E+01 2.236E+01 1.388E+02 1.423E+02 1.168E+06 22.1867 1.00000
  4.500E+07 4.500E+07 3.523E+00 5.508E+01 7.611E+01 2.547E+01 1.567E+02 1.602E+02 1.201E+06 22.4222 1.00000
  5.000E+07 5.000E+07 3.537E+00 6.128E+01 8.462E+01 2.862E+01 1.745E+02 1.781E+02 1.230E+06 22.6329 1.00000
  5.500E+07 5.500E+07 3.550E+00 6.748E+01 9.313E+01 3.180E+01 1.924E+02 1.960E+02 1.257E+06 22.8236 1.00000
  6.000E+07 6.000E+07 3.563E+00 7.369E+01 1.016E+02 3.502E+01 2.104E+02 2.139E+02 1.282E+06 22.9976 1.00000
  7.000E+07 7.000E+07 3.584E+00 8.610E+01 1.187E+02 4.155E+01 2.463E+02 2.499E+02 1.325E+06 23.3059 1.00000
  8.000E+07 8.000E+07 3.603E+00 9.853E+01 1.357E+02 4.818E+01 2.824E+02 2.860E+02 1.363E+06 23.5730 1.00000
  9.000E+07 9.000E+07 3.619E+00 1.110E+02 1.527E+02 5.490E+01 3.186E+02 3.222E+02 1.396E+06 23.8085 1.00000
  1.000E+08 1.000E+08 3.634E+00 1.234E+02 1.698E+02 6.171E+01 3.549E+02 3.585E+02 1.425E+06 24.0192 1.00000
  1.200E+08 1.200E+08 3.660E+00 1.483E+02 2.038E+02 7.555E+01 4.276E+02 4.313E+02 1.476E+06 24.3839 1.00000
  1.400E+08 1.400E+08 3.682E+00 1.731E+02 2.379E+02 8.966E+01 5.007E+02 5.044E+02 1.519E+06 24.6922 1.00000
  1.700E+08 1.700E+08 3.710E+00 2.105E+02 2.890E+02 1.113E+02 6.107E+02 6.144E+02 1.573E+06 25.0805 1.00000
  2.000E+08 2.000E+08 3.734E+00 2.478E+02 3.401E+02 1.333E+02 7.212E+02 7.249E+02 1.618E+06 25.4055 1.00000
  2.500E+08 2.500E+08 3.767E+00 3.100E+02 4.253E+02 1.708E+02 9.062E+02 9.099E+02 1.680E+06 25.8518 1.00000
  3.000E+08 3.000E+08 3.794E+00 3.723E+02 5.105E+02 2.093E+02 1.092E+03 1.096E+03 1.731E+06 26.2165 1.00000
  3.500E+08 3.500E+08 3.817E+00 4.346E+02 5.957E+02 2.485E+02 1.279E+03 1.283E+03 1.773E+06 26.5248 1.00000
  4.000E+08 4.000E+08 3.837E+00 4.968E+02 6.809E+02 2.883E+02 1.466E+03 1.470E+03 1.809E+06 26.7918 1.00000
  4.500E+08 4.500E+08 3.855E+00 5.591E+02 7.661E+02 3.287E+02 1.654E+03 1.658E+03 1.842E+06 27.0274 1.00000
  5.000E+08 5.000E+08 3.871E+00 6.214E+02 8.512E+02 3.697E+02 1.842E+03 1.846E+03 1.870E+06 27.2381 1.00000
  5.500E+08 5.500E+08 3.886E+00 6.837E+02 9.364E+02 4.111E+02 2.031E+03 2.035E+03 1.896E+06 27.4287 1.00000
  6.000E+08 6.000E+08 3.900E+00 7.460E+02 1.022E+03 4.530E+02 2.221E+03 2.225E+03 1.920E+06 27.6028 1.00000
  7.000E+08 7.000E+08 3.923E+00 8.705E+02 1.192E+03 5.380E+02 2.601E+03 2.604E+03 1.961E+06 27.9111 1.00000
  8.000E+08 8.000E+08 3.944E+00 9.951E+02 1.362E+03 6.245E+02 2.982E+03 2.986E+03 1.997E+06 28.1781 1.00000
  9.000E+08 9.000E+08 3.963E+00 1.120E+03 1.533E+03 7.122E+02 3.365E+03 3.369E+03 2.029E+06 28.4137 1.00000
  1.000E+09 1.000E+09 3.979E+00 1.244E+03 1.703E+03 8.011E+02 3.748E+03 3.752E+03 2.057E+06 28.6244 1.00000
