 Incident particle is a Muon with M = 105.65839 MeV
 Index = 0: Ytterbium
      Absorber with <Z/A> = 0.40450
 Sternheimer coef:  a     k=m_s   x_0    x_1    I[eV]   Cbar  delta0
                 0.2530  2.5141  0.1144  3.6191  684.0  6.3071 0.14

 *** Table generated with PUMAS v1.00 ***

      T         p     Ionization  brems     pair     photonuc  Radloss    dE/dx   CSDA Range  delta   beta
    [MeV]    [MeV/c]  -----------------------[MeV cm^2/g]------------------------  [g/cm^2]
  1.000E+00 1.457E+01 2.211E+01 4.921E-06 0.000E+00 0.000E+00 4.921E-06 2.211E+01 2.261E-02  0.0016 0.13661
  1.200E+00 1.597E+01 1.948E+01 5.652E-06 0.000E+00 0.000E+00 5.652E-06 1.948E+01 3.227E-02  0.0019 0.14944
  1.400E+00 1.726E+01 1.747E+01 6.344E-06 0.000E+00 0.000E+00 6.344E-06 1.747E+01 4.313E-02  0.0022 0.16119
  1.700E+00 1.903E+01 1.519E+01 7.323E-06 0.000E+00 0.000E+00 7.323E-06 1.519E+01 6.159E-02  0.0027 0.17725
  2.000E+00 2.066E+01 1.350E+01 8.241E-06 0.000E+00 0.000E+00 8.241E-06 1.350E+01 8.257E-02  0.0032 0.19186
  2.500E+00 2.312E+01 1.147E+01 9.665E-06 0.000E+00 0.000E+00 9.665E-06 1.147E+01 1.229E-01  0.0040 0.21376
  3.000E+00 2.536E+01 1.002E+01 1.098E-05 0.000E+00 0.000E+00 1.098E-05 1.002E+01 1.696E-01  0.0048 0.23336
  3.500E+00 2.742E+01 8.938E+00 1.221E-05 0.000E+00 0.000E+00 1.221E-05 8.938E+00 2.226E-01  0.0056 0.25120
  4.000E+00 2.935E+01 8.095E+00 1.336E-05 0.000E+00 0.000E+00 1.336E-05 8.095E+00 2.814E-01  0.0064 0.26763
  4.500E+00 3.116E+01 7.417E+00 1.445E-05 0.000E+00 0.000E+00 1.445E-05 7.417E+00 3.460E-01  0.0072 0.28290
  5.000E+00 3.289E+01 6.859E+00 1.549E-05 0.000E+00 0.000E+00 1.549E-05 6.859E+00 4.162E-01  0.0080 0.29720
  5.500E+00 3.453E+01 6.392E+00 1.649E-05 0.000E+00 0.000E+00 1.649E-05 6.392E+00 4.917E-01  0.0088 0.31066
  6.000E+00 3.611E+01 5.995E+00 1.744E-05 0.000E+00 0.000E+00 1.744E-05 5.995E+00 5.725E-01  0.0097 0.32339
  7.000E+00 3.909E+01 5.353E+00 1.923E-05 0.000E+00 0.000E+00 1.923E-05 5.353E+00 7.493E-01  0.0113 0.34700
  8.000E+00 4.189E+01 4.857E+00 2.090E-05 0.000E+00 0.000E+00 2.090E-05 4.857E+00 9.457E-01  0.0130 0.36854
  9.000E+00 4.453E+01 4.462E+00 2.248E-05 0.000E+00 0.000E+00 2.248E-05 4.462E+00 1.161E+00  0.0147 0.38836
  1.000E+01 4.704E+01 4.138E+00 2.397E-05 0.000E+00 0.000E+00 2.397E-05 4.138E+00 1.394E+00  0.0164 0.40675
  1.200E+01 5.177E+01 3.640E+00 2.675E-05 0.000E+00 0.000E+00 2.675E-05 3.640E+00 1.910E+00  0.0198 0.43998
  1.400E+01 5.616E+01 3.275E+00 2.931E-05 0.000E+00 0.000E+00 2.931E-05 3.275E+00 2.490E+00  0.0234 0.46937
  1.700E+01 6.230E+01 2.877E+00 3.287E-05 0.000E+00 0.000E+00 3.287E-05 2.877E+00 3.469E+00  0.0287 0.50792
  2.000E+01 6.802E+01 2.591E+00 3.616E-05 0.000E+00 0.000E+00 3.616E-05 2.591E+00 4.570E+00  0.0343 0.54129
  2.500E+01 7.686E+01 2.261E+00 4.125E-05 0.000E+00 0.000E+00 4.125E-05 2.261E+00 6.640E+00  0.0437 0.58827
  3.000E+01 8.509E+01 2.037E+00 4.601E-05 0.000E+00 0.000E+00 4.601E-05 2.037E+00 8.973E+00  0.0536 0.62720
  3.500E+01 9.285E+01 1.875E+00 5.058E-05 0.000E+00 0.000E+00 5.058E-05 1.875E+00 1.153E+01  0.0638 0.66011
  4.000E+01 1.003E+02 1.753E+00 5.502E-05 0.000E+00 0.000E+00 5.502E-05 1.753E+00 1.429E+01  0.0744 0.68834
  4.500E+01 1.074E+02 1.658E+00 5.938E-05 0.000E+00 0.000E+00 5.938E-05 1.658E+00 1.723E+01  0.0854 0.71286
  5.000E+01 1.143E+02 1.583E+00 6.371E-05 0.000E+00 0.000E+00 6.371E-05 1.583E+00 2.031E+01  0.0968 0.73434
  5.500E+01 1.210E+02 1.522E+00 6.801E-05 0.000E+00 0.000E+00 6.801E-05 1.522E+00 2.354E+01  0.1085 0.75332
  6.000E+01 1.276E+02 1.471E+00 7.232E-05 0.000E+00 0.000E+00 7.232E-05 1.471E+00 2.688E+01  0.1205 0.77019
  7.000E+01 1.403E+02 1.393E+00 8.097E-05 0.000E+00 0.000E+00 8.097E-05 1.393E+00 3.386E+01  0.1444 0.79887
  8.000E+01 1.527E+02 1.338E+00 8.974E-05 0.000E+00 0.000E+00 8.974E-05 1.338E+00 4.119E+01  0.1593 0.82227
  9.000E+01 1.647E+02 1.296E+00 9.865E-05 0.000E+00 0.000E+00 9.865E-05 1.296E+00 4.878E+01  0.1748 0.84166
  1.000E+02 1.764E+02 1.265E+00 1.077E-04 0.000E+00 0.000E+00 1.077E-04 1.265E+00 5.659E+01  0.1906 0.85794
  1.200E+02 1.994E+02 1.222E+00 1.265E-04 0.000E+00 0.000E+00 1.265E-04 1.222E+00 7.268E+01  0.2226 0.88361
  1.400E+02 2.218E+02 1.195E+00 1.460E-04 0.000E+00 0.000E+00 1.460E-04 1.195E+00 8.923E+01  0.2545 0.90278
  1.700E+02 2.546E+02 1.173E+00 1.767E-04 0.000E+00 0.000E+00 1.767E-04 1.173E+00 1.146E+02  0.3016 0.92363
  2.000E+02 2.868E+02 1.163E+00 2.091E-04 0.000E+00 0.000E+00 2.091E-04 1.163E+00 1.403E+02  0.3474 0.93835
  2.500E+02 3.396E+02 1.160E+00 2.667E-04 0.000E+00 0.000E+00 2.667E-04 1.160E+00 1.833E+02  0.4202 0.95485
  3.000E+02 3.917E+02 1.165E+00 3.283E-04 0.000E+00 0.000E+00 3.283E-04 1.165E+00 2.263E+02  0.4890 0.96548
  3.500E+02 4.432E+02 1.174E+00 3.937E-04 0.000E+00 0.000E+00 3.937E-04 1.174E+00 2.691E+02  0.5540 0.97274
  4.000E+02 4.945E+02 1.184E+00 4.626E-04 0.000E+00 0.000E+00 4.626E-04 1.185E+00 3.115E+02  0.6155 0.97793
  4.500E+02 5.455E+02 1.195E+00 5.346E-04 3.230E-05 0.000E+00 5.669E-04 1.196E+00 3.535E+02  0.6739 0.98176
  5.000E+02 5.964E+02 1.207E+00 6.096E-04 6.818E-05 0.000E+00 6.778E-04 1.208E+00 3.951E+02  0.7296 0.98467
  5.500E+02 6.471E+02 1.218E+00 6.874E-04 9.695E-05 0.000E+00 7.843E-04 1.219E+00 4.363E+02  0.7828 0.98693
  6.000E+02 6.977E+02 1.229E+00 7.677E-04 1.289E-04 0.000E+00 8.966E-04 1.230E+00 4.771E+02  0.8337 0.98873
  7.000E+02 7.987E+02 1.250E+00 9.357E-04 2.043E-04 0.000E+00 1.140E-03 1.251E+00 5.578E+02  0.9294 0.99136
  8.000E+02 8.995E+02 1.269E+00 1.112E-03 2.948E-04 0.000E+00 1.407E-03 1.270E+00 6.371E+02  1.0181 0.99317
  9.000E+02 1.000E+03 1.286E+00 1.297E-03 3.993E-04 0.000E+00 1.696E-03 1.288E+00 7.153E+02  1.1009 0.99447
  1.000E+03 1.101E+03 1.302E+00 1.489E-03 5.170E-04 0.000E+00 2.006E-03 1.304E+00 7.924E+02  1.1786 0.99542
  1.200E+03 1.301E+03 1.331E+00 1.893E-03 7.891E-04 2.245E-05 2.704E-03 1.334E+00 9.441E+02  1.3210 0.99672
  1.400E+03 1.502E+03 1.356E+00 2.320E-03 1.106E-03 6.089E-05 3.486E-03 1.360E+00 1.093E+03  1.4494 0.99753
  1.700E+03 1.803E+03 1.388E+00 2.998E-03 1.655E-03 1.289E-04 4.782E-03 1.393E+00 1.311E+03  1.6213 0.99829
  2.000E+03 2.103E+03 1.415E+00 3.716E-03 2.282E-03 2.080E-04 6.206E-03 1.421E+00 1.524E+03  1.7740 0.99874
  2.500E+03 2.604E+03 1.451E+00 4.986E-03 3.479E-03 3.589E-04 8.824E-03 1.460E+00 1.871E+03  1.9964 0.99918
  3.000E+03 3.104E+03 1.481E+00 6.334E-03 4.838E-03 5.149E-04 1.169E-02 1.493E+00 2.210E+03  2.1889 0.99942
  3.500E+03 3.604E+03 1.506E+00 7.747E-03 6.335E-03 6.785E-04 1.476E-02 1.521E+00 2.542E+03  2.3591 0.99957
  4.000E+03 4.104E+03 1.527E+00 9.218E-03 7.963E-03 8.519E-04 1.803E-02 1.545E+00 2.868E+03  2.5120 0.99967
  4.500E+03 4.604E+03 1.546E+00 1.074E-02 9.704E-03 1.031E-03 2.148E-02 1.567E+00 3.189E+03  2.6509 0.99974
  5.000E+03 5.105E+03 1.562E+00 1.231E-02 1.154E-02 1.202E-03 2.505E-02 1.587E+00 3.506E+03  2.7784 0.99979
  5.500E+03 5.605E+03 1.577E+00 1.391E-02 1.347E-02 1.386E-03 2.877E-02 1.605E+00 3.819E+03  2.8963 0.99982
  6.000E+03 6.105E+03 1.590E+00 1.556E-02 1.548E-02 1.556E-03 3.259E-02 1.623E+00 4.129E+03  3.0060 0.99985
  7.000E+03 7.105E+03 1.613E+00 1.895E-02 1.971E-02 1.916E-03 4.057E-02 1.654E+00 4.740E+03  3.2053 0.99989
  8.000E+03 8.105E+03 1.633E+00 2.245E-02 2.419E-02 2.272E-03 4.892E-02 1.681E+00 5.340E+03  3.3828 0.99992
  9.000E+03 9.105E+03 1.649E+00 2.606E-02 2.890E-02 2.605E-03 5.757E-02 1.707E+00 5.930E+03  3.5432 0.99993
  1.000E+04 1.011E+04 1.664E+00 2.976E-02 3.381E-02 2.947E-03 6.651E-02 1.731E+00 6.512E+03  3.6895 0.99995
  1.200E+04 1.211E+04 1.690E+00 3.740E-02 4.412E-02 3.638E-03 8.516E-02 1.775E+00 7.653E+03  3.9491 0.99996
  1.400E+04 1.411E+04 1.710E+00 4.531E-02 5.502E-02 4.326E-03 1.047E-01 1.815E+00 8.767E+03  4.1748 0.99997
  1.700E+04 1.711E+04 1.736E+00 5.760E-02 7.226E-02 5.341E-03 1.352E-01 1.871E+00 1.040E+04  4.4668 0.99998
  2.000E+04 2.011E+04 1.756E+00 7.032E-02 9.038E-02 6.333E-03 1.670E-01 1.923E+00 1.198E+04  4.7177 0.99999
  2.500E+04 2.511E+04 1.783E+00 9.229E-02 1.221E-01 7.952E-03 2.224E-01 2.006E+00 1.452E+04  5.0715 0.99999
  3.000E+04 3.011E+04 1.804E+00 1.150E-01 1.555E-01 9.535E-03 2.800E-01 2.084E+00 1.697E+04  5.3683 0.99999
  3.500E+04 3.511E+04 1.822E+00 1.384E-01 1.900E-01 1.113E-02 3.396E-01 2.161E+00 1.933E+04  5.6245 1.00000
  4.000E+04 4.011E+04 1.837E+00 1.624E-01 2.256E-01 1.270E-02 4.006E-01 2.237E+00 2.160E+04  5.8501 1.00000
  4.500E+04 4.511E+04 1.849E+00 1.868E-01 2.620E-01 1.424E-02 4.630E-01 2.312E+00 2.380E+04  6.0519 1.00000
  5.000E+04 5.011E+04 1.860E+00 2.116E-01 2.991E-01 1.579E-02 5.264E-01 2.387E+00 2.593E+04  6.2346 1.00000
  5.500E+04 5.511E+04 1.870E+00 2.367E-01 3.368E-01 1.734E-02 5.909E-01 2.461E+00 2.799E+04  6.4016 1.00000
  6.000E+04 6.011E+04 1.879E+00 2.622E-01 3.752E-01 1.887E-02 6.562E-01 2.535E+00 2.999E+04  6.5554 1.00000
  7.000E+04 7.011E+04 1.895E+00 3.140E-01 4.532E-01 2.191E-02 7.891E-01 2.684E+00 3.383E+04  6.8311 1.00000
  8.000E+04 8.011E+04 1.908E+00 3.667E-01 5.328E-01 2.495E-02 9.245E-01 2.832E+00 3.746E+04  7.0731 1.00000
  9.000E+04 9.011E+04 1.919E+00 4.203E-01 6.138E-01 2.798E-02 1.062E+00 2.981E+00 4.090E+04  7.2889 1.00000
  1.000E+05 1.001E+05 1.929E+00 4.746E-01 6.958E-01 3.096E-02 1.201E+00 3.130E+00 4.417E+04  7.4836 1.00000
  1.200E+05 1.201E+05 1.946E+00 5.850E-01 8.626E-01 3.700E-02 1.485E+00 3.430E+00 5.028E+04  7.8245 1.00000
  1.400E+05 1.401E+05 1.960E+00 6.975E-01 1.032E+00 4.304E-02 1.773E+00 3.732E+00 5.588E+04  8.1163 1.00000
  1.700E+05 1.701E+05 1.977E+00 8.691E-01 1.291E+00 5.208E-02 2.212E+00 4.189E+00 6.348E+04  8.4881 1.00000
  2.000E+05 2.001E+05 1.991E+00 1.044E+00 1.553E+00 6.116E-02 2.658E+00 4.649E+00 7.028E+04  8.8027 1.00000
  2.500E+05 2.501E+05 2.010E+00 1.340E+00 1.997E+00 7.632E-02 3.413E+00 5.423E+00 8.027E+04  9.2391 1.00000
  3.000E+05 3.001E+05 2.025E+00 1.640E+00 2.446E+00 9.157E-02 4.178E+00 6.204E+00 8.891E+04  9.5990 1.00000
  3.500E+05 3.501E+05 2.038E+00 1.945E+00 2.900E+00 1.070E-01 4.952E+00 6.990E+00 9.652E+04  9.9052 1.00000
  4.000E+05 4.001E+05 2.049E+00 2.253E+00 3.357E+00 1.225E-01 5.732E+00 7.782E+00 1.033E+05 10.1715 1.00000
  4.500E+05 4.501E+05 2.059E+00 2.563E+00 3.817E+00 1.380E-01 6.518E+00 8.577E+00 1.094E+05 10.4070 1.00000
  5.000E+05 5.001E+05 2.068E+00 2.876E+00 4.279E+00 1.537E-01 7.308E+00 9.376E+00 1.150E+05 10.6176 1.00000
  5.500E+05 5.501E+05 2.076E+00 3.190E+00 4.742E+00 1.692E-01 8.101E+00 1.018E+01 1.201E+05 10.8082 1.00000
  6.000E+05 6.001E+05 2.083E+00 3.506E+00 5.208E+00 1.849E-01 8.898E+00 1.098E+01 1.249E+05 10.9822 1.00000
  7.000E+05 7.001E+05 2.096E+00 4.142E+00 6.142E+00 2.164E-01 1.050E+01 1.260E+01 1.334E+05 11.2905 1.00000
  8.000E+05 8.001E+05 2.107E+00 4.782E+00 7.080E+00 2.482E-01 1.211E+01 1.422E+01 1.409E+05 11.5575 1.00000
  9.000E+05 9.001E+05 2.117E+00 5.427E+00 8.022E+00 2.804E-01 1.373E+01 1.585E+01 1.476E+05 11.7930 1.00000
  1.000E+06 1.000E+06 2.126E+00 6.074E+00 8.966E+00 3.128E-01 1.535E+01 1.748E+01 1.536E+05 12.0037 1.00000
  1.200E+06 1.200E+06 2.142E+00 7.376E+00 1.086E+01 3.784E-01 1.862E+01 2.076E+01 1.641E+05 12.3683 1.00000
  1.400E+06 1.400E+06 2.155E+00 8.687E+00 1.276E+01 4.449E-01 2.190E+01 2.405E+01 1.731E+05 12.6766 1.00000
  1.700E+06 1.700E+06 2.171E+00 1.066E+01 1.562E+01 5.462E-01 2.684E+01 2.901E+01 1.845E+05 13.0649 1.00000
  2.000E+06 2.000E+06 2.186E+00 1.265E+01 1.849E+01 6.491E-01 3.180E+01 3.398E+01 1.941E+05 13.3899 1.00000
  2.500E+06 2.500E+06 2.205E+00 1.598E+01 2.329E+01 8.238E-01 4.010E+01 4.230E+01 2.073E+05 13.8362 1.00000
  3.000E+06 3.000E+06 2.221E+00 1.933E+01 2.810E+01 1.002E+00 4.843E+01 5.065E+01 2.182E+05 14.2008 1.00000
  3.500E+06 3.500E+06 2.235E+00 2.269E+01 3.291E+01 1.183E+00 5.678E+01 5.901E+01 2.274E+05 14.5091 1.00000
  4.000E+06 4.000E+06 2.247E+00 2.605E+01 3.773E+01 1.366E+00 6.515E+01 6.740E+01 2.353E+05 14.7761 1.00000
  4.500E+06 4.500E+06 2.257E+00 2.943E+01 4.256E+01 1.552E+00 7.353E+01 7.579E+01 2.423E+05 15.0117 1.00000
  5.000E+06 5.000E+06 2.267E+00 3.281E+01 4.739E+01 1.739E+00 8.193E+01 8.420E+01 2.486E+05 15.2224 1.00000
  5.500E+06 5.500E+06 2.275E+00 3.619E+01 5.222E+01 1.929E+00 9.034E+01 9.261E+01 2.543E+05 15.4130 1.00000
  6.000E+06 6.000E+06 2.283E+00 3.958E+01 5.705E+01 2.120E+00 9.875E+01 1.010E+02 2.594E+05 15.5871 1.00000
  7.000E+06 7.000E+06 2.297E+00 4.636E+01 6.673E+01 2.508E+00 1.156E+02 1.179E+02 2.686E+05 15.8953 1.00000
  8.000E+06 8.000E+06 2.309E+00 5.316E+01 7.641E+01 2.901E+00 1.325E+02 1.348E+02 2.766E+05 16.1624 1.00000
  9.000E+06 9.000E+06 2.320E+00 5.997E+01 8.610E+01 3.299E+00 1.494E+02 1.517E+02 2.836E+05 16.3980 1.00000
  1.000E+07 1.000E+07 2.330E+00 6.678E+01 9.579E+01 3.702E+00 1.663E+02 1.686E+02 2.898E+05 16.6087 1.00000
  1.200E+07 1.200E+07 2.347E+00 8.042E+01 1.152E+02 4.521E+00 2.001E+02 2.025E+02 3.007E+05 16.9733 1.00000
  1.400E+07 1.400E+07 2.361E+00 9.408E+01 1.346E+02 5.354E+00 2.340E+02 2.364E+02 3.099E+05 17.2816 1.00000
  1.700E+07 1.700E+07 2.380E+00 1.146E+02 1.637E+02 6.627E+00 2.849E+02 2.873E+02 3.214E+05 17.6699 1.00000
  2.000E+07 2.000E+07 2.395E+00 1.351E+02 1.928E+02 7.924E+00 3.359E+02 3.383E+02 3.311E+05 17.9950 1.00000
  2.500E+07 2.500E+07 2.417E+00 1.694E+02 2.414E+02 1.013E+01 4.209E+02 4.233E+02 3.444E+05 18.4413 1.00000
  3.000E+07 3.000E+07 2.435E+00 2.036E+02 2.900E+02 1.239E+01 5.060E+02 5.084E+02 3.552E+05 18.8059 1.00000
  3.500E+07 3.500E+07 2.450E+00 2.379E+02 3.386E+02 1.469E+01 5.912E+02 5.936E+02 3.643E+05 19.1142 1.00000
  4.000E+07 4.000E+07 2.463E+00 2.722E+02 3.872E+02 1.702E+01 6.764E+02 6.789E+02 3.722E+05 19.3813 1.00000
  4.500E+07 4.500E+07 2.474E+00 3.065E+02 4.358E+02 1.939E+01 7.617E+02 7.642E+02 3.792E+05 19.6168 1.00000
  5.000E+07 5.000E+07 2.485E+00 3.408E+02 4.844E+02 2.179E+01 8.470E+02 8.495E+02 3.854E+05 19.8275 1.00000
  5.500E+07 5.500E+07 2.495E+00 3.752E+02 5.330E+02 2.421E+01 9.324E+02 9.349E+02 3.910E+05 20.0182 1.00000
  6.000E+07 6.000E+07 2.503E+00 4.095E+02 5.816E+02 2.666E+01 1.018E+03 1.020E+03 3.961E+05 20.1922 1.00000
  7.000E+07 7.000E+07 2.519E+00 4.782E+02 6.788E+02 3.163E+01 1.189E+03 1.191E+03 4.052E+05 20.5005 1.00000
  8.000E+07 8.000E+07 2.533E+00 5.469E+02 7.761E+02 3.667E+01 1.360E+03 1.362E+03 4.131E+05 20.7676 1.00000
  9.000E+07 9.000E+07 2.545E+00 6.156E+02 8.733E+02 4.179E+01 1.531E+03 1.533E+03 4.200E+05 21.0031 1.00000
  1.000E+08 1.000E+08 2.555E+00 6.843E+02 9.706E+02 4.697E+01 1.702E+03 1.704E+03 4.262E+05 21.2138 1.00000
  1.200E+08 1.200E+08 2.574E+00 8.217E+02 1.165E+03 5.751E+01 2.044E+03 2.047E+03 4.370E+05 21.5785 1.00000
  1.400E+08 1.400E+08 2.591E+00 9.592E+02 1.360E+03 6.825E+01 2.387E+03 2.390E+03 4.461E+05 21.8868 1.00000
  1.700E+08 1.700E+08 2.611E+00 1.165E+03 1.651E+03 8.468E+01 2.901E+03 2.904E+03 4.575E+05 22.2751 1.00000
  2.000E+08 2.000E+08 2.628E+00 1.372E+03 1.943E+03 1.014E+02 3.416E+03 3.419E+03 4.671E+05 22.6001 1.00000
  2.500E+08 2.500E+08 2.652E+00 1.715E+03 2.429E+03 1.300E+02 4.275E+03 4.278E+03 4.802E+05 23.0464 1.00000
  3.000E+08 3.000E+08 2.672E+00 2.059E+03 2.916E+03 1.593E+02 5.134E+03 5.137E+03 4.909E+05 23.4111 1.00000
  3.500E+08 3.500E+08 2.689E+00 2.403E+03 3.402E+03 1.891E+02 5.994E+03 5.997E+03 5.000E+05 23.7194 1.00000
  4.000E+08 4.000E+08 2.704E+00 2.747E+03 3.888E+03 2.194E+02 6.855E+03 6.857E+03 5.078E+05 23.9864 1.00000
  4.500E+08 4.500E+08 2.717E+00 3.091E+03 4.375E+03 2.502E+02 7.716E+03 7.718E+03 5.147E+05 24.2220 1.00000
  5.000E+08 5.000E+08 2.728E+00 3.435E+03 4.861E+03 2.814E+02 8.577E+03 8.580E+03 5.208E+05 24.4327 1.00000
  5.500E+08 5.500E+08 2.739E+00 3.778E+03 5.347E+03 3.129E+02 9.439E+03 9.441E+03 5.264E+05 24.6233 1.00000
  6.000E+08 6.000E+08 2.749E+00 4.122E+03 5.834E+03 3.448E+02 1.030E+04 1.030E+04 5.314E+05 24.7974 1.00000
  7.000E+08 7.000E+08 2.766E+00 4.810E+03 6.806E+03 4.094E+02 1.203E+04 1.203E+04 5.405E+05 25.1057 1.00000
  8.000E+08 8.000E+08 2.782E+00 5.498E+03 7.779E+03 4.752E+02 1.375E+04 1.375E+04 5.483E+05 25.3727 1.00000
  9.000E+08 9.000E+08 2.795E+00 6.185E+03 8.751E+03 5.420E+02 1.548E+04 1.548E+04 5.551E+05 25.6083 1.00000
  1.000E+09 1.000E+09 2.807E+00 6.873E+03 9.724E+03 6.096E+02 1.721E+04 1.721E+04 5.613E+05 25.8190 1.00000
