 Incident particle is a Muon with M = 105.65839 MeV
 Index = 0: Yttrium
      Absorber with <Z/A> = 0.43867
 Sternheimer coef:  a     k=m_s   x_0    x_1    I[eV]   Cbar  delta0
                 0.0714  3.4585  0.3608  3.5542  379.0  5.4801 0.14

 *** Table generated with PUMAS v1.00 ***

      T         p     Ionization  brems     pair     photonuc  Radloss    dE/dx   CSDA Range  delta   beta
    [MeV]    [MeV/c]  -----------------------[MeV cm^2/g]------------------------  [g/cm^2]
  1.000E+00 1.457E+01 2.825E+01 3.129E-06 0.000E+00 0.000E+00 3.129E-06 2.825E+01 1.770E-02  0.0005 0.13661
  1.200E+00 1.597E+01 2.469E+01 3.596E-06 0.000E+00 0.000E+00 3.596E-06 2.469E+01 2.529E-02  0.0006 0.14944
  1.400E+00 1.726E+01 2.201E+01 4.040E-06 0.000E+00 0.000E+00 4.040E-06 2.201E+01 3.389E-02  0.0007 0.16119
  1.700E+00 1.903E+01 1.901E+01 4.668E-06 0.000E+00 0.000E+00 4.668E-06 1.901E+01 4.859E-02  0.0009 0.17725
  2.000E+00 2.066E+01 1.681E+01 5.260E-06 0.000E+00 0.000E+00 5.260E-06 1.681E+01 6.541E-02  0.0010 0.19186
  2.500E+00 2.312E+01 1.418E+01 6.181E-06 0.000E+00 0.000E+00 6.181E-06 1.418E+01 9.791E-02  0.0013 0.21376
  3.000E+00 2.536E+01 1.233E+01 7.035E-06 0.000E+00 0.000E+00 7.035E-06 1.233E+01 1.358E-01  0.0015 0.23336
  3.500E+00 2.742E+01 1.096E+01 7.834E-06 0.000E+00 0.000E+00 7.834E-06 1.096E+01 1.789E-01  0.0018 0.25120
  4.000E+00 2.935E+01 9.893E+00 8.588E-06 0.000E+00 0.000E+00 8.588E-06 9.893E+00 2.270E-01  0.0021 0.26763
  4.500E+00 3.116E+01 9.041E+00 9.303E-06 0.000E+00 0.000E+00 9.303E-06 9.041E+00 2.799E-01  0.0023 0.28290
  5.000E+00 3.289E+01 8.343E+00 9.985E-06 0.000E+00 0.000E+00 9.985E-06 8.343E+00 3.375E-01  0.0026 0.29720
  5.500E+00 3.453E+01 7.761E+00 1.064E-05 0.000E+00 0.000E+00 1.064E-05 7.761E+00 3.997E-01  0.0028 0.31066
  6.000E+00 3.611E+01 7.266E+00 1.126E-05 0.000E+00 0.000E+00 1.126E-05 7.266E+00 4.663E-01  0.0031 0.32339
  7.000E+00 3.909E+01 6.470E+00 1.245E-05 0.000E+00 0.000E+00 1.245E-05 6.470E+00 6.124E-01  0.0036 0.34700
  8.000E+00 4.189E+01 5.858E+00 1.356E-05 0.000E+00 0.000E+00 1.356E-05 5.858E+00 7.750E-01  0.0042 0.36854
  9.000E+00 4.453E+01 5.370E+00 1.460E-05 0.000E+00 0.000E+00 1.460E-05 5.370E+00 9.535E-01  0.0047 0.38836
  1.000E+01 4.704E+01 4.973E+00 1.559E-05 0.000E+00 0.000E+00 1.559E-05 4.973E+00 1.147E+00  0.0053 0.40675
  1.200E+01 5.177E+01 4.364E+00 1.745E-05 0.000E+00 0.000E+00 1.745E-05 4.364E+00 1.577E+00  0.0064 0.43998
  1.400E+01 5.616E+01 3.917E+00 1.916E-05 0.000E+00 0.000E+00 1.916E-05 3.917E+00 2.062E+00  0.0075 0.46937
  1.700E+01 6.230E+01 3.433E+00 2.154E-05 0.000E+00 0.000E+00 2.154E-05 3.433E+00 2.882E+00  0.0092 0.50792
  2.000E+01 6.802E+01 3.087E+00 2.375E-05 0.000E+00 0.000E+00 2.375E-05 3.087E+00 3.805E+00  0.0110 0.54129
  2.500E+01 7.686E+01 2.687E+00 2.716E-05 0.000E+00 0.000E+00 2.716E-05 2.687E+00 5.545E+00  0.0141 0.58827
  3.000E+01 8.509E+01 2.417E+00 3.036E-05 0.000E+00 0.000E+00 3.036E-05 2.417E+00 7.509E+00  0.0172 0.62720
  3.500E+01 9.285E+01 2.222E+00 3.342E-05 0.000E+00 0.000E+00 3.342E-05 2.222E+00 9.668E+00  0.0205 0.66011
  4.000E+01 1.003E+02 2.076E+00 3.639E-05 0.000E+00 0.000E+00 3.639E-05 2.076E+00 1.200E+01  0.0239 0.68834
  4.500E+01 1.074E+02 1.963E+00 3.930E-05 0.000E+00 0.000E+00 3.930E-05 1.963E+00 1.448E+01  0.0275 0.71286
  5.000E+01 1.143E+02 1.872E+00 4.219E-05 0.000E+00 0.000E+00 4.219E-05 1.872E+00 1.708E+01  0.0311 0.73434
  5.500E+01 1.210E+02 1.799E+00 4.506E-05 0.000E+00 0.000E+00 4.506E-05 1.799E+00 1.981E+01  0.0349 0.75332
  6.000E+01 1.276E+02 1.739E+00 4.793E-05 0.000E+00 0.000E+00 4.793E-05 1.739E+00 2.264E+01  0.0388 0.77019
  7.000E+01 1.403E+02 1.646E+00 5.368E-05 0.000E+00 0.000E+00 5.368E-05 1.646E+00 2.855E+01  0.0469 0.79887
  8.000E+01 1.527E+02 1.579E+00 5.950E-05 0.000E+00 0.000E+00 5.950E-05 1.579E+00 3.475E+01  0.0555 0.82227
  9.000E+01 1.647E+02 1.529E+00 6.541E-05 0.000E+00 0.000E+00 6.541E-05 1.529E+00 4.119E+01  0.0646 0.84166
  1.000E+02 1.764E+02 1.490E+00 7.143E-05 0.000E+00 0.000E+00 7.143E-05 1.491E+00 4.782E+01  0.0741 0.85794
  1.200E+02 1.994E+02 1.438E+00 8.382E-05 0.000E+00 0.000E+00 8.382E-05 1.438E+00 6.148E+01  0.0947 0.88361
  1.400E+02 2.218E+02 1.405E+00 9.669E-05 0.000E+00 0.000E+00 9.669E-05 1.405E+00 7.555E+01  0.1171 0.90278
  1.700E+02 2.546E+02 1.377E+00 1.169E-04 0.000E+00 0.000E+00 1.169E-04 1.377E+00 9.712E+01  0.1486 0.92363
  2.000E+02 2.868E+02 1.365E+00 1.383E-04 0.000E+00 0.000E+00 1.383E-04 1.365E+00 1.190E+02  0.1729 0.93835
  2.500E+02 3.396E+02 1.359E+00 1.760E-04 0.000E+00 0.000E+00 1.760E-04 1.360E+00 1.557E+02  0.2220 0.95485
  3.000E+02 3.917E+02 1.364E+00 2.165E-04 0.000E+00 0.000E+00 2.165E-04 1.364E+00 1.924E+02  0.2764 0.96548
  3.500E+02 4.432E+02 1.373E+00 2.592E-04 4.907E-06 0.000E+00 2.641E-04 1.373E+00 2.290E+02  0.3329 0.97274
  4.000E+02 4.945E+02 1.383E+00 3.042E-04 1.728E-05 0.000E+00 3.215E-04 1.384E+00 2.652E+02  0.3899 0.97793
  4.500E+02 5.455E+02 1.395E+00 3.512E-04 2.905E-05 0.000E+00 3.803E-04 1.395E+00 3.012E+02  0.4465 0.98176
  5.000E+02 5.964E+02 1.407E+00 4.001E-04 4.335E-05 0.000E+00 4.435E-04 1.407E+00 3.369E+02  0.5023 0.98467
  5.500E+02 6.471E+02 1.418E+00 4.507E-04 6.028E-05 0.000E+00 5.110E-04 1.419E+00 3.723E+02  0.5569 0.98693
  6.000E+02 6.977E+02 1.430E+00 5.030E-04 7.973E-05 0.000E+00 5.828E-04 1.430E+00 4.074E+02  0.6103 0.98873
  7.000E+02 7.987E+02 1.451E+00 6.122E-04 1.259E-04 0.000E+00 7.380E-04 1.452E+00 4.768E+02  0.7133 0.99136
  8.000E+02 8.995E+02 1.471E+00 7.268E-04 1.811E-04 0.000E+00 9.079E-04 1.472E+00 5.452E+02  0.8110 0.99317
  9.000E+02 1.000E+03 1.489E+00 8.465E-04 2.449E-04 0.000E+00 1.091E-03 1.490E+00 6.128E+02  0.9038 0.99447
  1.000E+03 1.101E+03 1.505E+00 9.708E-04 3.167E-04 0.000E+00 1.288E-03 1.507E+00 6.795E+02  0.9921 0.99542
  1.200E+03 1.301E+03 1.535E+00 1.232E-03 4.826E-04 2.248E-05 1.737E-03 1.537E+00 8.109E+02  1.1562 0.99672
  1.400E+03 1.502E+03 1.560E+00 1.507E-03 6.756E-04 6.111E-05 2.244E-03 1.563E+00 9.400E+02  1.3061 0.99753
  1.700E+03 1.803E+03 1.593E+00 1.944E-03 1.010E-03 1.298E-04 3.084E-03 1.596E+00 1.130E+03  1.5092 0.99829
  2.000E+03 2.103E+03 1.619E+00 2.406E-03 1.393E-03 2.100E-04 4.008E-03 1.623E+00 1.316E+03  1.6909 0.99874
  2.500E+03 2.604E+03 1.656E+00 3.221E-03 2.122E-03 3.635E-04 5.707E-03 1.662E+00 1.621E+03  1.9571 0.99918
  3.000E+03 3.104E+03 1.686E+00 4.085E-03 2.950E-03 5.230E-04 7.558E-03 1.693E+00 1.919E+03  2.1885 0.99942
  3.500E+03 3.604E+03 1.710E+00 4.991E-03 3.862E-03 6.908E-04 9.544E-03 1.720E+00 2.212E+03  2.3933 0.99957
  4.000E+03 4.104E+03 1.731E+00 5.932E-03 4.860E-03 8.690E-04 1.166E-02 1.743E+00 2.501E+03  2.5773 0.99967
  4.500E+03 4.604E+03 1.750E+00 6.904E-03 5.930E-03 1.054E-03 1.389E-02 1.763E+00 2.786E+03  2.7444 0.99974
  5.000E+03 5.105E+03 1.766E+00 7.905E-03 7.060E-03 1.230E-03 1.619E-02 1.782E+00 3.068E+03  2.8975 0.99979
  5.500E+03 5.605E+03 1.780E+00 8.931E-03 8.244E-03 1.420E-03 1.860E-02 1.798E+00 3.347E+03  3.0390 0.99982
  6.000E+03 6.105E+03 1.793E+00 9.980E-03 9.479E-03 1.596E-03 2.106E-02 1.814E+00 3.624E+03  3.1704 0.99985
  7.000E+03 7.105E+03 1.815E+00 1.214E-02 1.208E-02 1.969E-03 2.619E-02 1.841E+00 4.171E+03  3.4086 0.99989
  8.000E+03 8.105E+03 1.834E+00 1.438E-02 1.485E-02 2.339E-03 3.156E-02 1.866E+00 4.711E+03  3.6201 0.99992
  9.000E+03 9.105E+03 1.850E+00 1.667E-02 1.775E-02 2.684E-03 3.711E-02 1.887E+00 5.244E+03  3.8104 0.99993
  1.000E+04 1.011E+04 1.865E+00 1.903E-02 2.078E-02 3.041E-03 4.285E-02 1.908E+00 5.771E+03  3.9835 0.99995
  1.200E+04 1.211E+04 1.889E+00 2.389E-02 2.715E-02 3.761E-03 5.480E-02 1.944E+00 6.810E+03  4.2892 0.99996
  1.400E+04 1.411E+04 1.909E+00 2.893E-02 3.389E-02 4.480E-03 6.729E-02 1.976E+00 7.830E+03  4.5533 0.99997
  1.700E+04 1.711E+04 1.933E+00 3.674E-02 4.456E-02 5.542E-03 8.684E-02 2.020E+00 9.332E+03  4.8928 0.99998
  2.000E+04 2.011E+04 1.953E+00 4.483E-02 5.579E-02 6.581E-03 1.072E-01 2.060E+00 1.080E+04  5.1823 0.99999
  2.500E+04 2.511E+04 1.979E+00 5.879E-02 7.551E-02 8.282E-03 1.426E-01 2.121E+00 1.320E+04  5.5871 0.99999
  3.000E+04 3.011E+04 1.999E+00 7.325E-02 9.623E-02 9.947E-03 1.794E-01 2.178E+00 1.552E+04  5.9235 0.99999
  3.500E+04 3.511E+04 2.016E+00 8.811E-02 1.178E-01 1.162E-02 2.175E-01 2.233E+00 1.779E+04  6.2115 1.00000
  4.000E+04 4.011E+04 2.030E+00 1.033E-01 1.399E-01 1.328E-02 2.565E-01 2.287E+00 2.000E+04  6.4634 1.00000
  4.500E+04 4.511E+04 2.042E+00 1.188E-01 1.627E-01 1.491E-02 2.964E-01 2.339E+00 2.216E+04  6.6873 1.00000
  5.000E+04 5.011E+04 2.053E+00 1.346E-01 1.859E-01 1.654E-02 3.370E-01 2.390E+00 2.428E+04  6.8888 1.00000
  5.500E+04 5.511E+04 2.063E+00 1.506E-01 2.095E-01 1.819E-02 3.782E-01 2.441E+00 2.635E+04  7.0721 1.00000
  6.000E+04 6.011E+04 2.071E+00 1.668E-01 2.335E-01 1.981E-02 4.200E-01 2.491E+00 2.838E+04  7.2401 1.00000
  7.000E+04 7.011E+04 2.086E+00 1.997E-01 2.824E-01 2.302E-02 5.051E-01 2.592E+00 3.231E+04  7.5393 1.00000
  8.000E+04 8.011E+04 2.099E+00 2.332E-01 3.324E-01 2.624E-02 5.918E-01 2.691E+00 3.610E+04  7.8000 1.00000
  9.000E+04 9.011E+04 2.111E+00 2.673E-01 3.832E-01 2.946E-02 6.800E-01 2.791E+00 3.975E+04  8.0309 1.00000
  1.000E+05 1.001E+05 2.121E+00 3.018E-01 4.348E-01 3.262E-02 7.692E-01 2.890E+00 4.327E+04  8.2381 1.00000
  1.200E+05 1.201E+05 2.137E+00 3.721E-01 5.398E-01 3.904E-02 9.509E-01 3.088E+00 4.997E+04  8.5982 1.00000
  1.400E+05 1.401E+05 2.152E+00 4.437E-01 6.467E-01 4.545E-02 1.136E+00 3.287E+00 5.625E+04  8.9037 1.00000
  1.700E+05 1.701E+05 2.169E+00 5.530E-01 8.099E-01 5.506E-02 1.418E+00 3.587E+00 6.499E+04  9.2897 1.00000
  2.000E+05 2.001E+05 2.184E+00 6.642E-01 9.758E-01 6.472E-02 1.705E+00 3.889E+00 7.303E+04  9.6135 1.00000
  2.500E+05 2.501E+05 2.204E+00 8.528E-01 1.256E+00 8.085E-02 2.190E+00 4.394E+00 8.515E+04 10.0589 1.00000
  3.000E+05 3.001E+05 2.221E+00 1.045E+00 1.541E+00 9.710E-02 2.683E+00 4.904E+00 9.594E+04 10.4233 1.00000
  3.500E+05 3.501E+05 2.234E+00 1.239E+00 1.829E+00 1.135E-01 3.181E+00 5.416E+00 1.057E+05 10.7315 1.00000
  4.000E+05 4.001E+05 2.246E+00 1.436E+00 2.119E+00 1.300E-01 3.684E+00 5.931E+00 1.145E+05 10.9984 1.00000
  4.500E+05 4.501E+05 2.257E+00 1.634E+00 2.410E+00 1.466E-01 4.191E+00 6.448E+00 1.226E+05 11.2340 1.00000
  5.000E+05 5.001E+05 2.266E+00 1.833E+00 2.704E+00 1.633E-01 4.701E+00 6.967E+00 1.300E+05 11.4446 1.00000
  5.500E+05 5.501E+05 2.275E+00 2.034E+00 2.998E+00 1.799E-01 5.213E+00 7.488E+00 1.370E+05 11.6352 1.00000
  6.000E+05 6.001E+05 2.283E+00 2.236E+00 3.294E+00 1.966E-01 5.727E+00 8.010E+00 1.434E+05 11.8092 1.00000
  7.000E+05 7.001E+05 2.297E+00 2.643E+00 3.888E+00 2.302E-01 6.761E+00 9.058E+00 1.552E+05 12.1175 1.00000
  8.000E+05 8.001E+05 2.309E+00 3.053E+00 4.485E+00 2.642E-01 7.802E+00 1.011E+01 1.657E+05 12.3845 1.00000
  9.000E+05 9.001E+05 2.320E+00 3.465E+00 5.084E+00 2.985E-01 8.848E+00 1.117E+01 1.751E+05 12.6200 1.00000
  1.000E+06 1.000E+06 2.330E+00 3.880E+00 5.685E+00 3.331E-01 9.898E+00 1.223E+01 1.836E+05 12.8307 1.00000
  1.200E+06 1.200E+06 2.346E+00 4.714E+00 6.892E+00 4.032E-01 1.201E+01 1.436E+01 1.988E+05 13.1953 1.00000
  1.400E+06 1.400E+06 2.361E+00 5.554E+00 8.103E+00 4.742E-01 1.413E+01 1.649E+01 2.118E+05 13.5036 1.00000
  1.700E+06 1.700E+06 2.379E+00 6.822E+00 9.927E+00 5.824E-01 1.733E+01 1.971E+01 2.285E+05 13.8919 1.00000
  2.000E+06 2.000E+06 2.394E+00 8.098E+00 1.176E+01 6.924E-01 2.055E+01 2.294E+01 2.427E+05 14.2169 1.00000
  2.500E+06 2.500E+06 2.415E+00 1.024E+01 1.481E+01 8.789E-01 2.593E+01 2.834E+01 2.624E+05 14.6632 1.00000
  3.000E+06 3.000E+06 2.432E+00 1.238E+01 1.788E+01 1.069E+00 3.133E+01 3.376E+01 2.786E+05 15.0278 1.00000
  3.500E+06 3.500E+06 2.447E+00 1.454E+01 2.095E+01 1.262E+00 3.675E+01 3.920E+01 2.924E+05 15.3361 1.00000
  4.000E+06 4.000E+06 2.460E+00 1.670E+01 2.403E+01 1.458E+00 4.219E+01 4.465E+01 3.044E+05 15.6031 1.00000
  4.500E+06 4.500E+06 2.472E+00 1.887E+01 2.711E+01 1.656E+00 4.763E+01 5.011E+01 3.150E+05 15.8387 1.00000
  5.000E+06 5.000E+06 2.482E+00 2.104E+01 3.019E+01 1.857E+00 5.309E+01 5.557E+01 3.245E+05 16.0494 1.00000
  5.500E+06 5.500E+06 2.491E+00 2.322E+01 3.327E+01 2.060E+00 5.855E+01 6.104E+01 3.330E+05 16.2400 1.00000
  6.000E+06 6.000E+06 2.500E+00 2.540E+01 3.636E+01 2.264E+00 6.402E+01 6.652E+01 3.409E+05 16.4141 1.00000
  7.000E+06 7.000E+06 2.515E+00 2.976E+01 4.253E+01 2.678E+00 7.498E+01 7.749E+01 3.549E+05 16.7223 1.00000
  8.000E+06 8.000E+06 2.528E+00 3.414E+01 4.871E+01 3.098E+00 8.595E+01 8.848E+01 3.670E+05 16.9894 1.00000
  9.000E+06 9.000E+06 2.540E+00 3.852E+01 5.490E+01 3.524E+00 9.694E+01 9.948E+01 3.776E+05 17.2250 1.00000
  1.000E+07 1.000E+07 2.551E+00 4.290E+01 6.109E+01 3.955E+00 1.079E+02 1.105E+02 3.872E+05 17.4357 1.00000
  1.200E+07 1.200E+07 2.569E+00 5.168E+01 7.347E+01 4.830E+00 1.300E+02 1.325E+02 4.038E+05 17.8003 1.00000
  1.400E+07 1.400E+07 2.585E+00 6.047E+01 8.586E+01 5.720E+00 1.520E+02 1.546E+02 4.178E+05 18.1086 1.00000
  1.700E+07 1.700E+07 2.605E+00 7.367E+01 1.045E+02 7.081E+00 1.852E+02 1.878E+02 4.355E+05 18.4969 1.00000
  2.000E+07 2.000E+07 2.621E+00 8.689E+01 1.231E+02 8.467E+00 2.184E+02 2.210E+02 4.503E+05 18.8220 1.00000
  2.500E+07 2.500E+07 2.645E+00 1.089E+02 1.541E+02 1.083E+01 2.738E+02 2.765E+02 4.706E+05 19.2683 1.00000
  3.000E+07 3.000E+07 2.664E+00 1.310E+02 1.851E+02 1.324E+01 3.294E+02 3.320E+02 4.872E+05 19.6329 1.00000
  3.500E+07 3.500E+07 2.680E+00 1.531E+02 2.161E+02 1.570E+01 3.849E+02 3.876E+02 5.012E+05 19.9412 1.00000
  4.000E+07 4.000E+07 2.695E+00 1.752E+02 2.472E+02 1.819E+01 4.406E+02 4.433E+02 5.133E+05 20.2083 1.00000
  4.500E+07 4.500E+07 2.707E+00 1.973E+02 2.782E+02 2.073E+01 4.962E+02 4.989E+02 5.239E+05 20.4438 1.00000
  5.000E+07 5.000E+07 2.719E+00 2.194E+02 3.093E+02 2.329E+01 5.520E+02 5.547E+02 5.334E+05 20.6545 1.00000
  5.500E+07 5.500E+07 2.729E+00 2.415E+02 3.403E+02 2.588E+01 6.077E+02 6.104E+02 5.420E+05 20.8452 1.00000
  6.000E+07 6.000E+07 2.739E+00 2.636E+02 3.714E+02 2.850E+01 6.635E+02 6.662E+02 5.499E+05 21.0192 1.00000
  7.000E+07 7.000E+07 2.756E+00 3.079E+02 4.335E+02 3.380E+01 7.752E+02 7.779E+02 5.638E+05 21.3275 1.00000
  8.000E+07 8.000E+07 2.770E+00 3.521E+02 4.956E+02 3.920E+01 8.869E+02 8.897E+02 5.759E+05 21.5946 1.00000
  9.000E+07 9.000E+07 2.783E+00 3.964E+02 5.577E+02 4.467E+01 9.988E+02 1.002E+03 5.865E+05 21.8301 1.00000
  1.000E+08 1.000E+08 2.795E+00 4.407E+02 6.198E+02 5.020E+01 1.111E+03 1.114E+03 5.960E+05 22.0408 1.00000
  1.200E+08 1.200E+08 2.816E+00 5.292E+02 7.441E+02 6.147E+01 1.335E+03 1.338E+03 6.124E+05 22.4055 1.00000
  1.400E+08 1.400E+08 2.833E+00 6.178E+02 8.683E+02 7.294E+01 1.559E+03 1.562E+03 6.263E+05 22.7138 1.00000
  1.700E+08 1.700E+08 2.855E+00 7.507E+02 1.055E+03 9.051E+01 1.896E+03 1.899E+03 6.438E+05 23.1021 1.00000
  2.000E+08 2.000E+08 2.874E+00 8.836E+02 1.241E+03 1.084E+02 2.233E+03 2.236E+03 6.584E+05 23.4271 1.00000
  2.500E+08 2.500E+08 2.900E+00 1.105E+03 1.552E+03 1.390E+02 2.796E+03 2.799E+03 6.785E+05 23.8734 1.00000
  3.000E+08 3.000E+08 2.922E+00 1.327E+03 1.862E+03 1.702E+02 3.359E+03 3.362E+03 6.949E+05 24.2381 1.00000
  3.500E+08 3.500E+08 2.940E+00 1.548E+03 2.173E+03 2.021E+02 3.923E+03 3.926E+03 7.087E+05 24.5464 1.00000
  4.000E+08 4.000E+08 2.956E+00 1.770E+03 2.484E+03 2.345E+02 4.488E+03 4.491E+03 7.206E+05 24.8134 1.00000
  4.500E+08 4.500E+08 2.970E+00 1.991E+03 2.794E+03 2.674E+02 5.053E+03 5.056E+03 7.311E+05 25.0490 1.00000
  5.000E+08 5.000E+08 2.983E+00 2.213E+03 3.105E+03 3.007E+02 5.619E+03 5.622E+03 7.405E+05 25.2597 1.00000
  5.500E+08 5.500E+08 2.994E+00 2.435E+03 3.416E+03 3.344E+02 6.185E+03 6.188E+03 7.490E+05 25.4503 1.00000
  6.000E+08 6.000E+08 3.005E+00 2.656E+03 3.726E+03 3.685E+02 6.751E+03 6.754E+03 7.567E+05 25.6244 1.00000
  7.000E+08 7.000E+08 3.024E+00 3.099E+03 4.348E+03 4.376E+02 7.885E+03 7.888E+03 7.705E+05 25.9327 1.00000
  8.000E+08 8.000E+08 3.040E+00 3.543E+03 4.969E+03 5.079E+02 9.019E+03 9.022E+03 7.824E+05 26.1997 1.00000
  9.000E+08 9.000E+08 3.055E+00 3.986E+03 5.590E+03 5.793E+02 1.016E+04 1.016E+04 7.928E+05 26.4353 1.00000
  1.000E+09 1.000E+09 3.068E+00 4.429E+03 6.212E+03 6.516E+02 1.129E+04 1.130E+04 8.022E+05 26.6460 1.00000
