 Incident particle is a Muon with M = 105.65839 MeV
 Index = 0: YttriumBromide
      Absorber with <Z/A> = 0.43820
 Sternheimer coef:  a     k=m_s   x_0    x_1    I[eV]   Cbar  delta0
                 0.2077  3.0000  0.2831  3.0000  410.0  5.4697 0.00

 *** Table generated with PUMAS v1.00 ***

      T         p     Ionization  brems     pair     photonuc  Radloss    dE/dx   CSDA Range  delta   beta
    [MeV]    [MeV/c]  -----------------------[MeV cm^2/g]------------------------  [g/cm^2]
  1.000E+00 1.457E+01 2.765E+01 2.909E-06 0.000E+00 0.000E+00 2.909E-06 2.765E+01 1.808E-02  0.0000 0.13661
  1.200E+00 1.597E+01 2.419E+01 3.344E-06 0.000E+00 0.000E+00 3.344E-06 2.419E+01 2.583E-02  0.0000 0.14944
  1.400E+00 1.726E+01 2.158E+01 3.756E-06 0.000E+00 0.000E+00 3.756E-06 2.158E+01 3.460E-02  0.0000 0.16119
  1.700E+00 1.903E+01 1.866E+01 4.341E-06 0.000E+00 0.000E+00 4.341E-06 1.866E+01 4.959E-02  0.0000 0.17725
  2.000E+00 2.066E+01 1.650E+01 4.893E-06 0.000E+00 0.000E+00 4.893E-06 1.650E+01 6.672E-02  0.0000 0.19186
  2.500E+00 2.312E+01 1.393E+01 5.750E-06 0.000E+00 0.000E+00 5.750E-06 1.393E+01 9.981E-02  0.0000 0.21376
  3.000E+00 2.536E+01 1.213E+01 6.545E-06 0.000E+00 0.000E+00 6.545E-06 1.213E+01 1.384E-01  0.0000 0.23336
  3.500E+00 2.742E+01 1.078E+01 7.290E-06 0.000E+00 0.000E+00 7.290E-06 1.078E+01 1.822E-01  0.0000 0.25120
  4.000E+00 2.935E+01 9.737E+00 7.993E-06 0.000E+00 0.000E+00 7.993E-06 9.737E+00 2.310E-01  0.0000 0.26763
  4.500E+00 3.116E+01 8.901E+00 8.660E-06 0.000E+00 0.000E+00 8.660E-06 8.901E+00 2.848E-01  0.0000 0.28290
  5.000E+00 3.289E+01 8.217E+00 9.295E-06 0.000E+00 0.000E+00 9.295E-06 8.217E+00 3.433E-01  0.0000 0.29720
  5.500E+00 3.453E+01 7.645E+00 9.904E-06 0.000E+00 0.000E+00 9.904E-06 7.645E+00 4.064E-01  0.0000 0.31066
  6.000E+00 3.611E+01 7.159E+00 1.049E-05 0.000E+00 0.000E+00 1.049E-05 7.159E+00 4.741E-01  0.0000 0.32339
  7.000E+00 3.909E+01 6.378E+00 1.159E-05 0.000E+00 0.000E+00 1.159E-05 6.378E+00 6.223E-01  0.0000 0.34700
  8.000E+00 4.189E+01 5.776E+00 1.263E-05 0.000E+00 0.000E+00 1.263E-05 5.776E+00 7.873E-01  0.0000 0.36854
  9.000E+00 4.453E+01 5.297E+00 1.361E-05 0.000E+00 0.000E+00 1.361E-05 5.297E+00 9.682E-01  0.0000 0.38836
  1.000E+01 4.704E+01 4.906E+00 1.453E-05 0.000E+00 0.000E+00 1.453E-05 4.906E+00 1.165E+00  0.0000 0.40675
  1.200E+01 5.177E+01 4.306E+00 1.626E-05 0.000E+00 0.000E+00 1.626E-05 4.306E+00 1.601E+00  0.0000 0.43998
  1.400E+01 5.616E+01 3.867E+00 1.787E-05 0.000E+00 0.000E+00 1.787E-05 3.867E+00 2.091E+00  0.0000 0.46937
  1.700E+01 6.230E+01 3.391E+00 2.009E-05 0.000E+00 0.000E+00 2.009E-05 3.391E+00 2.922E+00  0.0000 0.50792
  2.000E+01 6.802E+01 3.050E+00 2.215E-05 0.000E+00 0.000E+00 2.215E-05 3.050E+00 3.856E+00  0.0000 0.54129
  2.500E+01 7.686E+01 2.657E+00 2.534E-05 0.000E+00 0.000E+00 2.534E-05 2.657E+00 5.616E+00  0.0000 0.58827
  3.000E+01 8.509E+01 2.390E+00 2.833E-05 0.000E+00 0.000E+00 2.833E-05 2.391E+00 7.603E+00  0.0000 0.62720
  3.500E+01 9.285E+01 2.199E+00 3.119E-05 0.000E+00 0.000E+00 3.119E-05 2.199E+00 9.786E+00  0.0000 0.66011
  4.000E+01 1.003E+02 2.055E+00 3.397E-05 0.000E+00 0.000E+00 3.397E-05 2.055E+00 1.214E+01  0.0000 0.68834
  4.500E+01 1.074E+02 1.943E+00 3.670E-05 0.000E+00 0.000E+00 3.670E-05 1.943E+00 1.464E+01  0.0000 0.71286
  5.000E+01 1.143E+02 1.855E+00 3.939E-05 0.000E+00 0.000E+00 3.939E-05 1.855E+00 1.728E+01  0.0000 0.73434
  5.500E+01 1.210E+02 1.783E+00 4.208E-05 0.000E+00 0.000E+00 4.208E-05 1.783E+00 2.003E+01  0.0000 0.75332
  6.000E+01 1.276E+02 1.724E+00 4.476E-05 0.000E+00 0.000E+00 4.476E-05 1.724E+00 2.288E+01  0.0000 0.77019
  7.000E+01 1.403E+02 1.633E+00 5.013E-05 0.000E+00 0.000E+00 5.013E-05 1.633E+00 2.884E+01  0.0000 0.79887
  8.000E+01 1.527E+02 1.567E+00 5.557E-05 0.000E+00 0.000E+00 5.557E-05 1.567E+00 3.510E+01  0.0000 0.82227
  9.000E+01 1.647E+02 1.518E+00 6.109E-05 0.000E+00 0.000E+00 6.109E-05 1.518E+00 4.158E+01  0.0000 0.84166
  1.000E+02 1.764E+02 1.481E+00 6.671E-05 0.000E+00 0.000E+00 6.671E-05 1.481E+00 4.825E+01  0.0000 0.85794
  1.200E+02 1.994E+02 1.431E+00 7.827E-05 0.000E+00 0.000E+00 7.827E-05 1.431E+00 6.199E+01  0.0000 0.88361
  1.400E+02 2.218E+02 1.400E+00 9.029E-05 0.000E+00 0.000E+00 9.029E-05 1.400E+00 7.612E+01  0.0022 0.90278
  1.700E+02 2.546E+02 1.374E+00 1.092E-04 0.000E+00 0.000E+00 1.092E-04 1.374E+00 9.775E+01  0.0163 0.92363
  2.000E+02 2.868E+02 1.361E+00 1.291E-04 0.000E+00 0.000E+00 1.291E-04 1.362E+00 1.197E+02  0.0380 0.93835
  2.500E+02 3.396E+02 1.357E+00 1.643E-04 0.000E+00 0.000E+00 1.643E-04 1.357E+00 1.565E+02  0.0833 0.95485
  3.000E+02 3.917E+02 1.361E+00 2.020E-04 0.000E+00 0.000E+00 2.020E-04 1.361E+00 1.933E+02  0.1346 0.96548
  3.500E+02 4.432E+02 1.370E+00 2.419E-04 6.500E-06 0.000E+00 2.484E-04 1.370E+00 2.299E+02  0.1885 0.97274
  4.000E+02 4.945E+02 1.381E+00 2.839E-04 1.615E-05 0.000E+00 3.000E-04 1.381E+00 2.662E+02  0.2433 0.97793
  4.500E+02 5.455E+02 1.393E+00 3.277E-04 2.697E-05 0.000E+00 3.547E-04 1.393E+00 3.022E+02  0.2981 0.98176
  5.000E+02 5.964E+02 1.405E+00 3.732E-04 4.021E-05 0.000E+00 4.135E-04 1.405E+00 3.380E+02  0.3524 0.98467
  5.500E+02 6.471E+02 1.416E+00 4.204E-04 5.588E-05 0.000E+00 4.763E-04 1.417E+00 3.734E+02  0.4057 0.98693
  6.000E+02 6.977E+02 1.428E+00 4.692E-04 7.388E-05 0.000E+00 5.431E-04 1.428E+00 4.086E+02  0.4580 0.98873
  7.000E+02 7.987E+02 1.449E+00 5.709E-04 1.166E-04 0.000E+00 6.874E-04 1.450E+00 4.781E+02  0.5591 0.99136
  8.000E+02 8.995E+02 1.469E+00 6.777E-04 1.677E-04 0.000E+00 8.454E-04 1.470E+00 5.466E+02  0.6555 0.99317
  9.000E+02 1.000E+03 1.487E+00 7.892E-04 2.267E-04 0.000E+00 1.016E-03 1.488E+00 6.142E+02  0.7474 0.99447
  1.000E+03 1.101E+03 1.504E+00 9.050E-04 2.932E-04 0.000E+00 1.198E-03 1.505E+00 6.810E+02  0.8349 0.99542
  1.200E+03 1.301E+03 1.533E+00 1.148E-03 4.467E-04 2.248E-05 1.617E-03 1.535E+00 8.126E+02  0.9983 0.99672
  1.400E+03 1.502E+03 1.559E+00 1.405E-03 6.252E-04 6.113E-05 2.091E-03 1.561E+00 9.418E+02  1.1481 0.99753
  1.700E+03 1.803E+03 1.591E+00 1.811E-03 9.347E-04 1.299E-04 2.876E-03 1.594E+00 1.132E+03  1.3517 0.99829
  2.000E+03 2.103E+03 1.618E+00 2.241E-03 1.288E-03 2.102E-04 3.740E-03 1.621E+00 1.319E+03  1.5345 0.99874
  2.500E+03 2.604E+03 1.654E+00 3.000E-03 1.963E-03 3.641E-04 5.327E-03 1.660E+00 1.623E+03  1.8032 0.99918
  3.000E+03 3.104E+03 1.684E+00 3.804E-03 2.729E-03 5.240E-04 7.057E-03 1.691E+00 1.922E+03  2.0375 0.99942
  3.500E+03 3.604E+03 1.708E+00 4.647E-03 3.573E-03 6.923E-04 8.912E-03 1.717E+00 2.216E+03  2.2454 0.99957
  4.000E+03 4.104E+03 1.729E+00 5.522E-03 4.497E-03 8.711E-04 1.089E-02 1.740E+00 2.505E+03  2.4325 0.99967
  4.500E+03 4.604E+03 1.747E+00 6.427E-03 5.488E-03 1.056E-03 1.297E-02 1.760E+00 2.791E+03  2.6027 0.99974
  5.000E+03 5.105E+03 1.762E+00 7.358E-03 6.535E-03 1.234E-03 1.513E-02 1.778E+00 3.073E+03  2.7590 0.99979
  5.500E+03 5.605E+03 1.776E+00 8.312E-03 7.633E-03 1.424E-03 1.737E-02 1.794E+00 3.353E+03  2.9034 0.99982
  6.000E+03 6.105E+03 1.789E+00 9.288E-03 8.777E-03 1.601E-03 1.967E-02 1.809E+00 3.631E+03  3.0378 0.99985
  7.000E+03 7.105E+03 1.811E+00 1.130E-02 1.119E-02 1.976E-03 2.446E-02 1.836E+00 4.180E+03  3.2816 0.99989
  8.000E+03 8.105E+03 1.830E+00 1.338E-02 1.375E-02 2.347E-03 2.948E-02 1.859E+00 4.721E+03  3.4984 0.99992
  9.000E+03 9.105E+03 1.846E+00 1.551E-02 1.644E-02 2.694E-03 3.465E-02 1.880E+00 5.256E+03  3.6937 0.99993
  1.000E+04 1.011E+04 1.860E+00 1.771E-02 1.925E-02 3.052E-03 4.001E-02 1.900E+00 5.785E+03  3.8715 0.99995
  1.200E+04 1.211E+04 1.883E+00 2.223E-02 2.516E-02 3.775E-03 5.116E-02 1.934E+00 6.828E+03  4.1857 0.99996
  1.400E+04 1.411E+04 1.903E+00 2.691E-02 3.140E-02 4.498E-03 6.281E-02 1.965E+00 7.854E+03  4.4574 0.99997
  1.700E+04 1.711E+04 1.926E+00 3.418E-02 4.130E-02 5.566E-03 8.105E-02 2.007E+00 9.365E+03  4.8069 0.99998
  2.000E+04 2.011E+04 1.945E+00 4.170E-02 5.172E-02 6.611E-03 1.000E-01 2.045E+00 1.085E+04  5.1051 0.99999
  2.500E+04 2.511E+04 1.970E+00 5.468E-02 7.002E-02 8.322E-03 1.330E-01 2.103E+00 1.326E+04  5.5221 0.99999
  3.000E+04 3.011E+04 1.990E+00 6.813E-02 8.925E-02 9.996E-03 1.674E-01 2.157E+00 1.560E+04  5.8685 0.99999
  3.500E+04 3.511E+04 2.006E+00 8.195E-02 1.092E-01 1.168E-02 2.029E-01 2.209E+00 1.789E+04  6.1649 1.00000
  4.000E+04 4.011E+04 2.020E+00 9.609E-02 1.298E-01 1.335E-02 2.393E-01 2.259E+00 2.013E+04  6.4239 1.00000
  4.500E+04 4.511E+04 2.032E+00 1.105E-01 1.509E-01 1.500E-02 2.764E-01 2.308E+00 2.232E+04  6.6539 1.00000
  5.000E+04 5.011E+04 2.042E+00 1.252E-01 1.725E-01 1.664E-02 3.143E-01 2.356E+00 2.447E+04  6.8607 1.00000
  5.500E+04 5.511E+04 2.051E+00 1.400E-01 1.944E-01 1.829E-02 3.527E-01 2.404E+00 2.657E+04  7.0486 1.00000
  6.000E+04 6.011E+04 2.060E+00 1.551E-01 2.167E-01 1.992E-02 3.917E-01 2.452E+00 2.863E+04  7.2206 1.00000
  7.000E+04 7.011E+04 2.075E+00 1.857E-01 2.621E-01 2.316E-02 4.710E-01 2.546E+00 3.263E+04  7.5266 1.00000
  8.000E+04 8.011E+04 2.087E+00 2.169E-01 3.085E-01 2.640E-02 5.519E-01 2.639E+00 3.649E+04  7.7924 1.00000
  9.000E+04 9.011E+04 2.098E+00 2.486E-01 3.558E-01 2.964E-02 6.341E-01 2.732E+00 4.021E+04  8.0274 1.00000
  1.000E+05 1.001E+05 2.108E+00 2.808E-01 4.037E-01 3.282E-02 7.173E-01 2.825E+00 4.381E+04  8.2378 1.00000
  1.200E+05 1.201E+05 2.124E+00 3.461E-01 5.013E-01 3.928E-02 8.867E-01 3.011E+00 5.068E+04  8.6021 1.00000
  1.400E+05 1.401E+05 2.138E+00 4.127E-01 6.007E-01 4.574E-02 1.059E+00 3.198E+00 5.712E+04  8.9102 1.00000
  1.700E+05 1.701E+05 2.156E+00 5.144E-01 7.525E-01 5.542E-02 1.322E+00 3.478E+00 6.613E+04  9.2982 1.00000
  2.000E+05 2.001E+05 2.171E+00 6.179E-01 9.067E-01 6.515E-02 1.590E+00 3.760E+00 7.443E+04  9.6231 1.00000
  2.500E+05 2.501E+05 2.191E+00 7.935E-01 1.168E+00 8.140E-02 2.043E+00 4.233E+00 8.698E+04 10.0692 1.00000
  3.000E+05 3.001E+05 2.207E+00 9.721E-01 1.433E+00 9.777E-02 2.503E+00 4.709E+00 9.820E+04 10.4337 1.00000
  3.500E+05 3.501E+05 2.221E+00 1.153E+00 1.700E+00 1.143E-01 2.968E+00 5.188E+00 1.083E+05 10.7419 1.00000
  4.000E+05 4.001E+05 2.233E+00 1.336E+00 1.970E+00 1.309E-01 3.437E+00 5.670E+00 1.176E+05 11.0088 1.00000
  4.500E+05 4.501E+05 2.243E+00 1.520E+00 2.242E+00 1.477E-01 3.910E+00 6.153E+00 1.260E+05 11.2444 1.00000
  5.000E+05 5.001E+05 2.253E+00 1.706E+00 2.515E+00 1.645E-01 4.385E+00 6.638E+00 1.339E+05 11.4550 1.00000
  5.500E+05 5.501E+05 2.261E+00 1.893E+00 2.789E+00 1.812E-01 4.863E+00 7.125E+00 1.411E+05 11.6456 1.00000
  6.000E+05 6.001E+05 2.269E+00 2.081E+00 3.064E+00 1.980E-01 5.343E+00 7.613E+00 1.479E+05 11.8196 1.00000
  7.000E+05 7.001E+05 2.283E+00 2.460E+00 3.617E+00 2.319E-01 6.309E+00 8.592E+00 1.603E+05 12.1279 1.00000
  8.000E+05 8.001E+05 2.295E+00 2.842E+00 4.172E+00 2.662E-01 7.280E+00 9.576E+00 1.713E+05 12.3949 1.00000
  9.000E+05 9.001E+05 2.306E+00 3.226E+00 4.730E+00 3.007E-01 8.257E+00 1.056E+01 1.813E+05 12.6304 1.00000
  1.000E+06 1.000E+06 2.316E+00 3.612E+00 5.290E+00 3.356E-01 9.238E+00 1.155E+01 1.904E+05 12.8411 1.00000
  1.200E+06 1.200E+06 2.333E+00 4.389E+00 6.413E+00 4.062E-01 1.121E+01 1.354E+01 2.064E+05 13.2057 1.00000
  1.400E+06 1.400E+06 2.347E+00 5.171E+00 7.541E+00 4.778E-01 1.319E+01 1.554E+01 2.202E+05 13.5140 1.00000
  1.700E+06 1.700E+06 2.365E+00 6.353E+00 9.239E+00 5.868E-01 1.618E+01 1.854E+01 2.380E+05 13.9023 1.00000
  2.000E+06 2.000E+06 2.380E+00 7.541E+00 1.094E+01 6.976E-01 1.918E+01 2.156E+01 2.530E+05 14.2273 1.00000
  2.500E+06 2.500E+06 2.401E+00 9.532E+00 1.379E+01 8.856E-01 2.421E+01 2.661E+01 2.740E+05 14.6736 1.00000
  3.000E+06 3.000E+06 2.419E+00 1.153E+01 1.664E+01 1.077E+00 2.926E+01 3.167E+01 2.913E+05 15.0382 1.00000
  3.500E+06 3.500E+06 2.433E+00 1.354E+01 1.950E+01 1.272E+00 3.432E+01 3.675E+01 3.060E+05 15.3465 1.00000
  4.000E+06 4.000E+06 2.446E+00 1.556E+01 2.237E+01 1.469E+00 3.940E+01 4.184E+01 3.188E+05 15.6135 1.00000
  4.500E+06 4.500E+06 2.458E+00 1.758E+01 2.524E+01 1.669E+00 4.448E+01 4.694E+01 3.301E+05 15.8491 1.00000
  5.000E+06 5.000E+06 2.468E+00 1.960E+01 2.811E+01 1.871E+00 4.958E+01 5.205E+01 3.402E+05 16.0598 1.00000
  5.500E+06 5.500E+06 2.477E+00 2.163E+01 3.098E+01 2.076E+00 5.469E+01 5.716E+01 3.494E+05 16.2504 1.00000
  6.000E+06 6.000E+06 2.486E+00 2.366E+01 3.385E+01 2.282E+00 5.980E+01 6.228E+01 3.578E+05 16.4245 1.00000
  7.000E+06 7.000E+06 2.501E+00 2.773E+01 3.960E+01 2.699E+00 7.003E+01 7.253E+01 3.727E+05 16.7327 1.00000
  8.000E+06 8.000E+06 2.514E+00 3.180E+01 4.536E+01 3.122E+00 8.029E+01 8.280E+01 3.856E+05 16.9998 1.00000
  9.000E+06 9.000E+06 2.526E+00 3.589E+01 5.112E+01 3.551E+00 9.056E+01 9.308E+01 3.970E+05 17.2354 1.00000
  1.000E+07 1.000E+07 2.537E+00 3.997E+01 5.689E+01 3.986E+00 1.008E+02 1.034E+02 4.072E+05 17.4461 1.00000
  1.200E+07 1.200E+07 2.555E+00 4.815E+01 6.842E+01 4.867E+00 1.214E+02 1.240E+02 4.250E+05 17.8107 1.00000
  1.400E+07 1.400E+07 2.571E+00 5.635E+01 7.996E+01 5.764E+00 1.421E+02 1.446E+02 4.399E+05 18.1190 1.00000
  1.700E+07 1.700E+07 2.591E+00 6.865E+01 9.728E+01 7.136E+00 1.731E+02 1.757E+02 4.589E+05 18.5073 1.00000
  2.000E+07 2.000E+07 2.607E+00 8.097E+01 1.146E+02 8.533E+00 2.041E+02 2.067E+02 4.747E+05 18.8324 1.00000
  2.500E+07 2.500E+07 2.631E+00 1.015E+02 1.435E+02 1.091E+01 2.559E+02 2.586E+02 4.964E+05 19.2787 1.00000
  3.000E+07 3.000E+07 2.650E+00 1.221E+02 1.724E+02 1.334E+01 3.078E+02 3.105E+02 5.141E+05 19.6433 1.00000
  3.500E+07 3.500E+07 2.666E+00 1.427E+02 2.013E+02 1.582E+01 3.598E+02 3.625E+02 5.291E+05 19.9516 1.00000
  4.000E+07 4.000E+07 2.681E+00 1.633E+02 2.302E+02 1.834E+01 4.118E+02 4.145E+02 5.420E+05 20.2187 1.00000
  4.500E+07 4.500E+07 2.693E+00 1.839E+02 2.591E+02 2.089E+01 4.639E+02 4.666E+02 5.534E+05 20.4542 1.00000
  5.000E+07 5.000E+07 2.705E+00 2.045E+02 2.880E+02 2.347E+01 5.160E+02 5.187E+02 5.636E+05 20.6649 1.00000
  5.500E+07 5.500E+07 2.715E+00 2.251E+02 3.170E+02 2.608E+01 5.681E+02 5.709E+02 5.728E+05 20.8556 1.00000
  6.000E+07 6.000E+07 2.724E+00 2.457E+02 3.459E+02 2.872E+01 6.203E+02 6.231E+02 5.812E+05 21.0296 1.00000
  7.000E+07 7.000E+07 2.741E+00 2.870E+02 4.037E+02 3.407E+01 7.248E+02 7.275E+02 5.961E+05 21.3379 1.00000
  8.000E+07 8.000E+07 2.756E+00 3.282E+02 4.616E+02 3.950E+01 8.293E+02 8.321E+02 6.090E+05 21.6050 1.00000
  9.000E+07 9.000E+07 2.769E+00 3.695E+02 5.195E+02 4.502E+01 9.340E+02 9.367E+02 6.203E+05 21.8405 1.00000
  1.000E+08 1.000E+08 2.781E+00 4.108E+02 5.773E+02 5.060E+01 1.039E+03 1.041E+03 6.304E+05 22.0512 1.00000
  1.200E+08 1.200E+08 2.801E+00 4.933E+02 6.930E+02 6.195E+01 1.248E+03 1.251E+03 6.480E+05 22.4159 1.00000
  1.400E+08 1.400E+08 2.819E+00 5.759E+02 8.088E+02 7.351E+01 1.458E+03 1.461E+03 6.629E+05 22.7242 1.00000
  1.700E+08 1.700E+08 2.841E+00 6.997E+02 9.824E+02 9.121E+01 1.773E+03 1.776E+03 6.816E+05 23.1125 1.00000
  2.000E+08 2.000E+08 2.860E+00 8.236E+02 1.156E+03 1.093E+02 2.089E+03 2.092E+03 6.972E+05 23.4375 1.00000
  2.500E+08 2.500E+08 2.886E+00 1.030E+03 1.445E+03 1.401E+02 2.616E+03 2.618E+03 7.187E+05 23.8838 1.00000
  3.000E+08 3.000E+08 2.907E+00 1.237E+03 1.735E+03 1.716E+02 3.143E+03 3.146E+03 7.362E+05 24.2485 1.00000
  3.500E+08 3.500E+08 2.925E+00 1.443E+03 2.024E+03 2.037E+02 3.671E+03 3.674E+03 7.509E+05 24.5568 1.00000
  4.000E+08 4.000E+08 2.941E+00 1.650E+03 2.313E+03 2.364E+02 4.200E+03 4.203E+03 7.637E+05 24.8238 1.00000
  4.500E+08 4.500E+08 2.956E+00 1.856E+03 2.603E+03 2.695E+02 4.729E+03 4.732E+03 7.749E+05 25.0594 1.00000
  5.000E+08 5.000E+08 2.968E+00 2.063E+03 2.892E+03 3.031E+02 5.258E+03 5.261E+03 7.850E+05 25.2701 1.00000
  5.500E+08 5.500E+08 2.980E+00 2.269E+03 3.182E+03 3.371E+02 5.788E+03 5.791E+03 7.940E+05 25.4607 1.00000
  6.000E+08 6.000E+08 2.990E+00 2.476E+03 3.471E+03 3.714E+02 6.318E+03 6.321E+03 8.023E+05 25.6348 1.00000
  7.000E+08 7.000E+08 3.009E+00 2.889E+03 4.050E+03 4.411E+02 7.380E+03 7.383E+03 8.170E+05 25.9431 1.00000
  8.000E+08 8.000E+08 3.026E+00 3.302E+03 4.628E+03 5.119E+02 8.442E+03 8.445E+03 8.297E+05 26.2101 1.00000
  9.000E+08 9.000E+08 3.040E+00 3.715E+03 5.207E+03 5.838E+02 9.506E+03 9.509E+03 8.409E+05 26.4457 1.00000
  1.000E+09 1.000E+09 3.054E+00 4.129E+03 5.786E+03 6.567E+02 1.057E+04 1.057E+04 8.508E+05 26.6564 1.00000
