 Incident particle is a Muon with M = 105.65839 MeV
 Index = 0: YttriumAluminumOxide2
      Absorber with <Z/A> = 0.46832
 Sternheimer coef:  a     k=m_s   x_0    x_1    I[eV]   Cbar  delta0
                 0.1534  3.0000  0.2000  3.0000  218.0  4.2884 0.00

 *** Table generated with PUMAS v1.00 ***

      T         p     Ionization  brems     pair     photonuc  Radloss    dE/dx   CSDA Range  delta   beta
    [MeV]    [MeV/c]  -----------------------[MeV cm^2/g]------------------------  [g/cm^2]
  1.000E+00 1.457E+01 3.442E+01 1.967E-06 0.000E+00 0.000E+00 1.967E-06 3.442E+01 1.453E-02  0.0000 0.13661
  1.200E+00 1.597E+01 2.992E+01 2.261E-06 0.000E+00 0.000E+00 2.261E-06 2.992E+01 2.077E-02  0.0000 0.14944
  1.400E+00 1.726E+01 2.656E+01 2.539E-06 0.000E+00 0.000E+00 2.539E-06 2.656E+01 2.788E-02  0.0000 0.16119
  1.700E+00 1.903E+01 2.283E+01 2.935E-06 0.000E+00 0.000E+00 2.935E-06 2.283E+01 4.010E-02  0.0000 0.17725
  2.000E+00 2.066E+01 2.011E+01 3.308E-06 0.000E+00 0.000E+00 3.308E-06 2.011E+01 5.413E-02  0.0000 0.19186
  2.500E+00 2.312E+01 1.688E+01 3.889E-06 0.000E+00 0.000E+00 3.889E-06 1.688E+01 8.138E-02  0.0000 0.21376
  3.000E+00 2.536E+01 1.463E+01 4.429E-06 0.000E+00 0.000E+00 4.429E-06 1.463E+01 1.133E-01  0.0000 0.23336
  3.500E+00 2.742E+01 1.296E+01 4.936E-06 0.000E+00 0.000E+00 4.936E-06 1.296E+01 1.497E-01  0.0000 0.25120
  4.000E+00 2.935E+01 1.167E+01 5.414E-06 0.000E+00 0.000E+00 5.414E-06 1.167E+01 1.904E-01  0.0000 0.26763
  4.500E+00 3.116E+01 1.065E+01 5.869E-06 0.000E+00 0.000E+00 5.869E-06 1.065E+01 2.353E-01  0.0000 0.28290
  5.000E+00 3.289E+01 9.810E+00 6.303E-06 0.000E+00 0.000E+00 6.303E-06 9.810E+00 2.842E-01  0.0000 0.29720
  5.500E+00 3.453E+01 9.111E+00 6.719E-06 0.000E+00 0.000E+00 6.719E-06 9.111E+00 3.371E-01  0.0000 0.31066
  6.000E+00 3.611E+01 8.520E+00 7.118E-06 0.000E+00 0.000E+00 7.118E-06 8.520E+00 3.939E-01  0.0000 0.32339
  7.000E+00 3.909E+01 7.570E+00 7.876E-06 0.000E+00 0.000E+00 7.876E-06 7.570E+00 5.187E-01  0.0000 0.34700
  8.000E+00 4.189E+01 6.841E+00 8.586E-06 0.000E+00 0.000E+00 8.586E-06 6.841E+00 6.578E-01  0.0000 0.36854
  9.000E+00 4.453E+01 6.263E+00 9.256E-06 0.000E+00 0.000E+00 9.256E-06 6.263E+00 8.107E-01  0.0000 0.38836
  1.000E+01 4.704E+01 5.792E+00 9.893E-06 0.000E+00 0.000E+00 9.893E-06 5.792E+00 9.769E-01  0.0000 0.40675
  1.200E+01 5.177E+01 5.072E+00 1.108E-05 0.000E+00 0.000E+00 1.108E-05 5.072E+00 1.347E+00  0.0000 0.43998
  1.400E+01 5.616E+01 4.545E+00 1.219E-05 0.000E+00 0.000E+00 1.219E-05 4.545E+00 1.764E+00  0.0000 0.46937
  1.700E+01 6.230E+01 3.976E+00 1.372E-05 0.000E+00 0.000E+00 1.372E-05 3.976E+00 2.471E+00  0.0000 0.50792
  2.000E+01 6.802E+01 3.570E+00 1.515E-05 0.000E+00 0.000E+00 1.515E-05 3.570E+00 3.269E+00  0.0000 0.54129
  2.500E+01 7.686E+01 3.102E+00 1.735E-05 0.000E+00 0.000E+00 1.735E-05 3.102E+00 4.775E+00  0.0000 0.58827
  3.000E+01 8.509E+01 2.786E+00 1.942E-05 0.000E+00 0.000E+00 1.942E-05 2.786E+00 6.478E+00  0.0000 0.62720
  3.500E+01 9.285E+01 2.559E+00 2.140E-05 0.000E+00 0.000E+00 2.140E-05 2.559E+00 8.353E+00  0.0000 0.66011
  4.000E+01 1.003E+02 2.388E+00 2.332E-05 0.000E+00 0.000E+00 2.332E-05 2.388E+00 1.038E+01  0.0000 0.68834
  4.500E+01 1.074E+02 2.256E+00 2.520E-05 0.000E+00 0.000E+00 2.520E-05 2.256E+00 1.253E+01  0.0000 0.71286
  5.000E+01 1.143E+02 2.151E+00 2.706E-05 0.000E+00 0.000E+00 2.706E-05 2.151E+00 1.480E+01  0.0000 0.73434
  5.500E+01 1.210E+02 2.065E+00 2.891E-05 0.000E+00 0.000E+00 2.891E-05 2.065E+00 1.718E+01  0.0000 0.75332
  6.000E+01 1.276E+02 1.995E+00 3.076E-05 0.000E+00 0.000E+00 3.076E-05 1.995E+00 1.964E+01  0.0000 0.77019
  7.000E+01 1.403E+02 1.887E+00 3.446E-05 0.000E+00 0.000E+00 3.446E-05 1.887E+00 2.479E+01  0.0000 0.79887
  8.000E+01 1.527E+02 1.809E+00 3.820E-05 0.000E+00 0.000E+00 3.820E-05 1.809E+00 3.021E+01  0.0000 0.82227
  9.000E+01 1.647E+02 1.751E+00 4.200E-05 0.000E+00 0.000E+00 4.200E-05 1.751E+00 3.583E+01  0.0000 0.84166
  1.000E+02 1.764E+02 1.704E+00 4.586E-05 0.000E+00 0.000E+00 4.586E-05 1.704E+00 4.162E+01  0.0234 0.85794
  1.200E+02 1.994E+02 1.638E+00 5.380E-05 0.000E+00 0.000E+00 5.380E-05 1.638E+00 5.359E+01  0.0830 0.88361
  1.400E+02 2.218E+02 1.595E+00 6.205E-05 0.000E+00 0.000E+00 6.205E-05 1.595E+00 6.596E+01  0.1406 0.90278
  1.700E+02 2.546E+02 1.557E+00 7.500E-05 1.635E-14 0.000E+00 7.500E-05 1.557E+00 8.500E+01  0.2233 0.92363
  2.000E+02 2.868E+02 1.537E+00 8.863E-05 3.656E-12 0.000E+00 8.863E-05 1.537E+00 1.044E+02  0.3015 0.93835
  2.500E+02 3.396E+02 1.523E+00 1.128E-04 6.012E-08 0.000E+00 1.128E-04 1.523E+00 1.371E+02  0.4233 0.95485
  3.000E+02 3.917E+02 1.521E+00 1.385E-04 5.529E-07 0.000E+00 1.391E-04 1.521E+00 1.699E+02  0.5358 0.96548
  3.500E+02 4.432E+02 1.526E+00 1.658E-04 3.739E-06 0.000E+00 1.695E-04 1.526E+00 2.027E+02  0.6403 0.97274
  4.000E+02 4.945E+02 1.534E+00 1.944E-04 1.075E-05 0.000E+00 2.052E-04 1.534E+00 2.354E+02  0.7380 0.97793
  4.500E+02 5.455E+02 1.543E+00 2.243E-04 1.793E-05 0.000E+00 2.423E-04 1.543E+00 2.679E+02  0.8298 0.98176
  5.000E+02 5.964E+02 1.553E+00 2.554E-04 2.670E-05 0.000E+00 2.821E-04 1.553E+00 3.002E+02  0.9165 0.98467
  5.500E+02 6.471E+02 1.563E+00 2.876E-04 3.705E-05 0.000E+00 3.246E-04 1.563E+00 3.323E+02  0.9985 0.98693
  6.000E+02 6.977E+02 1.573E+00 3.208E-04 4.895E-05 0.000E+00 3.697E-04 1.574E+00 3.642E+02  1.0765 0.98873
  7.000E+02 7.987E+02 1.593E+00 3.900E-04 7.715E-05 0.000E+00 4.672E-04 1.593E+00 4.273E+02  1.2219 0.99136
  8.000E+02 8.995E+02 1.611E+00 4.627E-04 1.109E-04 0.000E+00 5.737E-04 1.612E+00 4.897E+02  1.3552 0.99317
  9.000E+02 1.000E+03 1.628E+00 5.386E-04 1.499E-04 0.000E+00 6.885E-04 1.629E+00 5.515E+02  1.4785 0.99447
  1.000E+03 1.101E+03 1.644E+00 6.173E-04 1.938E-04 0.000E+00 8.111E-04 1.645E+00 6.126E+02  1.5933 0.99542
  1.200E+03 1.301E+03 1.672E+00 7.825E-04 2.951E-04 2.251E-05 1.100E-03 1.673E+00 7.331E+02  1.8016 0.99672
  1.400E+03 1.502E+03 1.697E+00 9.568E-04 4.128E-04 6.139E-05 1.431E-03 1.698E+00 8.518E+02  1.9872 0.99753
  1.700E+03 1.803E+03 1.728E+00 1.233E-03 6.170E-04 1.310E-04 1.981E-03 1.730E+00 1.027E+03  2.2329 0.99829
  2.000E+03 2.103E+03 1.754E+00 1.525E-03 8.504E-04 2.126E-04 2.587E-03 1.757E+00 1.199E+03  2.4485 0.99874
  2.500E+03 2.604E+03 1.790E+00 2.039E-03 1.295E-03 3.696E-04 3.704E-03 1.794E+00 1.481E+03  2.7586 0.99918
  3.000E+03 3.104E+03 1.819E+00 2.584E-03 1.801E-03 5.338E-04 4.919E-03 1.824E+00 1.757E+03  3.0236 0.99942
  3.500E+03 3.604E+03 1.844E+00 3.155E-03 2.358E-03 7.071E-04 6.220E-03 1.850E+00 2.029E+03  3.2552 0.99957
  4.000E+03 4.104E+03 1.864E+00 3.749E-03 2.973E-03 8.919E-04 7.613E-03 1.872E+00 2.298E+03  3.4614 0.99967
  4.500E+03 4.604E+03 1.882E+00 4.362E-03 3.634E-03 1.084E-03 9.079E-03 1.891E+00 2.564E+03  3.6472 0.99974
  5.000E+03 5.105E+03 1.898E+00 4.993E-03 4.333E-03 1.268E-03 1.059E-02 1.909E+00 2.827E+03  3.8165 0.99979
  5.500E+03 5.605E+03 1.913E+00 5.639E-03 5.066E-03 1.466E-03 1.217E-02 1.925E+00 3.088E+03  3.9721 0.99982
  6.000E+03 6.105E+03 1.925E+00 6.301E-03 5.830E-03 1.650E-03 1.378E-02 1.939E+00 3.347E+03  4.1161 0.99985
  7.000E+03 7.105E+03 1.948E+00 7.662E-03 7.444E-03 2.041E-03 1.715E-02 1.965E+00 3.859E+03  4.3754 0.99989
  8.000E+03 8.105E+03 1.967E+00 9.071E-03 9.157E-03 2.428E-03 2.066E-02 1.987E+00 4.365E+03  4.6044 0.99992
  9.000E+03 9.105E+03 1.983E+00 1.052E-02 1.096E-02 2.792E-03 2.427E-02 2.007E+00 4.866E+03  4.8094 0.99993
  1.000E+04 1.011E+04 1.998E+00 1.200E-02 1.284E-02 3.167E-03 2.801E-02 2.026E+00 5.361E+03  4.9953 0.99995
  1.200E+04 1.211E+04 2.022E+00 1.507E-02 1.679E-02 3.927E-03 3.579E-02 2.058E+00 6.341E+03  5.3217 0.99996
  1.400E+04 1.411E+04 2.042E+00 1.824E-02 2.098E-02 4.688E-03 4.391E-02 2.086E+00 7.307E+03  5.6024 0.99997
  1.700E+04 1.711E+04 2.066E+00 2.317E-02 2.762E-02 5.814E-03 5.661E-02 2.123E+00 8.732E+03  5.9613 0.99998
  2.000E+04 2.011E+04 2.086E+00 2.827E-02 3.462E-02 6.919E-03 6.981E-02 2.156E+00 1.013E+04  6.2661 0.99999
  2.500E+04 2.511E+04 2.113E+00 3.707E-02 4.692E-02 8.731E-03 9.273E-02 2.205E+00 1.243E+04  6.6902 0.99999
  3.000E+04 3.011E+04 2.133E+00 4.620E-02 5.986E-02 1.051E-02 1.166E-01 2.250E+00 1.467E+04  7.0410 0.99999
  3.500E+04 3.511E+04 2.150E+00 5.558E-02 7.331E-02 1.230E-02 1.412E-01 2.292E+00 1.687E+04  7.3402 1.00000
  4.000E+04 4.011E+04 2.165E+00 6.518E-02 8.718E-02 1.408E-02 1.664E-01 2.331E+00 1.904E+04  7.6011 1.00000
  4.500E+04 4.511E+04 2.178E+00 7.497E-02 1.014E-01 1.583E-02 1.922E-01 2.370E+00 2.117E+04  7.8324 1.00000
  5.000E+04 5.011E+04 2.189E+00 8.493E-02 1.159E-01 1.758E-02 2.185E-01 2.407E+00 2.326E+04  8.0402 1.00000
  5.500E+04 5.511E+04 2.198E+00 9.503E-02 1.308E-01 1.934E-02 2.451E-01 2.444E+00 2.532E+04  8.2287 1.00000
  6.000E+04 6.011E+04 2.207E+00 1.053E-01 1.458E-01 2.109E-02 2.722E-01 2.480E+00 2.735E+04  8.4011 1.00000
  7.000E+04 7.011E+04 2.223E+00 1.261E-01 1.765E-01 2.455E-02 3.271E-01 2.550E+00 3.133E+04  8.7076 1.00000
  8.000E+04 8.011E+04 2.236E+00 1.473E-01 2.079E-01 2.802E-02 3.832E-01 2.620E+00 3.520E+04  8.9736 1.00000
  9.000E+04 9.011E+04 2.248E+00 1.689E-01 2.399E-01 3.149E-02 4.402E-01 2.688E+00 3.897E+04  9.2087 1.00000
  1.000E+05 1.001E+05 2.258E+00 1.907E-01 2.723E-01 3.490E-02 4.979E-01 2.756E+00 4.264E+04  9.4191 1.00000
  1.200E+05 1.201E+05 2.276E+00 2.352E-01 3.384E-01 4.183E-02 6.155E-01 2.892E+00 4.973E+04  9.7834 1.00000
  1.400E+05 1.401E+05 2.291E+00 2.805E-01 4.058E-01 4.876E-02 7.351E-01 3.026E+00 5.649E+04 10.0915 1.00000
  1.700E+05 1.701E+05 2.310E+00 3.498E-01 5.088E-01 5.916E-02 9.178E-01 3.228E+00 6.609E+04 10.4795 1.00000
  2.000E+05 2.001E+05 2.326E+00 4.203E-01 6.136E-01 6.962E-02 1.104E+00 3.429E+00 7.511E+04 10.8044 1.00000
  2.500E+05 2.501E+05 2.347E+00 5.401E-01 7.911E-01 8.711E-02 1.418E+00 3.765E+00 8.904E+04 11.2505 1.00000
  3.000E+05 3.001E+05 2.364E+00 6.619E-01 9.712E-01 1.047E-01 1.738E+00 4.102E+00 1.018E+05 11.6150 1.00000
  3.500E+05 3.501E+05 2.379E+00 7.854E-01 1.153E+00 1.225E-01 2.061E+00 4.441E+00 1.135E+05 11.9232 1.00000
  4.000E+05 4.001E+05 2.392E+00 9.103E-01 1.337E+00 1.405E-01 2.388E+00 4.780E+00 1.244E+05 12.1901 1.00000
  4.500E+05 4.501E+05 2.403E+00 1.036E+00 1.522E+00 1.585E-01 2.717E+00 5.120E+00 1.345E+05 12.4257 1.00000
  5.000E+05 5.001E+05 2.414E+00 1.163E+00 1.708E+00 1.766E-01 3.048E+00 5.462E+00 1.439E+05 12.6363 1.00000
  5.500E+05 5.501E+05 2.423E+00 1.291E+00 1.895E+00 1.946E-01 3.381E+00 5.804E+00 1.528E+05 12.8269 1.00000
  6.000E+05 6.001E+05 2.431E+00 1.420E+00 2.083E+00 2.128E-01 3.715E+00 6.146E+00 1.612E+05 13.0009 1.00000
  7.000E+05 7.001E+05 2.446E+00 1.679E+00 2.460E+00 2.493E-01 4.388E+00 6.834E+00 1.766E+05 13.3092 1.00000
  8.000E+05 8.001E+05 2.459E+00 1.940E+00 2.839E+00 2.863E-01 5.065E+00 7.524E+00 1.906E+05 13.5762 1.00000
  9.000E+05 9.001E+05 2.471E+00 2.203E+00 3.220E+00 3.236E-01 5.746E+00 8.217E+00 2.033E+05 13.8117 1.00000
  1.000E+06 1.000E+06 2.481E+00 2.467E+00 3.602E+00 3.613E-01 6.430E+00 8.911E+00 2.150E+05 14.0224 1.00000
  1.200E+06 1.200E+06 2.499E+00 2.999E+00 4.370E+00 4.375E-01 7.806E+00 1.030E+01 2.360E+05 14.3870 1.00000
  1.400E+06 1.400E+06 2.514E+00 3.535E+00 5.140E+00 5.148E-01 9.190E+00 1.170E+01 2.542E+05 14.6953 1.00000
  1.700E+06 1.700E+06 2.533E+00 4.344E+00 6.301E+00 6.325E-01 1.128E+01 1.381E+01 2.779E+05 15.0836 1.00000
  2.000E+06 2.000E+06 2.550E+00 5.159E+00 7.465E+00 7.522E-01 1.338E+01 1.593E+01 2.982E+05 15.4086 1.00000
  2.500E+06 2.500E+06 2.572E+00 6.524E+00 9.412E+00 9.552E-01 1.689E+01 1.946E+01 3.267E+05 15.8549 1.00000
  3.000E+06 3.000E+06 2.591E+00 7.898E+00 1.136E+01 1.162E+00 2.042E+01 2.302E+01 3.504E+05 16.2195 1.00000
  3.500E+06 3.500E+06 2.606E+00 9.277E+00 1.332E+01 1.372E+00 2.397E+01 2.658E+01 3.707E+05 16.5278 1.00000
  4.000E+06 4.000E+06 2.620E+00 1.066E+01 1.528E+01 1.586E+00 2.753E+01 3.015E+01 3.884E+05 16.7948 1.00000
  4.500E+06 4.500E+06 2.632E+00 1.205E+01 1.724E+01 1.802E+00 3.109E+01 3.373E+01 4.041E+05 17.0304 1.00000
  5.000E+06 5.000E+06 2.643E+00 1.344E+01 1.921E+01 2.020E+00 3.467E+01 3.731E+01 4.182E+05 17.2411 1.00000
  5.500E+06 5.500E+06 2.653E+00 1.483E+01 2.117E+01 2.241E+00 3.824E+01 4.090E+01 4.310E+05 17.4317 1.00000
  6.000E+06 6.000E+06 2.662E+00 1.623E+01 2.314E+01 2.463E+00 4.183E+01 4.449E+01 4.427E+05 17.6058 1.00000
  7.000E+06 7.000E+06 2.679E+00 1.902E+01 2.708E+01 2.914E+00 4.901E+01 5.169E+01 4.637E+05 17.9140 1.00000
  8.000E+06 8.000E+06 2.693E+00 2.182E+01 3.102E+01 3.372E+00 5.621E+01 5.890E+01 4.818E+05 18.1811 1.00000
  9.000E+06 9.000E+06 2.705E+00 2.462E+01 3.496E+01 3.836E+00 6.342E+01 6.613E+01 4.979E+05 18.4167 1.00000
  1.000E+07 1.000E+07 2.717E+00 2.743E+01 3.891E+01 4.305E+00 7.064E+01 7.336E+01 5.122E+05 18.6274 1.00000
  1.200E+07 1.200E+07 2.736E+00 3.306E+01 4.680E+01 5.257E+00 8.512E+01 8.785E+01 5.373E+05 18.9920 1.00000
  1.400E+07 1.400E+07 2.753E+00 3.869E+01 5.470E+01 6.227E+00 9.962E+01 1.024E+02 5.584E+05 19.3003 1.00000
  1.700E+07 1.700E+07 2.775E+00 4.715E+01 6.656E+01 7.709E+00 1.214E+02 1.242E+02 5.851E+05 19.6886 1.00000
  2.000E+07 2.000E+07 2.792E+00 5.563E+01 7.842E+01 9.220E+00 1.433E+02 1.461E+02 6.075E+05 20.0137 1.00000
  2.500E+07 2.500E+07 2.817E+00 6.976E+01 9.820E+01 1.179E+01 1.798E+02 1.826E+02 6.383E+05 20.4600 1.00000
  3.000E+07 3.000E+07 2.838E+00 8.391E+01 1.180E+02 1.442E+01 2.163E+02 2.192E+02 6.634E+05 20.8246 1.00000
  3.500E+07 3.500E+07 2.855E+00 9.808E+01 1.378E+02 1.710E+01 2.530E+02 2.558E+02 6.846E+05 21.1329 1.00000
  4.000E+07 4.000E+07 2.871E+00 1.122E+02 1.576E+02 1.981E+01 2.896E+02 2.925E+02 7.029E+05 21.4000 1.00000
  4.500E+07 4.500E+07 2.884E+00 1.264E+02 1.774E+02 2.257E+01 3.264E+02 3.293E+02 7.190E+05 21.6355 1.00000
  5.000E+07 5.000E+07 2.896E+00 1.406E+02 1.972E+02 2.536E+01 3.632E+02 3.661E+02 7.335E+05 21.8462 1.00000
  5.500E+07 5.500E+07 2.907E+00 1.548E+02 2.170E+02 2.819E+01 4.000E+02 4.029E+02 7.465E+05 22.0369 1.00000
  6.000E+07 6.000E+07 2.918E+00 1.690E+02 2.368E+02 3.104E+01 4.368E+02 4.397E+02 7.584E+05 22.2109 1.00000
  7.000E+07 7.000E+07 2.936E+00 1.974E+02 2.764E+02 3.682E+01 5.106E+02 5.135E+02 7.795E+05 22.5192 1.00000
  8.000E+07 8.000E+07 2.951E+00 2.258E+02 3.160E+02 4.269E+01 5.845E+02 5.874E+02 7.977E+05 22.7863 1.00000
  9.000E+07 9.000E+07 2.965E+00 2.542E+02 3.557E+02 4.865E+01 6.585E+02 6.614E+02 8.138E+05 23.0218 1.00000
  1.000E+08 1.000E+08 2.978E+00 2.826E+02 3.953E+02 5.468E+01 7.325E+02 7.355E+02 8.282E+05 23.2325 1.00000
  1.200E+08 1.200E+08 3.000E+00 3.394E+02 4.745E+02 6.695E+01 8.809E+02 8.839E+02 8.531E+05 23.5972 1.00000
  1.400E+08 1.400E+08 3.019E+00 3.962E+02 5.538E+02 7.945E+01 1.029E+03 1.032E+03 8.741E+05 23.9055 1.00000
  1.700E+08 1.700E+08 3.042E+00 4.815E+02 6.727E+02 9.858E+01 1.253E+03 1.256E+03 9.006E+05 24.2938 1.00000
  2.000E+08 2.000E+08 3.062E+00 5.667E+02 7.916E+02 1.181E+02 1.476E+03 1.479E+03 9.226E+05 24.6188 1.00000
  2.500E+08 2.500E+08 3.090E+00 7.089E+02 9.898E+02 1.514E+02 1.850E+03 1.853E+03 9.530E+05 25.0651 1.00000
  3.000E+08 3.000E+08 3.113E+00 8.510E+02 1.188E+03 1.854E+02 2.224E+03 2.228E+03 9.777E+05 25.4298 1.00000
  3.500E+08 3.500E+08 3.132E+00 9.932E+02 1.386E+03 2.202E+02 2.599E+03 2.603E+03 9.986E+05 25.7381 1.00000
  4.000E+08 4.000E+08 3.149E+00 1.135E+03 1.584E+03 2.555E+02 2.975E+03 2.978E+03 1.017E+06 26.0051 1.00000
  4.500E+08 4.500E+08 3.165E+00 1.278E+03 1.782E+03 2.913E+02 3.351E+03 3.354E+03 1.032E+06 26.2407 1.00000
  5.000E+08 5.000E+08 3.178E+00 1.420E+03 1.981E+03 3.276E+02 3.728E+03 3.731E+03 1.047E+06 26.4514 1.00000
  5.500E+08 5.500E+08 3.191E+00 1.562E+03 2.179E+03 3.643E+02 4.105E+03 4.108E+03 1.059E+06 26.6420 1.00000
  6.000E+08 6.000E+08 3.202E+00 1.704E+03 2.377E+03 4.014E+02 4.482E+03 4.486E+03 1.071E+06 26.8161 1.00000
  7.000E+08 7.000E+08 3.222E+00 1.989E+03 2.773E+03 4.767E+02 5.238E+03 5.242E+03 1.092E+06 27.1244 1.00000
  8.000E+08 8.000E+08 3.240E+00 2.273E+03 3.170E+03 5.533E+02 5.996E+03 5.999E+03 1.110E+06 27.3914 1.00000
  9.000E+08 9.000E+08 3.255E+00 2.557E+03 3.566E+03 6.310E+02 6.754E+03 6.757E+03 1.125E+06 27.6270 1.00000
  1.000E+09 1.000E+09 3.269E+00 2.842E+03 3.962E+03 7.098E+02 7.514E+03 7.517E+03 1.139E+06 27.8377 1.00000
