 Incident particle is a Muon with M = 105.65839 MeV
 Index = 0: Zinc
      Absorber with <Z/A> = 0.45884
 Sternheimer coef:  a     k=m_s   x_0    x_1    I[eV]   Cbar  delta0
                 0.1471  2.8652  0.0049  3.3668  330.0  4.6906 0.08

 *** Table generated with PUMAS v1.00 ***

      T         p     Ionization  brems     pair     photonuc  Radloss    dE/dx   CSDA Range  delta   beta
    [MeV]    [MeV/c]  -----------------------[MeV cm^2/g]------------------------  [g/cm^2]
  1.000E+00 1.457E+01 3.059E+01 2.578E-06 0.000E+00 0.000E+00 2.578E-06 3.059E+01 1.635E-02  0.0015 0.13661
  1.200E+00 1.597E+01 2.669E+01 2.963E-06 0.000E+00 0.000E+00 2.963E-06 2.669E+01 2.336E-02  0.0018 0.14944
  1.400E+00 1.726E+01 2.376E+01 3.330E-06 0.000E+00 0.000E+00 3.330E-06 2.376E+01 3.132E-02  0.0021 0.16119
  1.700E+00 1.903E+01 2.050E+01 3.850E-06 0.000E+00 0.000E+00 3.850E-06 2.050E+01 4.494E-02  0.0025 0.17725
  2.000E+00 2.066E+01 1.811E+01 4.340E-06 0.000E+00 0.000E+00 4.340E-06 1.811E+01 6.054E-02  0.0030 0.19186
  2.500E+00 2.312E+01 1.525E+01 5.103E-06 0.000E+00 0.000E+00 5.103E-06 1.525E+01 9.074E-02  0.0037 0.21376
  3.000E+00 2.536E+01 1.325E+01 5.812E-06 0.000E+00 0.000E+00 5.812E-06 1.325E+01 1.260E-01  0.0045 0.23336
  3.500E+00 2.742E+01 1.177E+01 6.477E-06 0.000E+00 0.000E+00 6.477E-06 1.177E+01 1.661E-01  0.0053 0.25120
  4.000E+00 2.935E+01 1.062E+01 7.105E-06 0.000E+00 0.000E+00 7.105E-06 1.062E+01 2.109E-01  0.0060 0.26763
  4.500E+00 3.116E+01 9.697E+00 7.701E-06 0.000E+00 0.000E+00 7.701E-06 9.697E+00 2.602E-01  0.0068 0.28290
  5.000E+00 3.289E+01 8.944E+00 8.270E-06 0.000E+00 0.000E+00 8.270E-06 8.944E+00 3.140E-01  0.0076 0.29720
  5.500E+00 3.453E+01 8.316E+00 8.815E-06 0.000E+00 0.000E+00 8.815E-06 8.316E+00 3.720E-01  0.0084 0.31066
  6.000E+00 3.611E+01 7.783E+00 9.339E-06 0.000E+00 0.000E+00 9.339E-06 7.783E+00 4.342E-01  0.0091 0.32339
  7.000E+00 3.909E+01 6.926E+00 1.033E-05 0.000E+00 0.000E+00 1.033E-05 6.926E+00 5.706E-01  0.0107 0.34700
  8.000E+00 4.189E+01 6.267E+00 1.126E-05 0.000E+00 0.000E+00 1.126E-05 6.267E+00 7.226E-01  0.0123 0.36854
  9.000E+00 4.453E+01 5.742E+00 1.214E-05 0.000E+00 0.000E+00 1.214E-05 5.742E+00 8.894E-01  0.0139 0.38836
  1.000E+01 4.704E+01 5.315E+00 1.297E-05 0.000E+00 0.000E+00 1.297E-05 5.315E+00 1.071E+00  0.0155 0.40675
  1.200E+01 5.177E+01 4.660E+00 1.453E-05 0.000E+00 0.000E+00 1.453E-05 4.660E+00 1.473E+00  0.0188 0.43998
  1.400E+01 5.616E+01 4.181E+00 1.597E-05 0.000E+00 0.000E+00 1.597E-05 4.181E+00 1.927E+00  0.0221 0.46937
  1.700E+01 6.230E+01 3.662E+00 1.797E-05 0.000E+00 0.000E+00 1.797E-05 3.662E+00 2.695E+00  0.0272 0.50792
  2.000E+01 6.802E+01 3.290E+00 1.983E-05 0.000E+00 0.000E+00 1.983E-05 3.291E+00 3.561E+00  0.0324 0.54129
  2.500E+01 7.686E+01 2.862E+00 2.271E-05 0.000E+00 0.000E+00 2.271E-05 2.862E+00 5.194E+00  0.0414 0.58827
  3.000E+01 8.509E+01 2.572E+00 2.541E-05 0.000E+00 0.000E+00 2.541E-05 2.572E+00 7.040E+00  0.0507 0.62720
  3.500E+01 9.285E+01 2.363E+00 2.799E-05 0.000E+00 0.000E+00 2.799E-05 2.363E+00 9.070E+00  0.0604 0.66011
  4.000E+01 1.003E+02 2.206E+00 3.049E-05 0.000E+00 0.000E+00 3.049E-05 2.206E+00 1.126E+01  0.0704 0.68834
  4.500E+01 1.074E+02 2.084E+00 3.295E-05 0.000E+00 0.000E+00 3.295E-05 2.084E+00 1.359E+01  0.0798 0.71286
  5.000E+01 1.143E+02 1.986E+00 3.538E-05 0.000E+00 0.000E+00 3.538E-05 1.986E+00 1.605E+01  0.0959 0.73434
  5.500E+01 1.210E+02 1.907E+00 3.779E-05 0.000E+00 0.000E+00 3.779E-05 1.907E+00 1.862E+01  0.1121 0.75332
  6.000E+01 1.276E+02 1.841E+00 4.020E-05 0.000E+00 0.000E+00 4.020E-05 1.841E+00 2.129E+01  0.1283 0.77019
  7.000E+01 1.403E+02 1.740E+00 4.504E-05 0.000E+00 0.000E+00 4.504E-05 1.740E+00 2.688E+01  0.1604 0.79887
  8.000E+01 1.527E+02 1.666E+00 4.993E-05 0.000E+00 0.000E+00 4.993E-05 1.666E+00 3.276E+01  0.1919 0.82227
  9.000E+01 1.647E+02 1.611E+00 5.489E-05 0.000E+00 0.000E+00 5.489E-05 1.611E+00 3.886E+01  0.2227 0.84166
  1.000E+02 1.764E+02 1.568E+00 5.994E-05 0.000E+00 0.000E+00 5.994E-05 1.568E+00 4.515E+01  0.2527 0.85794
  1.200E+02 1.994E+02 1.509E+00 7.032E-05 0.000E+00 0.000E+00 7.032E-05 1.509E+00 5.815E+01  0.3107 0.88361
  1.400E+02 2.218E+02 1.472E+00 8.110E-05 0.000E+00 0.000E+00 8.110E-05 1.472E+00 7.157E+01  0.3659 0.90278
  1.700E+02 2.546E+02 1.439E+00 9.804E-05 0.000E+00 0.000E+00 9.804E-05 1.439E+00 9.218E+01  0.4440 0.92363
  2.000E+02 2.868E+02 1.422E+00 1.159E-04 0.000E+00 0.000E+00 1.159E-04 1.422E+00 1.132E+02  0.5173 0.93835
  2.500E+02 3.396E+02 1.412E+00 1.474E-04 0.000E+00 0.000E+00 1.474E-04 1.412E+00 1.484E+02  0.6304 0.95485
  3.000E+02 3.917E+02 1.413E+00 1.812E-04 0.000E+00 0.000E+00 1.812E-04 1.413E+00 1.838E+02  0.7341 0.96548
  3.500E+02 4.432E+02 1.419E+00 2.169E-04 7.070E-06 0.000E+00 2.239E-04 1.420E+00 2.191E+02  0.8300 0.97274
  4.000E+02 4.945E+02 1.428E+00 2.543E-04 1.432E-05 0.000E+00 2.687E-04 1.429E+00 2.543E+02  0.9193 0.97793
  4.500E+02 5.455E+02 1.439E+00 2.935E-04 2.372E-05 0.000E+00 3.172E-04 1.439E+00 2.891E+02  1.0030 0.98176
  5.000E+02 5.964E+02 1.449E+00 3.342E-04 3.529E-05 0.000E+00 3.695E-04 1.450E+00 3.237E+02  1.0819 0.98467
  5.500E+02 6.471E+02 1.460E+00 3.764E-04 4.899E-05 0.000E+00 4.253E-04 1.461E+00 3.581E+02  1.1565 0.98693
  6.000E+02 6.977E+02 1.471E+00 4.198E-04 6.471E-05 0.000E+00 4.846E-04 1.471E+00 3.922E+02  1.2274 0.98873
  7.000E+02 7.987E+02 1.491E+00 5.106E-04 1.020E-04 0.000E+00 6.126E-04 1.492E+00 4.597E+02  1.3593 0.99136
  8.000E+02 8.995E+02 1.510E+00 6.059E-04 1.466E-04 0.000E+00 7.525E-04 1.511E+00 5.263E+02  1.4801 0.99317
  9.000E+02 1.000E+03 1.528E+00 7.053E-04 1.982E-04 0.000E+00 9.035E-04 1.529E+00 5.921E+02  1.5918 0.99447
  1.000E+03 1.101E+03 1.544E+00 8.084E-04 2.562E-04 0.000E+00 1.065E-03 1.545E+00 6.572E+02  1.6956 0.99542
  1.200E+03 1.301E+03 1.574E+00 1.025E-03 3.902E-04 2.249E-05 1.438E-03 1.575E+00 7.854E+02  1.8842 0.99672
  1.400E+03 1.502E+03 1.599E+00 1.253E-03 5.460E-04 6.121E-05 1.860E-03 1.601E+00 9.113E+02  2.0523 0.99753
  1.700E+03 1.803E+03 1.631E+00 1.615E-03 8.160E-04 1.302E-04 2.562E-03 1.634E+00 1.097E+03  2.2750 0.99829
  2.000E+03 2.103E+03 1.658E+00 1.997E-03 1.125E-03 2.109E-04 3.333E-03 1.662E+00 1.279E+03  2.4706 0.99874
  2.500E+03 2.604E+03 1.696E+00 2.672E-03 1.713E-03 3.657E-04 4.751E-03 1.701E+00 1.576E+03  2.7523 0.99918
  3.000E+03 3.104E+03 1.726E+00 3.387E-03 2.382E-03 5.269E-04 6.295E-03 1.732E+00 1.868E+03  2.9934 0.99942
  3.500E+03 3.604E+03 1.751E+00 4.135E-03 3.118E-03 6.966E-04 7.950E-03 1.759E+00 2.154E+03  3.2047 0.99957
  4.000E+03 4.104E+03 1.773E+00 4.912E-03 3.927E-03 8.772E-04 9.716E-03 1.783E+00 2.436E+03  3.3930 0.99967
  4.500E+03 4.604E+03 1.792E+00 5.715E-03 4.795E-03 1.064E-03 1.157E-02 1.803E+00 2.715E+03  3.5630 0.99974
  5.000E+03 5.105E+03 1.808E+00 6.541E-03 5.712E-03 1.244E-03 1.350E-02 1.822E+00 2.991E+03  3.7182 0.99979
  5.500E+03 5.605E+03 1.823E+00 7.388E-03 6.674E-03 1.436E-03 1.550E-02 1.839E+00 3.264E+03  3.8610 0.99982
  6.000E+03 6.105E+03 1.837E+00 8.254E-03 7.677E-03 1.616E-03 1.755E-02 1.854E+00 3.535E+03  3.9933 0.99985
  7.000E+03 7.105E+03 1.860E+00 1.004E-02 9.792E-03 1.995E-03 2.182E-02 1.882E+00 4.070E+03  4.2321 0.99989
  8.000E+03 8.105E+03 1.880E+00 1.188E-02 1.204E-02 2.370E-03 2.629E-02 1.906E+00 4.599E+03  4.4435 0.99992
  9.000E+03 9.105E+03 1.897E+00 1.378E-02 1.440E-02 2.722E-03 3.090E-02 1.928E+00 5.120E+03  4.6332 0.99993
  1.000E+04 1.011E+04 1.912E+00 1.572E-02 1.686E-02 3.085E-03 3.566E-02 1.948E+00 5.636E+03  4.8055 0.99995
  1.200E+04 1.211E+04 1.938E+00 1.973E-02 2.204E-02 3.820E-03 4.559E-02 1.983E+00 6.654E+03  5.1091 0.99996
  1.400E+04 1.411E+04 1.958E+00 2.388E-02 2.753E-02 4.553E-03 5.596E-02 2.014E+00 7.655E+03  5.3709 0.99997
  1.700E+04 1.711E+04 1.984E+00 3.032E-02 3.622E-02 5.638E-03 7.218E-02 2.056E+00 9.129E+03  5.7070 0.99998
  2.000E+04 2.011E+04 2.005E+00 3.698E-02 4.538E-02 6.700E-03 8.906E-02 2.094E+00 1.057E+04  5.9935 0.99999
  2.500E+04 2.511E+04 2.032E+00 4.849E-02 6.146E-02 8.440E-03 1.184E-01 2.151E+00 1.293E+04  6.3940 0.99999
  3.000E+04 3.011E+04 2.054E+00 6.041E-02 7.837E-02 1.014E-02 1.489E-01 2.203E+00 1.523E+04  6.7269 0.99999
  3.500E+04 3.511E+04 2.072E+00 7.266E-02 9.595E-02 1.186E-02 1.805E-01 2.252E+00 1.747E+04  7.0121 1.00000
  4.000E+04 4.011E+04 2.087E+00 8.519E-02 1.141E-01 1.356E-02 2.128E-01 2.299E+00 1.967E+04  7.2617 1.00000
  4.500E+04 4.511E+04 2.100E+00 9.797E-02 1.327E-01 1.524E-02 2.459E-01 2.345E+00 2.182E+04  7.4837 1.00000
  5.000E+04 5.011E+04 2.111E+00 1.110E-01 1.516E-01 1.691E-02 2.795E-01 2.391E+00 2.394E+04  7.6837 1.00000
  5.500E+04 5.511E+04 2.121E+00 1.241E-01 1.710E-01 1.859E-02 3.137E-01 2.435E+00 2.601E+04  7.8657 1.00000
  6.000E+04 6.011E+04 2.130E+00 1.375E-01 1.906E-01 2.026E-02 3.484E-01 2.479E+00 2.804E+04  8.0327 1.00000
  7.000E+04 7.011E+04 2.146E+00 1.646E-01 2.307E-01 2.356E-02 4.189E-01 2.565E+00 3.201E+04  8.3303 1.00000
  8.000E+04 8.011E+04 2.160E+00 1.923E-01 2.716E-01 2.687E-02 4.908E-01 2.651E+00 3.585E+04  8.5899 1.00000
  9.000E+04 9.011E+04 2.172E+00 2.204E-01 3.133E-01 3.018E-02 5.639E-01 2.735E+00 3.956E+04  8.8201 1.00000
  1.000E+05 1.001E+05 2.182E+00 2.489E-01 3.556E-01 3.342E-02 6.380E-01 2.820E+00 4.316E+04  9.0269 1.00000
  1.200E+05 1.201E+05 2.200E+00 3.069E-01 4.418E-01 4.002E-02 7.887E-01 2.988E+00 5.005E+04  9.3864 1.00000
  1.400E+05 1.401E+05 2.215E+00 3.659E-01 5.296E-01 4.661E-02 9.422E-01 3.157E+00 5.657E+04  9.6919 1.00000
  1.700E+05 1.701E+05 2.233E+00 4.561E-01 6.638E-01 5.650E-02 1.176E+00 3.410E+00 6.572E+04 10.0781 1.00000
  2.000E+05 2.001E+05 2.248E+00 5.479E-01 8.002E-01 6.644E-02 1.415E+00 3.663E+00 7.421E+04 10.4023 1.00000
  2.500E+05 2.501E+05 2.269E+00 7.037E-01 1.031E+00 8.305E-02 1.818E+00 4.087E+00 8.715E+04 10.8483 1.00000
  3.000E+05 3.001E+05 2.287E+00 8.623E-01 1.265E+00 9.977E-02 2.227E+00 4.514E+00 9.881E+04 11.2128 1.00000
  3.500E+05 3.501E+05 2.301E+00 1.023E+00 1.502E+00 1.167E-01 2.642E+00 4.943E+00 1.094E+05 11.5210 1.00000
  4.000E+05 4.001E+05 2.314E+00 1.185E+00 1.741E+00 1.337E-01 3.060E+00 5.374E+00 1.191E+05 11.7879 1.00000
  4.500E+05 4.501E+05 2.325E+00 1.349E+00 1.982E+00 1.508E-01 3.482E+00 5.806E+00 1.281E+05 12.0235 1.00000
  5.000E+05 5.001E+05 2.335E+00 1.514E+00 2.223E+00 1.680E-01 3.906E+00 6.240E+00 1.364E+05 12.2341 1.00000
  5.500E+05 5.501E+05 2.344E+00 1.680E+00 2.466E+00 1.851E-01 4.332E+00 6.675E+00 1.441E+05 12.4247 1.00000
  6.000E+05 6.001E+05 2.352E+00 1.847E+00 2.710E+00 2.023E-01 4.760E+00 7.112E+00 1.514E+05 12.5987 1.00000
  7.000E+05 7.001E+05 2.366E+00 2.184E+00 3.200E+00 2.369E-01 5.621E+00 7.987E+00 1.647E+05 12.9070 1.00000
  8.000E+05 8.001E+05 2.379E+00 2.523E+00 3.692E+00 2.719E-01 6.487E+00 8.867E+00 1.766E+05 13.1740 1.00000
  9.000E+05 9.001E+05 2.390E+00 2.864E+00 4.187E+00 3.073E-01 7.358E+00 9.749E+00 1.874E+05 13.4095 1.00000
  1.000E+06 1.000E+06 2.401E+00 3.207E+00 4.683E+00 3.430E-01 8.233E+00 1.063E+01 1.972E+05 13.6202 1.00000
  1.200E+06 1.200E+06 2.418E+00 3.898E+00 5.679E+00 4.152E-01 9.992E+00 1.241E+01 2.146E+05 13.9848 1.00000
  1.400E+06 1.400E+06 2.433E+00 4.594E+00 6.679E+00 4.884E-01 1.176E+01 1.419E+01 2.297E+05 14.2931 1.00000
  1.700E+06 1.700E+06 2.452E+00 5.644E+00 8.185E+00 5.999E-01 1.443E+01 1.688E+01 2.492E+05 14.6814 1.00000
  2.000E+06 2.000E+06 2.468E+00 6.700E+00 9.695E+00 7.133E-01 1.711E+01 1.958E+01 2.658E+05 15.0064 1.00000
  2.500E+06 2.500E+06 2.490E+00 8.472E+00 1.222E+01 9.056E-01 2.160E+01 2.409E+01 2.889E+05 15.4527 1.00000
  3.000E+06 3.000E+06 2.508E+00 1.025E+01 1.475E+01 1.102E+00 2.611E+01 2.862E+01 3.080E+05 15.8173 1.00000
  3.500E+06 3.500E+06 2.524E+00 1.204E+01 1.729E+01 1.301E+00 3.063E+01 3.316E+01 3.243E+05 16.1256 1.00000
  4.000E+06 4.000E+06 2.537E+00 1.383E+01 1.983E+01 1.503E+00 3.517E+01 3.771E+01 3.385E+05 16.3926 1.00000
  4.500E+06 4.500E+06 2.549E+00 1.563E+01 2.238E+01 1.707E+00 3.972E+01 4.226E+01 3.510E+05 16.6282 1.00000
  5.000E+06 5.000E+06 2.560E+00 1.743E+01 2.492E+01 1.914E+00 4.427E+01 4.683E+01 3.623E+05 16.8389 1.00000
  5.500E+06 5.500E+06 2.570E+00 1.924E+01 2.747E+01 2.123E+00 4.883E+01 5.140E+01 3.725E+05 17.0295 1.00000
  6.000E+06 6.000E+06 2.579E+00 2.105E+01 3.002E+01 2.334E+00 5.340E+01 5.598E+01 3.818E+05 17.2036 1.00000
  7.000E+06 7.000E+06 2.594E+00 2.467E+01 3.513E+01 2.761E+00 6.255E+01 6.515E+01 3.984E+05 17.5118 1.00000
  8.000E+06 8.000E+06 2.608E+00 2.829E+01 4.023E+01 3.194E+00 7.172E+01 7.433E+01 4.128E+05 17.7789 1.00000
  9.000E+06 9.000E+06 2.621E+00 3.193E+01 4.535E+01 3.633E+00 8.091E+01 8.353E+01 4.255E+05 18.0145 1.00000
  1.000E+07 1.000E+07 2.632E+00 3.556E+01 5.046E+01 4.077E+00 9.010E+01 9.273E+01 4.369E+05 18.2252 1.00000
  1.200E+07 1.200E+07 2.651E+00 4.285E+01 6.070E+01 4.979E+00 1.085E+02 1.112E+02 4.567E+05 18.5898 1.00000
  1.400E+07 1.400E+07 2.667E+00 5.014E+01 7.094E+01 5.897E+00 1.270E+02 1.296E+02 4.734E+05 18.8981 1.00000
  1.700E+07 1.700E+07 2.688E+00 6.110E+01 8.631E+01 7.300E+00 1.547E+02 1.574E+02 4.945E+05 19.2864 1.00000
  2.000E+07 2.000E+07 2.706E+00 7.207E+01 1.017E+02 8.730E+00 1.825E+02 1.852E+02 5.121E+05 19.6115 1.00000
  2.500E+07 2.500E+07 2.730E+00 9.038E+01 1.273E+02 1.116E+01 2.289E+02 2.316E+02 5.364E+05 20.0578 1.00000
  3.000E+07 3.000E+07 2.750E+00 1.087E+02 1.530E+02 1.365E+01 2.753E+02 2.781E+02 5.562E+05 20.4224 1.00000
  3.500E+07 3.500E+07 2.768E+00 1.270E+02 1.786E+02 1.619E+01 3.218E+02 3.246E+02 5.729E+05 20.7307 1.00000
  4.000E+07 4.000E+07 2.782E+00 1.454E+02 2.043E+02 1.876E+01 3.684E+02 3.712E+02 5.873E+05 20.9978 1.00000
  4.500E+07 4.500E+07 2.796E+00 1.637E+02 2.300E+02 2.137E+01 4.150E+02 4.178E+02 6.000E+05 21.2333 1.00000
  5.000E+07 5.000E+07 2.808E+00 1.821E+02 2.556E+02 2.401E+01 4.617E+02 4.645E+02 6.114E+05 21.4440 1.00000
  5.500E+07 5.500E+07 2.819E+00 2.004E+02 2.813E+02 2.669E+01 5.084E+02 5.112E+02 6.217E+05 21.6347 1.00000
  6.000E+07 6.000E+07 2.828E+00 2.188E+02 3.070E+02 2.939E+01 5.551E+02 5.580E+02 6.310E+05 21.8087 1.00000
  7.000E+07 7.000E+07 2.846E+00 2.555E+02 3.583E+02 3.486E+01 6.487E+02 6.516E+02 6.477E+05 22.1170 1.00000
  8.000E+07 8.000E+07 2.862E+00 2.923E+02 4.097E+02 4.042E+01 7.424E+02 7.452E+02 6.621E+05 22.3841 1.00000
  9.000E+07 9.000E+07 2.875E+00 3.290E+02 4.610E+02 4.606E+01 8.361E+02 8.390E+02 6.747E+05 22.6196 1.00000
  1.000E+08 1.000E+08 2.888E+00 3.658E+02 5.124E+02 5.177E+01 9.299E+02 9.328E+02 6.860E+05 22.8303 1.00000
  1.200E+08 1.200E+08 2.909E+00 4.393E+02 6.151E+02 6.338E+01 1.118E+03 1.121E+03 7.057E+05 23.1950 1.00000
  1.400E+08 1.400E+08 2.927E+00 5.129E+02 7.178E+02 7.522E+01 1.306E+03 1.309E+03 7.223E+05 23.5033 1.00000
  1.700E+08 1.700E+08 2.951E+00 6.232E+02 8.719E+02 9.333E+01 1.588E+03 1.591E+03 7.431E+05 23.8916 1.00000
  2.000E+08 2.000E+08 2.970E+00 7.336E+02 1.026E+03 1.118E+02 1.871E+03 1.874E+03 7.606E+05 24.2166 1.00000
  2.500E+08 2.500E+08 2.997E+00 9.175E+02 1.283E+03 1.433E+02 2.344E+03 2.347E+03 7.846E+05 24.6629 1.00000
  3.000E+08 3.000E+08 3.020E+00 1.101E+03 1.540E+03 1.755E+02 2.817E+03 2.820E+03 8.041E+05 25.0276 1.00000
  3.500E+08 3.500E+08 3.039E+00 1.285E+03 1.797E+03 2.084E+02 3.290E+03 3.293E+03 8.205E+05 25.3359 1.00000
  4.000E+08 4.000E+08 3.056E+00 1.469E+03 2.053E+03 2.418E+02 3.765E+03 3.768E+03 8.348E+05 25.6029 1.00000
  4.500E+08 4.500E+08 3.070E+00 1.653E+03 2.310E+03 2.758E+02 4.239E+03 4.242E+03 8.473E+05 25.8385 1.00000
  5.000E+08 5.000E+08 3.084E+00 1.837E+03 2.567E+03 3.101E+02 4.715E+03 4.718E+03 8.585E+05 26.0492 1.00000
  5.500E+08 5.500E+08 3.096E+00 2.021E+03 2.824E+03 3.449E+02 5.190E+03 5.193E+03 8.686E+05 26.2398 1.00000
  6.000E+08 6.000E+08 3.107E+00 2.205E+03 3.081E+03 3.800E+02 5.666E+03 5.669E+03 8.778E+05 26.4139 1.00000
  7.000E+08 7.000E+08 3.127E+00 2.573E+03 3.594E+03 4.513E+02 6.619E+03 6.622E+03 8.942E+05 26.7222 1.00000
  8.000E+08 8.000E+08 3.144E+00 2.941E+03 4.108E+03 5.238E+02 7.573E+03 7.576E+03 9.083E+05 26.9892 1.00000
  9.000E+08 9.000E+08 3.159E+00 3.310E+03 4.622E+03 5.974E+02 8.529E+03 8.532E+03 9.208E+05 27.2248 1.00000
  1.000E+09 1.000E+09 3.173E+00 3.678E+03 5.135E+03 6.719E+02 9.485E+03 9.488E+03 9.319E+05 27.4355 1.00000
